File format V 1.0
ven. 6. janv. 03:19:14 2017
Operator : 
Comments : 

=============================================
SpectroFluorometer parameters
Mode : 3D measurement
Data : Fluorescence
Phospho. : Ordinary
Spectrum : Fluorescence

Scan speed : 2400 nm/mn
Response : 100 ms
PM Voltage : 700 V
Shutter : On

Lambda Ex. Start : 203
Lambda Ex. End : 603
Lambda Ex. Step : 5
Ex. Slit : 5 nm

Lambda Em. Start : 200
Lambda Em. End : 600
Lambda Em. Step : 5
Em. Slit : 5 nm

Repetition : 1
Decal lambda em : 10
=============================================
DATA
Ex : 203
200 3.34375
205 2.1473
210 2.94988
215 5.65866
220 2.56306
225 1.15485
230 5.19632
235 5.40692
240 5.23849
245 3.9008
250 6.26515
255 1.79926
260 3.88107
265 2.93229
270 7.01098
275 2.92471
280 2.63811
285 2.9482
290 1.53703
295 4.40142
300 2.7222
305 1.81221
310 2.56943
315 3.79769
320 2.65835
325 5.20891
330 3.93616
335 3.02973
340 5.73729
345 3.25724
350 4.24286
355 2.34099
360 2.50434
365 5.47238
370 2.70651
375 3.61612
380 7.19064
385 3.0662
390 1.21211
395 6.109
400 4.99884
405 3.98624
410 7.20385
415 4.3876
420 2.61255
425 2.22331
430 6.46211
435 3.87023
440 5.07726
445 4.29861
450 3.28889
455 3.47296
460 2.0227
465 4.60974
470 2.08406
475 4.23313
480 3.47265
485 2.78908
490 3.8622
495 5.55718
500 2.63598
505 2.40607
510 2.40069
515 5.50238
520 4.06706
525 6.01413
530 5.37288
535 3.74153
540 6.26429
545 2.23877
550 3.62351
555 4.59179
560 3.75425
565 3.87417
570 2.44619
575 2.67398
580 2.31022
585 8.07076
590 2.91696
595 2.47453
600 2.9402
Ex : 208
200 2.70909
205 3.83135
210 2.40059
215 3.37489
220 6.17114
225 5.85885
230 3.15034
235 4.84525
240 2.91256
245 2.16554
250 2.38809
255 5.70558
260 3.45919
265 2.53702
270 3.45838
275 2.92798
280 3.16485
285 1.42591
290 2.22815
295 3.05328
300 4.24084
305 2.53336
310 5.11062
315 4.35901
320 2.50013
325 2.83094
330 2.17764
335 4.85607
340 3.73178
345 3.88587
350 3.4143
355 2.25183
360 3.60541
365 4.99736
370 5.72478
375 4.24551
380 4.64062
385 2.6572
390 5.04652
395 4.76415
400 3.35982
405 4.00447
410 4.08107
415 2.7304
420 1.45255
425 4.0964
430 3.65973
435 4.42465
440 1.46061
445 1.98025
450 2.70118
455 1.91761
460 8.07011
465 3.37086
470 2.99844
475 3.19976
480 2.98028
485 5.91045
490 6.0923
495 3.92985
500 1.32286
505 6.00813
510 3.55306
515 3.47902
520 5.29956
525 4.85467
530 1.43865
535 2.77599
540 5.87481
545 5.11681
550 5.33099
555 5.55044
560 6.10014
565 2.14069
570 4.69064
575 1.75159
580 2.67516
585 4.28036
590 2.8879
595 6.78112
600 0.771666
Ex : 213
200 3.73333
205 4.4946
210 3.0342
215 2.95072
220 6.72911
225 2.0868
230 2.86346
235 5.70336
240 3.89081
245 9.41413
250 4.3551
255 2.92853
260 2.7745
265 7.76097
270 2.18062
275 2.70266
280 3.94444
285 3.56699
290 4.06968
295 2.06698
300 3.61353
305 4.93254
310 3.12805
315 5.31529
320 2.87332
325 2.29052
330 2.43588
335 3.39267
340 4.06103
345 3.84527
350 2.33573
355 2.7241
360 4.94112
365 1.2227
370 1.34223
375 4.39508
380 3.16462
385 5.057
390 2.53361
395 0.992874
400 2.38388
405 4.91932
410 8.11585
415 3.97279
420 1.90171
425 5.57169
430 3.04029
435 4.5986
440 1.89845
445 2.93754
450 2.36232
455 2.93297
460 4.47343
465 3.73652
470 3.47462
475 4.78238
480 4.41642
485 7.09925
490 3.6037
495 7.54636
500 3.25389
505 2.17453
510 3.48181
515 3.4316
520 6.19939
525 7.2843
530 3.41664
535 3.38417
540 3.62118
545 4.3325
550 3.06189
555 2.27723
560 5.05572
565 3.36782
570 2.48411
575 6.71932
580 3.26059
585 3.13744
590 4.29329
595 3.51744
600 0.400271
Ex : 218
200 3.91875
205 1.63678
210 2.61138
215 3.03834
220 4.09297
225 4.5423
230 2.30096
235 4.26319
240 2.78689
245 4.98695
250 4.43402
255 4.91908
260 3.6054
265 4.56471
270 5.18505
275 8.70552
280 3.15341
285 3.48503
290 2.10729
295 4.68684
300 3.84326
305 3.2607
310 5.45231
315 4.55128
320 2.84561
325 3.44117
330 3.26777
335 3.41954
340 2.07687
345 5.1678
350 3.90861
355 4.19582
360 5.3341
365 2.71173
370 4.11405
375 2.93181
380 3.87844
385 3.67447
390 4.81593
395 3.81974
400 2.30731
405 4.69926
410 3.75426
415 3.42198
420 3.07363
425 3.25455
430 2.17579
435 1.86683
440 6.50717
445 5.42075
450 6.73487
455 2.09846
460 3.08426
465 2.20141
470 4.474
475 4.48847
480 2.96086
485 3.08945
490 3.95283
495 2.27176
500 6.10537
505 4.79033
510 3.42655
515 2.82699
520 2.47391
525 3.0467
530 4.99359
535 4.56157
540 4.24004
545 5.81721
550 2.08761
555 4.05552
560 3.34454
565 2.24215
570 1.87625
575 2.70524
580 2.70514
585 5.31261
590 3.11245
595 3.05231
600 0.347341
Ex : 223
200 2.88485
205 2.9869
210 4.86749
215 2.64906
220 2.19131
225 1.147
230 3.183
235 5.73226
240 4.25217
245 4.9149
250 6.82075
255 3.8719
260 1.54563
265 4.22935
270 2.46956
275 1.15662
280 2.75416
285 6.73705
290 6.82238
295 7.17905
300 6.19706
305 3.39067
310 2.07817
315 4.71799
320 3.57376
325 3.25128
330 6.36807
335 2.34318
340 2.47944
345 4.03876
350 3.60259
355 2.2209
360 4.59075
365 4.12631
370 4.7143
375 4.60601
380 4.02292
385 5.52345
390 2.0106
395 4.03364
400 4.97545
405 4.78566
410 2.83933
415 5.02597
420 8.40812
425 1.79156
430 1.86903
435 3.12054
440 3.31689
445 3.0801
450 3.72811
455 4.11042
460 3.76175
465 2.88086
470 5.19913
475 5.45217
480 5.55106
485 6.47954
490 4.02251
495 2.33889
500 1.70415
505 3.41554
510 2.33278
515 3.21947
520 6.02573
525 2.34734
530 4.67078
535 4.46959
540 2.23908
545 2.39211
550 5.12731
555 2.35588
560 4.08385
565 2.49845
570 2.81142
575 3.07464
580 2.32155
585 2.11178
590 3.85059
595 5.35814
600 0.609736
Ex : 228
200 5.01143
205 3.78668
210 6.43339
215 3.2092
220 2.89062
225 4.61773
230 3.69769
235 4.00805
240 1.88
245 3.44566
250 2.10507
255 1.75949
260 4.16208
265 5.10874
270 3.29048
275 1.74608
280 3.80545
285 2.33733
290 2.44456
295 2.60013
300 1.79235
305 1.65734
310 1.14948
315 2.76335
320 7.08796
325 5.09711
330 2.69249
335 1.68887
340 3.38036
345 4.59555
350 3.75999
355 3.24437
360 3.94071
365 4.79482
370 2.76114
375 4.82579
380 5.21157
385 3.19796
390 2.50214
395 1.52752
400 3.22215
405 3.26975
410 2.46627
415 5.91285
420 2.08768
425 4.7807
430 2.08433
435 3.1161
440 5.89604
445 4.70452
450 2.64409
455 4.3596
460 4.75525
465 2.73695
470 3.89054
475 3.1464
480 1.90243
485 0.85538
490 2.13269
495 4.55077
500 5.21038
505 5.02922
510 3.7944
515 6.96087
520 5.28497
525 5.16685
530 2.02521
535 6.07519
540 3.27703
545 2.75549
550 1.7702
555 4.83101
560 3.4133
565 7.87252
570 3.8827
575 4.04609
580 5.10499
585 2.45664
590 2.85305
595 2.9983
600 0.341195
Ex : 233
200 4.1978
205 3.49821
210 2.15091
215 4.3636
220 3.14118
225 3.40786
230 2.62938
235 3.82527
240 3.46112
245 6.90513
250 3.06052
255 2.26588
260 1.82613
265 1.58992
270 2.37511
275 6.54797
280 2.02313
285 1.31639
290 0.867675
295 2.57748
300 2.01521
305 3.47874
310 4.4084
315 2.37311
320 2.14093
325 1.94442
330 1.39818
335 2.69179
340 4.17016
345 1.21825
350 4.38009
355 4.71039
360 1.62297
365 2.78582
370 4.43834
375 3.58964
380 5.25043
385 6.75351
390 3.33513
395 3.16805
400 5.14504
405 2.69805
410 3.33251
415 1.26037
420 3.81615
425 1.08674
430 2.04528
435 2.63329
440 2.01639
445 1.75216
450 4.34123
455 3.316
460 4.95016
465 5.06429
470 5.00282
475 3.25253
480 2.40935
485 2.87051
490 1.59198
495 1.61774
500 3.89356
505 2.02619
510 3.14893
515 2.90923
520 2.52195
525 1.80551
530 5.42007
535 2.11723
540 2.4402
545 1.56501
550 5.45987
555 3.56351
560 2.95218
565 2.86327
570 0.972019
575 1.7441
580 4.94925
585 3.34988
590 2.36553
595 1.66701
600 0.1897
Ex : 238
200 6.32857
205 2.68856
210 1.53819
215 2.05665
220 2.38107
225 1.26794
230 2.93757
235 1.77436
240 3.89924
245 5.39577
250 2.85125
255 2.45387
260 3.18616
265 2.49112
270 1.35779
275 1.4303
280 1.57397
285 2.83772
290 2.93089
295 4.11882
300 4.20598
305 4.79835
310 1.76297
315 2.9274
320 2.32
325 1.97107
330 3.09143
335 2.46766
340 2.9563
345 1.61006
350 2.69932
355 3.23946
360 2.71279
365 3.28919
370 3.25657
375 2.19363
380 3.19116
385 4.50304
390 2.92087
395 2.28857
400 3.86679
405 2.72437
410 3.19905
415 2.8514
420 4.03626
425 3.69395
430 2.92181
435 2.7474
440 4.46616
445 3.47069
450 2.88113
455 2.03144
460 3.75148
465 3.60458
470 4.75094
475 4.0298
480 2.86701
485 4.2247
490 2.93259
495 2.34046
500 1.07306
505 3.0544
510 1.18045
515 3.81208
520 3.89258
525 2.36586
530 5.29105
535 3.7957
540 1.27866
545 1.80815
550 2.09521
555 2.15143
560 3.44118
565 3.0502
570 3.47067
575 1.52977
580 3.22996
585 3.05386
590 1.66877
595 2.81159
600 0.319948
Ex : 243
200 1.95102
205 0.604946
210 4.02566
215 3.55063
220 3.22443
225 1.06214
230 1.69482
235 2.07951
240 2.32529
245 1.32152
250 0.96019
255 2.52942
260 3.18082
265 2.69663
270 4.0282
275 2.06441
280 1.6924
285 0.886781
290 4.19277
295 2.69084
300 1.25199
305 1.95882
310 1.44278
315 2.83365
320 5.68829
325 2.41599
330 4.43297
335 3.18541
340 2.9256
345 2.03179
350 0.99826
355 2.32545
360 2.56322
365 1.61027
370 2.81292
375 1.29528
380 2.82156
385 4.38677
390 3.36828
395 1.02061
400 2.68347
405 2.5364
410 4.12146
415 2.78215
420 3.04656
425 2.679
430 2.01769
435 2.34863
440 1.11715
445 5.35126
450 3.65619
455 2.13741
460 1.82927
465 2.05779
470 2.27598
475 2.99535
480 1.26309
485 2.29381
490 2.91258
495 1.51182
500 2.15758
505 1.0817
510 1.32252
515 4.26027
520 3.82088
525 1.99018
530 2.17974
535 1.2985
540 1.82974
545 2.59584
550 1.68031
555 1.96362
560 0.944432
565 2.2081
570 1.11961
575 3.58869
580 1.59481
585 3.67068
590 2.88539
595 1.22206
600 10.7735
Ex : 248
200 2.06623
205 1.88445
210 1.11944
215 2.18276
220 1.09862
225 1.58614
230 0.710993
235 1.55071
240 1.60688
245 2.86153
250 1.91959
255 1.52313
260 1.1237
265 3.57956
270 3.95216
275 2.10145
280 1.28012
285 1.55568
290 1.47902
295 0.997044
300 1.22121
305 3.84035
310 1.50109
315 1.54281
320 1.19595
325 2.35312
330 3.21347
335 2.5706
340 3.19057
345 2.30531
350 2.8855
355 1.50092
360 2.90537
365 1.30268
370 1.64127
375 0.674645
380 1.77376
385 2.19655
390 2.63612
395 2.39577
400 4.45001
405 2.60461
410 1.57744
415 2.5292
420 2.13041
425 3.12025
430 3.43182
435 3.24672
440 2.51138
445 1.30599
450 2.91952
455 2.9135
460 3.18028
465 2.47978
470 2.36571
475 1.25322
480 2.75427
485 3.86719
490 3.02509
495 1.05822
500 1.39322
505 1.83817
510 2.79586
515 2.13672
520 2.66483
525 1.73908
530 1.60558
535 1.94921
540 2.93849
545 3.78575
550 1.11076
555 0.731613
560 0.520369
565 1.97777
570 4.09523
575 1.77647
580 2.79237
585 1.3136
590 1.31456
595 2.66152
600 0.745973
Ex : 253
200 1.71154
205 1.60003
210 1.08865
215 2.38153
220 1.0074
225 0.912474
230 1.44477
235 1.833
240 0.763452
245 1.77431
250 1.44111
255 3.28166
260 1.9421
265 1.00106
270 1.42672
275 1.60518
280 1.4652
285 1.85791
290 1.09763
295 0.55805
300 1.02356
305 1.606
310 2.31828
315 1.44209
320 1.29804
325 1.64239
330 1.12597
335 1.57544
340 1.27965
345 1.27884
350 2.45991
355 2.08738
360 1.18365
365 2.77163
370 3.08671
375 1.78443
380 3.0016
385 1.86563
390 0.8548
395 0.988541
400 1.94962
405 1.60983
410 1.88134
415 2.3798
420 3.70577
425 1.95879
430 1.6031
435 2.8856
440 1.68618
445 2.23466
450 2.90028
455 2.4096
460 1.44842
465 0.94677
470 1.93332
475 0.792704
480 2.32032
485 1.24702
490 1.75954
495 0.943414
500 1.08698
505 1.02976
510 0.802876
515 1.29601
520 2.87699
525 2.03489
530 1.2351
535 1.27776
540 1.17581
545 2.99576
550 1.61155
555 1.52642
560 1.5444
565 2.67392
570 1.93845
575 2.03098
580 0.977006
585 1.44779
590 1.75942
595 0.791018
600 0.0900148
Ex : 258
200 1.56081
205 0.903978
210 1.35866
215 2.09629
220 1.18921
225 0.791554
230 1.00034
235 1.33792
240 1.75886
245 2.88214
250 1.15102
255 1.30476
260 0.772102
265 1.15131
270 1.18031
275 1.25814
280 1.76103
285 0.842946
290 0.836848
295 1.11625
300 1.02857
305 2.92995
310 1.52165
315 0.789225
320 0.97012
325 1.41447
330 1.01537
335 2.2962
340 2.25427
345 1.73145
350 0.853773
355 1.74182
360 0.816586
365 1.64719
370 1.48855
375 0.992295
380 1.12488
385 2.77058
390 2.04759
395 1.1717
400 1.33973
405 1.1545
410 1.15209
415 2.20937
420 1.49007
425 1.72646
430 0.984637
435 1.15299
440 1.66448
445 0.920427
450 1.04949
455 1.9331
460 1.08218
465 0.865697
470 1.50232
475 1.61862
480 1.54107
485 2.39286
490 1.46572
495 0.836326
500 1.99939
505 2.90561
510 1.31096
515 0.85183
520 1.32187
525 1.05819
530 2.28537
535 0.67505
540 0.75805
545 2.51197
550 0.745883
555 0.947023
560 1.55774
565 1.67561
570 0.712905
575 0.993277
580 1.89359
585 0.948688
590 0.978406
595 2.69577
600 0.306768
Ex : 263
200 1.23345
205 0.97137
210 0.982967
215 1.21093
220 0.766033
225 0.345774
230 0.768978
235 0.806333
240 0.911457
245 0.836921
250 0.564221
255 1.34344
260 0.874631
265 1.13267
270 1.86444
275 1.47265
280 0.980697
285 1.20769
290 0.502246
295 1.35949
300 0.576116
305 1.43108
310 0.619801
315 0.804204
320 0.618731
325 1.43147
330 1.21546
335 0.583712
340 1.12165
345 0.711349
350 0.408425
355 1.71923
360 1.26363
365 1.3793
370 0.921972
375 1.80167
380 0.893278
385 1.63952
390 0.927648
395 1.08522
400 0.749682
405 1.38319
410 1.42062
415 1.75466
420 1.07977
425 1.37911
430 0.991654
435 0.804115
440 1.19464
445 0.960608
450 1.04577
455 0.944359
460 0.897779
465 1.84983
470 0.777918
475 0.922691
480 1.06022
485 0.76307
490 0.86638
495 1.1431
500 1.47984
505 0.97461
510 0.610935
515 0.898454
520 1.07465
525 1.47685
530 1.25389
535 1.42572
540 1.82269
545 1.19508
550 0.435942
555 1.05574
560 1.00634
565 1.71753
570 1.39523
575 0.585407
580 1.06127
585 1.26825
590 0.950674
595 0.394401
600 6.43821
Ex : 268
200 1.62517
205 0.852907
210 2.02543
215 0.674798
220 0.540643
225 0.518605
230 1.12887
235 0.996047
240 0.437685
245 0.655779
250 0.647342
255 0.662026
260 1.01844
265 1.59661
270 1.87473
275 0.454141
280 0.986576
285 0.579322
290 0.480362
295 1.14833
300 1.13199
305 0.410571
310 0.596947
315 0.528075
320 1.55653
325 1.16007
330 0.743739
335 0.706786
340 0.367177
345 0.965776
350 0.41783
355 1.022
360 1.23772
365 0.941058
370 1.49935
375 0.478916
380 1.45755
385 1.10924
390 1.51328
395 0.942087
400 0.957287
405 1.21669
410 1.32289
415 1.17784
420 0.542122
425 0.356294
430 0.572514
435 1.34056
440 1.74603
445 0.798865
450 1.34986
455 1.05442
460 0.976334
465 1.10021
470 1.21713
475 1.05506
480 0.851089
485 0.851452
490 1.30194
495 1.0969
500 0.906625
505 1.22886
510 0.93487
515 0.940601
520 1.22406
525 1.15088
530 0.50449
535 0.923226
540 0.674159
545 1.14335
550 0.988544
555 0.479531
560 0.627493
565 0.852343
570 0.640744
575 0.682485
580 0.636078
585 2.21596
590 0.973188
595 0.439836
600 0.0500517
Ex : 273
200 0.568157
205 0.333374
210 0.42888
215 0.193432
220 0.926904
225 0.557482
230 0.453803
235 0.610934
240 0.668954
245 0.446933
250 0.430244
255 0.578906
260 0.463344
265 0.887556
270 0.613609
275 0.954095
280 0.473946
285 2.11193
290 0.59364
295 0.514053
300 0.764124
305 0.358724
310 0.326093
315 0.716237
320 0.604463
325 0.692124
330 0.578847
335 0.561793
340 0.804996
345 1.60858
350 0.649114
355 0.555906
360 1.18044
365 0.851269
370 1.23475
375 1.13472
380 1.80103
385 1.1416
390 0.424008
395 0.673163
400 1.12074
405 0.776698
410 1.03224
415 0.680442
420 1.30124
425 0.759978
430 1.60123
435 0.838447
440 1.52362
445 0.749758
450 1.21616
455 0.769988
460 0.663848
465 0.721836
470 1.2737
475 0.580253
480 0.619296
485 0.943058
490 1.10822
495 0.986656
500 1.11501
505 1.46938
510 0.601171
515 0.426601
520 0.308843
525 0.885553
530 0.77886
535 0.551339
540 0.905408
545 1.34819
550 1.17574
555 1.1888
560 0.816217
565 0.328492
570 0.664328
575 0.382584
580 0.464459
585 0.974815
590 0.570515
595 0.506055
600 0.0575871
Ex : 278
200 0.619643
205 0.667927
210 0.578005
215 0.667665
220 0.434886
225 0.380696
230 0.662694
235 0.514944
240 0.268281
245 0.499557
250 0.927758
255 0.665495
260 0.553475
265 0.586432
270 0.492303
275 0.670596
280 0.302065
285 0.295487
290 0.36914
295 0.13229
300 0.22023
305 0.233256
310 0.343159
315 0.202779
320 0.470169
325 0.560134
330 0.578827
335 0.202574
340 0.931979
345 0.480553
350 0.617917
355 1.05098
360 1.01703
365 0.690096
370 0.401509
375 0.613626
380 1.04902
385 1.10192
390 0.884191
395 0.922094
400 0.505663
405 0.954023
410 0.5034
415 0.780092
420 0.736079
425 0.541158
430 0.750581
435 0.538913
440 0.482911
445 0.850487
450 1.28602
455 0.615698
460 0.94903
465 1.17498
470 0.919677
475 0.562435
480 0.72048
485 0.353928
490 0.326847
495 0.664787
500 0.317342
505 0.853538
510 0.729443
515 0.297629
520 0.379123
525 0.442413
530 0.579183
535 0.243628
540 0.782842
545 0.849254
550 0.576768
555 0.514295
560 0.789464
565 0.747801
570 0.344474
575 0.86136
580 0.318381
585 0.796407
590 0.599449
595 0.418222
600 0.047592
Ex : 283
200 0.345081
205 0.277255
210 0.222104
215 0.27969
220 0.616317
225 0.194084
230 0.256767
235 0.318512
240 0.497386
245 0.345224
250 0.505329
255 0.428443
260 0.277833
265 0.5546
270 1.13945
275 0.708749
280 0.789616
285 0.253943
290 0.248158
295 0.899334
300 0.335236
305 0.548644
310 0.423868
315 0.476555
320 0.383691
325 0.338183
330 0.758068
335 0.298112
340 0.464681
345 0.656516
350 0.691745
355 0.355984
360 0.315316
365 0.342216
370 0.626892
375 0.471433
380 0.683662
385 0.737039
390 0.637832
395 0.219627
400 0.579765
405 0.610216
410 0.323679
415 0.466488
420 0.653822
425 0.431254
430 0.62281
435 0.617344
440 0.490135
445 1.00838
450 0.413868
455 0.911541
460 0.517733
465 0.437781
470 0.406533
475 0.797953
480 0.507418
485 0.679012
490 0.655487
495 0.372183
500 0.52336
505 0.25795
510 0.459683
515 0.451299
520 0.457206
525 0.311564
530 0.454713
535 0.205554
540 0.376555
545 0.288433
550 0.483744
555 0.895772
560 0.647191
565 0.531531
570 0.353656
575 0.536545
580 0.236854
585 0.605966
590 0.640997
595 0.476774
600 1.25324
Ex : 288
200 0.241209
205 0.442857
210 0.225354
215 0.17684
220 0.279939
225 0.399828
230 0.393907
235 0.327574
240 0.386107
245 0.190368
250 0.0769824
255 0.481697
260 0.540039
265 0.243521
270 0.201895
275 0.738061
280 0.604234
285 0.38361
290 0.527788
295 0.46243
300 0.412541
305 0.672727
310 0.464473
315 0.499772
320 0.468167
325 0.484818
330 0.42974
335 0.494465
340 0.441598
345 0.593339
350 0.906678
355 0.519015
360 0.498296
365 0.405321
370 0.447129
375 0.594478
380 0.612032
385 0.648685
390 0.527009
395 0.69904
400 0.557408
405 0.424153
410 0.447308
415 1.06527
420 0.406055
425 0.805033
430 0.393273
435 0.1758
440 0.590725
445 0.654944
450 0.477599
455 0.449496
460 1.0188
465 0.450321
470 0.422188
475 0.542252
480 0.604437
485 0.352064
490 0.646585
495 0.37225
500 0.361813
505 0.599234
510 0.239432
515 0.551879
520 0.658348
525 0.336538
530 0.681705
535 0.337675
540 0.204179
545 0.357056
550 0.445676
555 0.606173
560 0.583514
565 0.525446
570 0.593704
575 0.753281
580 0.569703
585 0.40673
590 0.303343
595 0.455044
600 0.494884
Ex : 293
200 0.513896
205 0.286068
210 0.216051
215 0.295032
220 0.218785
225 0.171589
230 0.51448
235 0.50934
240 0.223454
245 0.422628
250 0.387362
255 0.434737
260 0.226337
265 0.295935
270 0.196506
275 0.379337
280 0.296435
285 0.284598
290 0.374128
295 0.243109
300 0.159996
305 0.305887
310 0.170542
315 0.291164
320 0.454867
325 0.270399
330 0.740202
335 0.479075
340 0.372318
345 0.377448
350 0.229375
355 0.31077
360 0.341499
365 0.353111
370 0.727738
375 0.570296
380 0.407316
385 0.308638
390 0.605189
395 0.51197
400 0.540116
405 0.373182
410 0.527493
415 0.502428
420 0.525207
425 0.376201
430 0.448186
435 0.649838
440 0.573991
445 0.650035
450 0.387408
455 0.353509
460 0.463157
465 0.494873
470 0.377517
475 0.276851
480 0.671619
485 0.212128
490 0.284952
495 0.222561
500 0.203126
505 0.42414
510 0.231411
515 0.393023
520 0.413781
525 0.284002
530 0.385857
535 0.206099
540 0.629583
545 0.215942
550 0.422355
555 0.282118
560 0.267229
565 0.280879
570 0.31512
575 0.529748
580 0.57954
585 0.422105
590 0.281197
595 0.360737
600 0.0410505
Ex : 298
200 0.409946
205 0.307988
210 0.173454
215 0.156952
220 0.425101
225 0.232349
230 0.402145
235 0.368128
240 0.215982
245 0.297814
250 0.200809
255 0.173117
260 0.299003
265 0.462821
270 0.343641
275 0.213275
280 0.141733
285 0.127358
290 0.35292
295 0.305901
300 0.144727
305 0.440218
310 0.268628
315 0.257811
320 0.423072
325 0.371794
330 0.315049
335 0.228399
340 0.364632
345 0.28544
350 0.295959
355 0.100296
360 0.494687
365 0.265994
370 0.392206
375 0.433599
380 0.532504
385 0.33213
390 0.590664
395 0.501896
400 0.491418
405 0.3777
410 0.459562
415 0.673201
420 0.470029
425 0.410542
430 0.34185
435 0.439764
440 0.389173
445 0.712565
450 0.481098
455 0.486332
460 0.578255
465 0.385438
470 0.240573
475 0.252764
480 0.419807
485 0.393167
490 0.523596
495 0.559256
500 0.288341
505 0.527948
510 0.303271
515 0.308678
520 0.29556
525 0.225745
530 0.182676
535 0.20011
540 0.537355
545 0.318865
550 0.176998
555 0.138869
560 0.202944
565 0.34546
570 0.451255
575 0.207194
580 0.271182
585 0.219663
590 0.389952
595 0.565838
600 0.515852
Ex : 303
200 0.14125
205 0.121889
210 0.149694
215 0.123588
220 0.090064
225 0.235549
230 0.12535
235 0.289654
240 0.425508
245 0.342208
250 0.124985
255 0.321133
260 0.21142
265 0.086635
270 0.280565
275 0.258081
280 0.0907749
285 0.170757
290 0.134006
295 0.241329
300 0.26344
305 0.252316
310 0.244655
315 0.302292
320 0.357852
325 0.262707
330 0.316722
335 0.381224
340 0.237423
345 0.218761
350 0.40859
355 0.544355
360 0.319543
365 0.325442
370 0.175569
375 0.582411
380 0.599743
385 0.408907
390 0.577277
395 0.337433
400 0.52716
405 0.434746
410 0.527409
415 0.424697
420 0.458343
425 0.335882
430 0.240512
435 0.395517
440 0.536224
445 0.435562
450 0.420445
455 0.427597
460 0.471651
465 0.46079
470 0.312715
475 0.234494
480 0.226739
485 0.237184
490 0.185204
495 0.352181
500 0.368028
505 0.244683
510 0.238479
515 0.250615
520 0.23373
525 0.261377
530 0.347174
535 0.241869
540 0.225694
545 0.276838
550 0.233995
555 0.363964
560 0.241032
565 0.166311
570 0.519657
575 0.383176
580 0.160546
585 0.127652
590 0.348287
595 0.3591
600 0.0408642
Ex : 308
200 0.224413
205 0.230609
210 0.187177
215 0.129478
220 0.130445
225 0.100919
230 0.229438
235 0.136617
240 0.15224
245 0.274648
250 0.17416
255 0.0971182
260 0.250574
265 0.198252
270 0.191405
275 0.220031
280 0.146979
285 0.0703611
290 0.160673
295 0.132286
300 0.30429
305 0.317897
310 0.24942
315 0.300779
320 0.370226
325 0.314149
330 0.254787
335 0.236906
340 0.337575
345 0.401844
350 0.381435
355 0.325087
360 0.320971
365 0.340618
370 0.545207
375 0.602388
380 0.369761
385 0.463891
390 0.429105
395 0.35283
400 0.491532
405 0.469678
410 0.378338
415 0.411263
420 0.403354
425 0.366292
430 0.421528
435 0.444726
440 0.318878
445 0.361198
450 0.388784
455 0.44368
460 0.458713
465 0.248389
470 0.571511
475 0.469834
480 0.349885
485 0.225456
490 0.314768
495 0.434565
500 0.203336
505 0.286374
510 0.212327
515 0.288383
520 0.162802
525 0.266285
530 0.307337
535 0.293706
540 0.168544
545 0.228974
550 0.149797
555 0.200883
560 0.21534
565 0.140523
570 0.300354
575 0.292072
580 0.119981
585 0.155274
590 0.14685
595 0.164055
600 0.237009
Ex : 313
200 0.140887
205 0.186941
210 0.323152
215 0.123239
220 0.0856393
225 0.124854
230 0.1826
235 0.106052
240 0.225419
245 0.190831
250 0.203398
255 0.177443
260 0.0713041
265 0.246881
270 0.164618
275 0.13373
280 0.0654915
285 0.183359
290 0.137611
295 0.182903
300 0.302391
305 0.184343
310 0.143009
315 0.183804
320 0.21394
325 0.264104
330 0.233109
335 0.362617
340 0.165999
345 0.27841
350 0.411255
355 0.298659
360 0.191807
365 0.389212
370 0.540254
375 0.471768
380 0.643507
385 0.631724
390 0.303774
395 0.658757
400 0.699875
405 0.826954
410 0.809342
415 0.752107
420 0.846563
425 0.711643
430 0.860712
435 0.749262
440 0.56245
445 0.639503
450 0.815196
455 0.607379
460 0.781112
465 0.617519
470 0.505773
475 0.496665
480 0.354858
485 0.352219
490 0.307941
495 0.382983
500 0.424106
505 0.365466
510 0.237106
515 0.313938
520 0.18534
525 0.242241
530 0.247778
535 0.174071
540 0.186686
545 0.144745
550 0.139503
555 0.183123
560 0.282302
565 0.161502
570 0.167987
575 0.143243
580 0.10065
585 0.220441
590 0.242965
595 0.132268
600 0.0823582
Ex : 318
200 0.168742
205 0.11635
210 0.326674
215 0.171527
220 0.0902634
225 0.129818
230 0.169332
235 0.144545
240 0.0557409
245 0.190013
250 0.30244
255 0.197976
260 0.0854208
265 0.101052
270 0.280154
275 0.173882
280 0.216959
285 0.208811
290 0.166454
295 0.162766
300 0.260949
305 0.275387
310 0.258777
315 0.447473
320 0.35582
325 0.441042
330 0.516964
335 0.619894
340 0.729175
345 0.969894
350 1.47937
355 1.87051
360 2.73913
365 3.30258
370 3.71122
375 5.15118
380 5.61149
385 5.97448
390 6.64331
395 7.60695
400 7.81152
405 7.78241
410 7.72811
415 7.91678
420 8.07152
425 7.87644
430 7.65257
435 7.2123
440 6.86008
445 6.53011
450 6.13474
455 5.50883
460 5.79731
465 4.86162
470 4.29693
475 3.82995
480 3.51526
485 3.3158
490 2.9549
495 2.54355
500 2.12176
505 1.83424
510 1.36705
515 1.2182
520 1.09183
525 1.12676
530 0.664765
535 0.878265
540 0.485814
545 0.460702
550 0.420725
555 0.443457
560 0.292026
565 0.407091
570 0.348966
575 0.278605
580 0.182517
585 0.185013
590 0.069008
595 0.10026
600 0.493898
Ex : 323
200 0.0507554
205 0.189545
210 0.172314
215 0.3047
220 0.130656
225 0.132132
230 0.121907
235 0.142192
240 0.199288
245 0.182853
250 0.108124
255 0.184457
260 0.261797
265 0.153522
270 0.152323
275 0.16031
280 0.0661399
285 0.0983756
290 0.145057
295 0.0839812
300 0.0793316
305 0.0648498
310 0.147084
315 3.46332
320 19.2931
325 8.66576
330 2.06356
335 2.53029
340 3.85436
345 5.34012
350 8.20151
355 10.8485
360 13.4471
365 15.4497
370 18.3384
375 22.4345
380 24.3361
385 27.3476
390 30.0737
395 31.8866
400 33.2281
405 34.0641
410 35.0627
415 35.0045
420 34.2368
425 32.5217
430 31.6129
435 30.9963
440 30.0959
445 28.8713
450 27.2011
455 25.2592
460 23.1974
465 22.2471
470 19.8133
475 19.0112
480 16.47
485 14.9595
490 13.5582
495 11.749
500 10.2076
505 8.40348
510 8.13161
515 6.25932
520 5.41098
525 4.78317
530 3.97683
535 3.20895
540 2.75137
545 2.55305
550 2.19867
555 1.79896
560 1.29211
565 0.903171
570 0.782593
575 0.653502
580 0.442085
585 0.457755
590 0.306587
595 0.28229
600 2.26054
Ex : 328
200 0.071596
205 0.176191
210 0.105171
215 0.127667
220 0.128504
225 0.107234
230 0.132243
235 0.110977
240 0.0782946
245 0.0731163
250 0.211425
255 0.173953
260 0.111092
265 0.135047
270 0.186799
275 0.112116
280 0.210986
285 0.166645
290 0.0952306
295 0.159266
300 0.15591
305 0.196848
310 0.161144
315 1.04764
320 48.2823
325 117.212
330 36.9651
335 7.54323
340 5.58621
345 6.38951
350 8.62218
355 11.97
360 17.7643
365 19.4157
370 21.8586
375 25.2749
380 27.6345
385 31.9424
390 34.5239
395 36.738
400 37.5928
405 38.5386
410 40.0249
415 38.6478
420 37.7667
425 37.5203
430 35.6025
435 34.848
440 31.8112
445 31.1775
450 30.2257
455 27.6397
460 25.3101
465 23.6909
470 21.6665
475 20.5042
480 17.8832
485 16.0742
490 14.7321
495 12.8303
500 11.6506
505 9.83883
510 8.32201
515 7.41125
520 6.47851
525 5.4268
530 4.33161
535 3.98573
540 3.42746
545 2.97211
550 2.36737
555 1.86316
560 1.69484
565 1.39953
570 0.997879
575 0.722228
580 0.719912
585 0.478478
590 0.410032
595 0.355836
600 1.64674
Ex : 333
200 0.0644166
205 0.0383527
210 0.128229
215 0.162033
220 0.107505
225 0.103104
230 0.109582
235 0.0531972
240 0.209699
245 0.129787
250 0.126929
255 0.103838
260 0.0856523
265 0.0653915
270 0.120899
275 0.189233
280 0.172487
285 0.0698071
290 0.0803888
295 0.233848
300 0.0702571
305 0.0869295
310 0.162055
315 0.181389
320 6.75903
325 143.35
330 250.38
335 65.2661
340 10.7724
345 5.31439
350 5.39204
355 6.29759
360 9.40182
365 14.353
370 14.8039
375 14.7327
380 15.85
385 18.2859
390 20.1908
395 21.9697
400 23.0612
405 22.6547
410 23.2575
415 23.1857
420 23.0551
425 21.599
430 20.6727
435 19.6072
440 18.7121
445 18.0718
450 16.7108
455 15.4929
460 14.1597
465 12.5253
470 11.9506
475 11.0656
480 9.72971
485 9.11331
490 8.00384
495 6.74161
500 6.03459
505 5.24152
510 4.35424
515 4.13316
520 3.53485
525 2.93493
530 2.7085
535 1.87797
540 1.6758
545 1.78528
550 1.48104
555 1.17528
560 0.945548
565 0.740529
570 0.712656
575 0.453025
580 0.457024
585 0.407455
590 0.385989
595 0.425158
600 0.14129
Ex : 338
200 0.157252
205 0.0822777
210 0.0958788
215 0.0801502
220 0.0943659
225 0.105348
230 0.0921505
235 0.0815948
240 0.156462
245 0.139774
250 0.178818
255 0.139507
260 0.185611
265 0.1436
270 0.0452899
275 0.0997635
280 0.116995
285 0.0720916
290 0.0867202
295 0.118118
300 0.170975
305 0.207585
310 0.207736
315 0.138054
320 0.242552
325 13.2994
330 221.647
335 329.649
340 82.334
345 12.0158
350 4.72578
355 3.66722
360 3.62565
365 5.3394
370 9.42523
375 9.67768
380 8.92853
385 9.99804
390 11.4571
395 12.8568
400 12.6874
405 12.7285
410 13.9276
415 13.7003
420 14.0507
425 12.5917
430 11.7304
435 11.2939
440 11.1047
445 10.2667
450 9.16335
455 8.05466
460 7.96994
465 7.37076
470 6.67311
475 5.62511
480 5.32269
485 4.68302
490 4.13919
495 4.03421
500 3.32257
505 3.12415
510 2.6388
515 1.99464
520 1.95199
525 1.62924
530 1.43146
535 1.42464
540 1.32932
545 0.957224
550 0.860373
555 0.646174
560 0.663706
565 0.583238
570 0.512977
575 0.363164
580 0.350264
585 0.430578
590 0.407334
595 0.235502
600 0.56249
Ex : 343
200 0.175391
205 0.146743
210 0.0891358
215 0.0549097
220 0.141853
225 0.110858
230 0.0890494
235 0.0723508
240 0.0431153
245 0.0673311
250 0.101141
255 0.121288
260 0.0973982
265 0.0836717
270 0.057141
275 0.132798
280 0.0780857
285 0.130782
290 0.144195
295 0.0816107
300 0.0622457
305 0.129442
310 0.119301
315 0.284793
320 0.188132
325 0.311473
330 15.3919
335 252.276
340 369.187
345 90.7514
350 12.3084
355 3.74757
360 2.65788
365 2.07587
370 2.98735
375 6.98272
380 8.68472
385 9.14301
390 9.32242
395 10.0099
400 9.37531
405 10.4945
410 11.9219
415 11.9269
420 10.8471
425 9.65612
430 9.94524
435 9.10428
440 8.42135
445 8.13724
450 7.56802
455 6.61878
460 6.24726
465 5.72227
470 5.08233
475 4.95527
480 4.4519
485 3.76279
490 3.29202
495 2.80484
500 2.65262
505 2.27246
510 2.17363
515 1.87275
520 1.8373
525 1.49243
530 1.20939
535 1.05088
540 1.03669
545 0.933148
550 0.679732
555 0.847369
560 0.526141
565 0.485113
570 0.348668
575 0.369467
580 0.295776
585 0.315626
590 0.358523
595 0.201056
600 0.0228794
Ex : 348
200 0.094646
205 0.142372
210 0.0547434
215 0.0865545
220 0.0396951
225 0.155072
230 0.0928332
235 0.148078
240 0.141712
245 0.0741035
250 0.0547641
255 0.106378
260 0.100594
265 0.0419293
270 0.057201
275 0.10131
280 0.0746886
285 0.0478773
290 0.0778961
295 0.0725671
300 0.251712
305 0.155226
310 0.0727135
315 0.0536907
320 0.0974251
325 0.145866
330 0.274449
335 16.8267
340 257.797
345 386.877
350 99.3387
355 12.9592
360 3.37155
365 2.25927
370 1.50916
375 2.27455
380 6.30841
385 11.7004
390 12.3619
395 11.9075
400 10.9526
405 11.4561
410 12.6739
415 13.4489
420 12.8811
425 11.2714
430 10.7188
435 10.4949
440 9.97125
445 9.32379
450 8.31011
455 7.0971
460 6.6132
465 6.00031
470 5.74514
475 5.04314
480 4.53605
485 4.07542
490 3.50387
495 3.37737
500 2.93345
505 2.62014
510 2.3327
515 1.88737
520 1.82255
525 1.64982
530 1.3013
535 1.13379
540 1.12917
545 0.856246
550 0.942088
555 0.844139
560 0.602275
565 0.598088
570 0.471419
575 0.375722
580 0.287581
585 0.306836
590 0.284223
595 0.296115
600 0.0336968
Ex : 353
200 0.0627621
205 0.07576
210 0.093719
215 0.06372
220 0.0551935
225 0.0657502
230 0.0630751
235 0.0995385
240 0.154564
245 0.0721319
250 0.0636569
255 0.171198
260 0.0850147
265 0.0829003
270 0.0893602
275 0.149846
280 0.14176
285 0.0606969
290 0.123351
295 0.0493195
300 0.0910795
305 0.16816
310 0.145027
315 0.147277
320 0.127263
325 0.134037
330 0.164835
335 0.285673
340 16.6916
345 271.726
350 394.121
355 98.7698
360 12.8092
365 3.11093
370 2.09273
375 1.65535
380 2.67936
385 8.07548
390 14.9382
395 15.6598
400 13.3809
405 12.0051
410 13.0404
415 15.0212
420 14.2012
425 12.4013
430 11.4037
435 11.0594
440 11.134
445 10.3219
450 8.79171
455 7.85674
460 7.02474
465 6.49357
470 5.91758
475 5.24473
480 4.91366
485 4.65804
490 3.89728
495 3.50296
500 3.12412
505 2.6645
510 2.61319
515 2.21014
520 1.91405
525 1.60342
530 1.51201
535 1.2206
540 1.01735
545 0.890725
550 0.874702
555 0.710655
560 0.774742
565 0.553941
570 0.457489
575 0.485993
580 0.356136
585 0.246361
590 0.214906
595 0.172987
600 0.0196852
Ex : 358
200 0.0423718
205 0.0504695
210 0.0873568
215 0.13535
220 0.0732594
225 0.0757713
230 0.057837
235 0.121672
240 0.183693
245 0.156516
250 0.100152
255 0.0625958
260 0.0822271
265 0.0544318
270 0.0616241
275 0.0626171
280 0.067213
285 0.106456
290 0.118893
295 0.0643773
300 0.104064
305 0.0549529
310 0.139762
315 0.147261
320 0.144314
325 0.105269
330 0.167352
335 0.206634
340 0.379782
345 15.836
350 258.736
355 395.677
360 99.813
365 12.8338
370 3.02264
375 2.20879
380 3.03013
385 5.3996
390 10.7329
395 15.1441
400 14.189
405 12.5761
410 13.307
415 14.2587
420 13.3722
425 11.7804
430 10.7148
435 10.1623
440 10.2163
445 9.70016
450 8.65811
455 7.75713
460 6.72568
465 6.53433
470 6.10477
475 5.51245
480 5.23355
485 4.58601
490 4.02709
495 3.46563
500 3.2714
505 2.91384
510 2.5326
515 2.25354
520 2.00547
525 1.62124
530 1.48367
535 1.37478
540 1.13967
545 0.947776
550 0.893547
555 0.764002
560 0.776361
565 0.541428
570 0.412425
575 0.372061
580 0.354725
585 0.315154
590 0.242973
595 0.247395
600 0.391119
Ex : 363
200 0.047681
205 0.0746639
210 0.068283
215 0.078675
220 0.0464263
225 0.0510995
230 0.123606
235 0.0575476
240 0.0624401
245 0.0680624
250 0.0829749
255 0.0704109
260 0.118933
265 0.0591121
270 0.152531
275 0.169602
280 0.0858259
285 0.0654889
290 0.102051
295 0.122796
300 0.0683601
305 0.0728352
310 0.149608
315 0.184223
320 0.141881
325 0.0773469
330 0.12629
335 0.129954
340 0.271014
345 0.28965
350 14.2156
355 254.905
360 401.892
365 104.674
370 13.4004
375 3.29145
380 4.11666
385 7.33338
390 9.91813
395 12.4639
400 14.928
405 16.32
410 16.2251
415 16.4611
420 14.6423
425 12.6169
430 11.5509
435 11.5963
440 10.7881
445 10.4092
450 9.22926
455 8.61053
460 7.73127
465 6.9974
470 6.23245
475 5.63096
480 5.29458
485 4.91542
490 4.33871
495 3.89223
500 3.4649
505 3.10391
510 2.8799
515 2.62834
520 2.2361
525 1.88146
530 1.76233
535 1.57241
540 1.13456
545 1.03358
550 0.979242
555 0.924403
560 0.685944
565 0.681542
570 0.387164
575 0.479703
580 0.334976
585 0.320331
590 0.292831
595 0.344316
600 0.109725
Ex : 368
200 0.070304
205 0.0562706
210 0.0835673
215 0.113468
220 0.0816855
225 0.107238
230 0.0973139
235 0.0793729
240 0.105859
245 0.110524
250 0.0637365
255 0.0802934
260 0.0521069
265 0.120253
270 0.0744048
275 0.0986741
280 0.0699733
285 0.0586367
290 0.0955193
295 0.0900966
300 0.0585608
305 0.07962
310 0.109752
315 0.0788982
320 0.0714784
325 0.15296
330 0.107554
335 0.119991
340 0.13972
345 0.286172
350 0.347189
355 12.3285
360 248.051
365 412.584
370 111.497
375 14.4923
380 5.23779
385 8.29324
390 13.2506
395 14.9844
400 14.1875
405 17.1062
410 20.9177
415 20.9777
420 19.0626
425 16.0773
430 14.0666
435 14.0749
440 13.5366
445 12.5818
450 11.8352
455 9.66381
460 8.90602
465 7.93257
470 7.61247
475 6.94572
480 6.15115
485 5.57239
490 4.79696
495 4.22154
500 3.72115
505 3.48858
510 2.83447
515 2.56835
520 2.21086
525 1.93144
530 1.74479
535 1.49446
540 1.19253
545 1.22911
550 0.99263
555 0.851444
560 0.766003
565 0.633684
570 0.582278
575 0.480853
580 0.319019
585 0.275592
590 0.185933
595 0.125759
600 0.179186
Ex : 373
200 0.0763106
205 0.0361681
210 0.0590446
215 0.0809077
220 0.104091
225 0.0685711
230 0.0638861
235 0.0711296
240 0.0809975
245 0.097393
250 0.0736549
255 0.0538731
260 0.0647579
265 0.0927231
270 0.105231
275 0.0530399
280 0.0545044
285 0.0566307
290 0.0616414
295 0.0960979
300 0.0697002
305 0.0549406
310 0.0532519
315 0.0517147
320 0.0429879
325 0.0786182
330 0.0815554
335 0.110257
340 0.111395
345 0.178394
350 0.268941
355 0.357301
360 14.9152
365 255.548
370 411.784
375 110.56
380 15.4384
385 7.86416
390 12.9802
395 15.82
400 14.5547
405 13.6926
410 17.7674
415 22.8848
420 21.5721
425 16.9728
430 14.502
435 13.1058
440 13.1151
445 13.1237
450 11.2989
455 9.52447
460 8.76656
465 7.7352
470 7.29114
475 6.81292
480 6.29572
485 5.23152
490 4.83654
495 4.38807
500 3.85666
505 3.43226
510 2.98625
515 2.58019
520 2.18618
525 2.1218
530 1.76862
535 1.6011
540 1.46343
545 1.33329
550 1.13285
555 0.849013
560 0.728539
565 0.764351
570 0.516894
575 0.441257
580 0.365209
585 0.33145
590 0.199073
595 0.210479
600 0.0316579
Ex : 378
200 0.0864502
205 0.0650283
210 0.108224
215 0.0518484
220 0.0763007
225 0.033864
230 0.0469638
235 0.119162
240 0.0744905
245 0.0562394
250 0.0709647
255 0.0251484
260 0.068685
265 0.0478144
270 0.0820342
275 0.0351128
280 0.0731483
285 0.050658
290 0.0425469
295 0.0443125
300 0.0410922
305 0.068283
310 0.0552753
315 0.100068
320 0.101421
325 0.0841289
330 0.12296
335 0.231386
340 0.122122
345 0.141263
350 0.188431
355 0.217073
360 0.379289
365 14.3511
370 256.098
375 421.796
380 113.847
385 18.0208
390 10.8397
395 12.1886
400 11.2145
405 10.1575
410 11.8522
415 15.0021
420 17.1589
425 14.5287
430 11.6097
435 10.7183
440 10.2465
445 9.95646
450 8.86618
455 7.92554
460 7.25529
465 6.77645
470 5.99291
475 5.90943
480 5.48223
485 4.72849
490 4.22859
495 3.99125
500 3.5826
505 3.30818
510 2.80793
515 2.55095
520 2.19442
525 1.81287
530 1.58513
535 1.37815
540 1.29277
545 1.1527
550 1.00196
555 0.835084
560 0.725636
565 0.574686
570 0.559329
575 0.460169
580 0.370883
585 0.308119
590 0.203973
595 0.176677
600 0.0201052
Ex : 383
200 0.0411754
205 0.0302234
210 0.0793756
215 0.0798621
220 0.0533857
225 0.0646271
230 0.0656428
235 0.0549526
240 0.0584914
245 0.069479
250 0.0603105
255 0.0608234
260 0.0810634
265 0.117223
270 0.118772
275 0.143192
280 0.141359
285 0.0646144
290 0.0394296
295 0.0588609
300 0.094208
305 0.0584714
310 0.0234535
315 0.0531563
320 0.0540153
325 0.077744
330 0.0692238
335 0.0720343
340 0.0753971
345 0.102403
350 0.135292
355 0.0781075
360 0.273394
365 0.425537
370 12.9481
375 257.413
380 440.256
385 124.359
390 23.4048
395 11.7845
400 10.3539
405 10.8118
410 12.0183
415 12.9144
420 12.8539
425 13.4603
430 13.1819
435 11.4159
440 10.7559
445 9.24066
450 8.08678
455 7.57021
460 6.90515
465 6.36243
470 5.93258
475 5.9605
480 5.33554
485 4.72352
490 4.26065
495 3.90406
500 3.49153
505 3.24661
510 2.80835
515 2.5211
520 2.37877
525 2.05625
530 1.76441
535 1.40311
540 1.47287
545 1.19504
550 1.03572
555 1.0235
560 0.798493
565 0.609405
570 0.569279
575 0.431542
580 0.293589
585 0.190985
590 0.175494
595 0.211661
600 0.222179
Ex : 388
200 0.0640817
205 0.0891465
210 0.0270784
215 0.044169
220 0.0263157
225 0.0316181
230 0.0681757
235 0.112483
240 0.0565063
245 0.0572027
250 0.0962872
255 0.0640666
260 0.120126
265 0.0494268
270 0.0375489
275 0.0528839
280 0.0648608
285 0.081948
290 0.0710026
295 0.0892465
300 0.0854973
305 0.0821513
310 0.0487156
315 0.0613261
320 0.054474
325 0.111384
330 0.0854559
335 0.0636006
340 0.0882794
345 0.0451254
350 0.110653
355 0.103075
360 0.0984225
365 0.251802
370 0.475592
375 14.8897
380 266.332
385 447.04
390 128.731
395 26.5341
400 13.4624
405 12.8576
410 14.8542
415 16.419
420 15.2742
425 13.0509
430 14.1326
435 15.065
440 13.415
445 11.955
450 10.601
455 8.69018
460 7.783
465 7.41483
470 6.74601
475 6.34406
480 5.56949
485 5.08396
490 4.46996
495 3.94414
500 3.64768
505 3.40891
510 2.9406
515 2.71626
520 2.38064
525 2.17731
530 1.77026
535 1.55512
540 1.38279
545 1.22293
550 1.00149
555 0.861482
560 0.803756
565 0.69406
570 0.545809
575 0.433033
580 0.368537
585 0.257148
590 0.196836
595 0.115883
600 0.0232575
Ex : 393
200 0.087183
205 0.0457071
210 0.0651087
215 0.0613737
220 0.0463692
225 0.0392584
230 0.0266651
235 0.0295761
240 0.0358212
245 0.026009
250 0.0197474
255 0.0578066
260 0.0479258
265 0.0469766
270 0.0763771
275 0.0429327
280 0.0504692
285 0.0399569
290 0.0662317
295 0.0510059
300 0.0840868
305 0.0722824
310 0.0819677
315 0.0814543
320 0.0873136
325 0.0688174
330 0.0387021
335 0.073137
340 0.0723607
345 0.118858
350 0.115035
355 0.168909
360 0.1017
365 0.161249
370 0.164625
375 0.500793
380 13.9075
385 265.46
390 459.114
395 135.753
400 27.3838
405 13.2239
410 13.6997
415 16.9828
420 17.0225
425 13.8371
430 11.7776
435 12.5168
440 14.8342
445 13.3888
450 11.1033
455 9.06205
460 7.67073
465 6.62637
470 6.59008
475 6.15243
480 5.51647
485 4.91334
490 4.48411
495 4.09843
500 3.53084
505 3.21201
510 2.86773
515 2.62998
520 2.31262
525 2.14756
530 1.98073
535 1.51383
540 1.37647
545 1.1552
550 1.16194
555 0.937754
560 0.736177
565 0.617424
570 0.607595
575 0.400498
580 0.362098
585 0.275254
590 0.208671
595 0.190756
600 0.0691825
Ex : 398
200 0.0732101
205 0.0455949
210 0.0541249
215 0.0870653
220 0.0741096
225 0.0625887
230 0.112669
235 0.033594
240 0.0546801
245 0.0630767
250 0.0333107
255 0.0731978
260 0.0352787
265 0.0607206
270 0.0298905
275 0.0562239
280 0.0426995
285 0.0402753
290 0.0559646
295 0.0351611
300 0.147155
305 0.108073
310 0.0456812
315 0.0809736
320 0.0543751
325 0.0431401
330 0.0781281
335 0.0523605
340 0.0795682
345 0.0589978
350 0.0552858
355 0.0847171
360 0.126846
365 0.0996855
370 0.0992055
375 0.230961
380 0.553599
385 14.5657
390 272.753
395 470.723
400 131.539
405 21.3949
410 9.41711
415 10.2138
420 10.9421
425 8.90451
430 7.18104
435 7.18357
440 8.03374
445 9.94661
450 9.27088
455 7.14111
460 6.18931
465 5.2281
470 5.04261
475 4.849
480 4.49113
485 3.91324
490 3.63924
495 3.39625
500 3.12557
505 2.84199
510 2.73506
515 2.50751
520 2.04591
525 1.93243
530 1.60177
535 1.52587
540 1.25562
545 1.07545
550 1.14217
555 0.871677
560 0.768324
565 0.683443
570 0.631787
575 0.4695
580 0.304735
585 0.221194
590 0.263214
595 0.133198
600 0.0543434
Ex : 403
200 0.0347324
205 0.104698
210 0.0740964
215 0.0631205
220 0.105423
225 0.0856415
230 0.0281213
235 0.0986731
240 0.0229303
245 0.11697
250 0.056214
255 0.0510758
260 0.0827944
265 0.0695255
270 0.037168
275 0.0652514
280 0.0600878
285 0.0302645
290 0.0610414
295 0.0714979
300 0.0730783
305 0.0799027
310 0.0496388
315 0.0371611
320 0.0566138
325 0.073048
330 0.108393
335 0.125721
340 0.0813937
345 0.0539148
350 0.0704025
355 0.0800238
360 0.0892538
365 0.103777
370 0.0981072
375 0.122973
380 0.27563
385 0.655311
390 16.051
395 280.467
400 463.399
405 127.448
410 17.8749
415 5.85935
420 4.62418
425 4.09917
430 3.90597
435 3.20542
440 3.51393
445 4.18221
450 6.23096
455 6.63122
460 4.9332
465 4.09766
470 3.89486
475 3.60842
480 3.54588
485 3.24741
490 3.01067
495 2.7736
500 2.80889
505 2.48619
510 2.3248
515 2.11008
520 2.12015
525 1.82453
530 1.55107
535 1.42466
540 1.25543
545 1.14351
550 1.02707
555 0.9184
560 0.725418
565 0.604572
570 0.549145
575 0.418415
580 0.280887
585 0.233334
590 0.200277
595 0.1762
600 0.306316
Ex : 408
200 0.049776
205 0.0482073
210 0.128873
215 0.061319
220 0.0257005
225 0.0619613
230 0.0464769
235 0.0303961
240 0.0635295
245 0.0619583
250 0.0358914
255 0.0866836
260 0.0858101
265 0.053146
270 0.0418518
275 0.0750916
280 0.0651546
285 0.0485422
290 0.0650046
295 0.0587808
300 0.080906
305 0.0720458
310 0.0409968
315 0.0540671
320 0.023292
325 0.0330744
330 0.0722994
335 0.0307684
340 0.0659558
345 0.113737
350 0.0599831
355 0.129328
360 0.0874684
365 0.0722285
370 0.0721074
375 0.118376
380 0.162518
385 0.254
390 0.692957
395 14.7026
400 285.143
405 473.174
410 125.926
415 17.3941
420 4.5268
425 3.26086
430 3.05547
435 2.94043
440 2.92348
445 2.92138
450 3.28472
455 4.90862
460 5.97826
465 4.76483
470 4.11749
475 3.48168
480 3.02529
485 2.83316
490 2.58116
495 2.75693
500 2.38341
505 2.38252
510 2.15163
515 1.99241
520 1.73395
525 1.69286
530 1.60241
535 1.37973
540 1.25291
545 1.01581
550 0.864619
555 0.791431
560 0.777471
565 0.620747
570 0.502501
575 0.435185
580 0.281025
585 0.203313
590 0.165956
595 0.139397
600 0.167092
Ex : 413
200 0.0505226
205 0.0524437
210 0.0661878
215 0.0946843
220 0.0348425
225 0.100711
230 0.0568867
235 0.0530674
240 0.0829086
245 0.0526953
250 0.0627096
255 0.060796
260 0.0666337
265 0.0615409
270 0.0243282
275 0.0362128
280 0.0397536
285 0.0701108
290 0.0841061
295 0.0459534
300 0.0355773
305 0.0751834
310 0.0567389
315 0.0771972
320 0.0756093
325 0.0820868
330 0.0681404
335 0.100897
340 0.105215
345 0.0829599
350 0.0744269
355 0.107706
360 0.0874615
365 0.0865978
370 0.0887191
375 0.114756
380 0.0917644
385 0.171319
390 0.261535
395 0.467586
400 16.666
405 299.073
410 485.94
415 126.028
420 16.754
425 3.96054
430 2.47761
435 2.77736
440 2.75452
445 2.52126
450 2.43237
455 2.80835
460 3.74378
465 5.66888
470 4.7233
475 3.65355
480 3.13643
485 2.87993
490 2.74368
495 2.53734
500 2.47292
505 2.28491
510 1.97364
515 1.99926
520 1.83908
525 1.5127
530 1.31084
535 1.3585
540 1.20453
545 1.02398
550 0.844724
555 0.898042
560 0.62664
565 0.592142
570 0.475778
575 0.393332
580 0.254454
585 0.223396
590 0.193272
595 0.170488
600 0.0521131
Ex : 418
200 0.0727529
205 0.0444534
210 0.0475824
215 0.0380832
220 0.0406209
225 0.0701306
230 0.0428938
235 0.0583354
240 0.0816855
245 0.0408131
250 0.0358917
255 0.0361521
260 0.108884
265 0.0807064
270 0.0464586
275 0.033711
280 0.0882232
285 0.0461511
290 0.0737564
295 0.0547394
300 0.0769797
305 0.0364385
310 0.0272215
315 0.0669827
320 0.0606233
325 0.033562
330 0.0974716
335 0.0933328
340 0.0460887
345 0.0806633
350 0.0379092
355 0.0904444
360 0.0778059
365 0.0426108
370 0.0747536
375 0.0969307
380 0.115867
385 0.0844093
390 0.18188
395 0.319408
400 0.47627
405 15.9305
410 301.435
415 502.797
420 134.404
425 17.1281
430 3.40526
435 2.07377
440 2.12725
445 2.25583
450 1.85758
455 1.9634
460 1.8317
465 2.69547
470 4.62323
475 4.5604
480 3.40512
485 2.97193
490 2.47502
495 2.10233
500 2.20992
505 1.97767
510 1.77195
515 1.61387
520 1.60913
525 1.54822
530 1.39795
535 1.24369
540 1.04821
545 1.12906
550 0.875812
555 0.802622
560 0.640001
565 0.63712
570 0.477063
575 0.366681
580 0.265348
585 0.229412
590 0.177587
595 0.167607
600 0.0337453
Ex : 423
200 0.0464629
205 0.13279
210 0.0686476
215 0.0643942
220 0.0482124
225 0.0252569
230 0.0464786
235 0.0522421
240 0.0678088
245 0.0549871
250 0.0723775
255 0.0358454
260 0.0276387
265 0.0434461
270 0.091386
275 0.0440588
280 0.0400083
285 0.0815443
290 0.0431183
295 0.0605674
300 0.0681104
305 0.0348077
310 0.0375914
315 0.0736153
320 0.0995826
325 0.0649616
330 0.0650664
335 0.0514289
340 0.0446562
345 0.0585463
350 0.0973794
355 0.0488586
360 0.0521617
365 0.125366
370 0.099643
375 0.108487
380 0.074649
385 0.0856167
390 0.139192
395 0.206882
400 0.263332
405 0.463652
410 16.6462
415 324.233
420 508.787
425 128.571
430 16.1051
435 2.97985
440 1.56132
445 1.80518
450 1.70133
455 1.37794
460 1.433
465 1.53798
470 1.99645
475 3.7203
480 4.44609
485 3.15721
490 2.52281
495 2.29664
500 2.00587
505 1.7149
510 1.54728
515 1.50365
520 1.45457
525 1.32292
530 1.1518
535 1.16167
540 1.04758
545 0.902193
550 0.811089
555 0.825582
560 0.592269
565 0.527339
570 0.457585
575 0.3396
580 0.284338
585 0.24965
590 0.200374
595 0.155909
600 0.0177419
Ex : 428
200 0.0681136
205 0.0745262
210 0.0407422
215 0.0587074
220 0.0704034
225 0.0651792
230 0.050551
235 0.0479662
240 0.0536431
245 0.101158
250 0.0479075
255 0.0373295
260 0.0539251
265 0.0416467
270 0.0489263
275 0.0603386
280 0.0922963
285 0.0483085
290 0.0534251
295 0.0615114
300 0.054958
305 0.0303241
310 0.0581382
315 0.0463493
320 0.0715062
325 0.0518768
330 0.06421
335 0.0375433
340 0.0481068
345 0.0852814
350 0.03233
355 0.0374923
360 0.0738503
365 0.106705
370 0.081913
375 0.0912483
380 0.0949922
385 0.118239
390 0.15059
395 0.15902
400 0.110306
405 0.340406
410 0.542353
415 18.9372
420 330.269
425 526.172
430 137.128
435 17.007
440 2.95835
445 1.31936
450 1.53931
455 1.67061
460 1.40102
465 1.17343
470 1.26175
475 1.53437
480 2.972
485 4.56138
490 3.28476
495 2.55691
500 2.08941
505 1.73693
510 1.48041
515 1.3541
520 1.32535
525 1.14103
530 1.09398
535 1.0078
540 0.997371
545 0.930785
550 0.826332
555 0.684647
560 0.577579
565 0.517077
570 0.461687
575 0.29997
580 0.275312
585 0.209632
590 0.183832
595 0.12684
600 0.147364
Ex : 433
200 0.0462704
205 0.0623015
210 0.0668233
215 0.0359152
220 0.031231
225 0.0188741
230 0.0452721
235 0.0712757
240 0.0765696
245 0.0565083
250 0.0668128
255 0.102028
260 0.0380055
265 0.0840284
270 0.0753911
275 0.143117
280 0.0613172
285 0.0503757
290 0.0952942
295 0.0390526
300 0.0646611
305 0.059987
310 0.0823863
315 0.0946477
320 0.0690378
325 0.0804526
330 0.0504222
335 0.0884274
340 0.0555825
345 0.0804856
350 0.07783
355 0.0502675
360 0.0615818
365 0.0776596
370 0.0486197
375 0.0934237
380 0.0296556
385 0.0971434
390 0.0776945
395 0.156436
400 0.144889
405 0.207888
410 0.287287
415 0.476399
420 20.8769
425 357.053
430 544.624
435 136.54
440 16.883
445 3.00452
450 1.30805
455 1.40402
460 1.4958
465 1.36379
470 1.18215
475 1.43147
480 1.33161
485 2.31951
490 4.10286
495 3.41288
500 2.52824
505 2.16914
510 1.80587
515 1.53759
520 1.34896
525 1.18951
530 1.28047
535 0.999004
540 0.802502
545 0.804501
550 0.651959
555 0.585377
560 0.565148
565 0.537591
570 0.383997
575 0.376546
580 0.27189
585 0.24366
590 0.170553
595 0.141931
600 0.0280866
Ex : 438
200 0.0703569
205 0.0471222
210 0.0601134
215 0.0518407
220 0.0953914
225 0.100516
230 0.0468265
235 0.0265159
240 0.0429626
245 0.0646742
250 0.0464902
255 0.0439527
260 0.0507875
265 0.0785132
270 0.0650332
275 0.0468374
280 0.045708
285 0.0380734
290 0.0432571
295 0.0462744
300 0.0365494
305 0.0500531
310 0.0326446
315 0.0965653
320 0.0602968
325 0.0634941
330 0.0363571
335 0.0621198
340 0.112593
345 0.081545
350 0.0581614
355 0.0507905
360 0.106729
365 0.0630023
370 0.0977412
375 0.0700849
380 0.0846926
385 0.0972881
390 0.0848033
395 0.0854858
400 0.129236
405 0.130888
410 0.165646
415 0.280531
420 0.605208
425 21.0542
430 363.063
435 586.302
440 147.753
445 18.0892
450 3.18672
455 1.41984
460 1.60563
465 1.52609
470 1.24086
475 1.11285
480 1.11331
485 1.24514
490 1.67758
495 3.40138
500 3.75494
505 2.26277
510 1.90085
515 1.61713
520 1.25436
525 1.11484
530 1.07803
535 0.980754
540 0.978456
545 0.903372
550 0.777143
555 0.662808
560 0.492582
565 0.436296
570 0.389578
575 0.370814
580 0.30341
585 0.246855
590 0.22906
595 0.164915
600 0.216686
Ex : 443
200 0.0766727
205 0.042427
210 0.077654
215 0.0719998
220 0.0221774
225 0.083585
230 0.0594407
235 0.0366144
240 0.0569801
245 0.0729975
250 0.0665966
255 0.0531961
260 0.0572164
265 0.0673686
270 0.0881462
275 0.0766722
280 0.0683898
285 0.0717837
290 0.0568197
295 0.0374065
300 0.0526107
305 0.0815491
310 0.0625759
315 0.0359515
320 0.0979784
325 0.0626093
330 0.0907883
335 0.0547731
340 0.0504685
345 0.0347124
350 0.0861143
355 0.0996352
360 0.0792454
365 0.0612144
370 0.0732416
375 0.0842461
380 0.0960493
385 0.0943375
390 0.0930722
395 0.112434
400 0.0947276
405 0.0721694
410 0.0907508
415 0.132813
420 0.305751
425 0.534795
430 23.045
435 389.105
440 599.695
445 151.285
450 18.6296
455 3.40559
460 1.33788
465 1.38302
470 1.60087
475 1.30239
480 1.04278
485 1.05849
490 1.12564
495 1.31349
500 2.65547
505 3.71117
510 2.37247
515 1.78831
520 1.69518
525 1.37035
530 1.17429
535 0.977803
540 0.925462
545 0.793812
550 0.842306
555 0.690491
560 0.663681
565 0.620186
570 0.48379
575 0.393663
580 0.33909
585 0.232539
590 0.196552
595 0.183991
600 0.201735
Ex : 448
200 0.0370604
205 0.0309688
210 0.0492077
215 0.0486864
220 0.0697322
225 0.0419352
230 0.0651967
235 0.0359106
240 0.0442261
245 0.0540243
250 0.0518181
255 0.0900192
260 0.0374865
265 0.0721619
270 0.079205
275 0.0834322
280 0.0382168
285 0.09309
290 0.0739291
295 0.0714906
300 0.0620424
305 0.0806732
310 0.0592664
315 0.0777542
320 0.0655169
325 0.0750702
330 0.050334
335 0.115388
340 0.056929
345 0.0787378
350 0.097303
355 0.0628625
360 0.0600517
365 0.0546407
370 0.0564217
375 0.116034
380 0.06433
385 0.0947078
390 0.0645555
395 0.0966892
400 0.0639584
405 0.0950205
410 0.154264
415 0.147327
420 0.129446
425 0.336507
430 0.554547
435 24.958
440 424.659
445 643.674
450 159.059
455 19.5763
460 3.4047
465 1.52205
470 1.37351
475 1.60178
480 1.30673
485 1.03972
490 1.1039
495 1.07995
500 1.35288
505 1.93464
510 3.27386
515 2.74584
520 1.69511
525 1.58454
530 1.28848
535 0.923021
540 0.85634
545 0.729985
550 0.658988
555 0.62531
560 0.585714
565 0.511032
570 0.413416
575 0.378463
580 0.298827
585 0.218353
590 0.140742
595 0.1757
600 0.019994
Ex : 453
200 0.0949933
205 0.0706253
210 0.075916
215 0.0417568
220 0.0548978
225 0.0428345
230 0.0677186
235 0.0827808
240 0.0433319
245 0.0457421
250 0.0647724
255 0.0565821
260 0.0670872
265 0.0592819
270 0.0485051
275 0.0599538
280 0.0559147
285 0.0717617
290 0.0692446
295 0.055958
300 0.0870725
305 0.0653885
310 0.0605797
315 0.0348848
320 0.0277246
325 0.0855001
330 0.092862
335 0.0896473
340 0.0943031
345 0.0711285
350 0.054149
355 0.10104
360 0.0669444
365 0.101226
370 0.0885949
375 0.116066
380 0.0868015
385 0.0580424
390 0.0539731
395 0.0834834
400 0.0519076
405 0.100602
410 0.115644
415 0.109676
420 0.151588
425 0.279256
430 0.363676
435 0.644705
440 26.494
445 465.537
450 677.996
455 159.022
460 19.685
465 3.61542
470 1.40903
475 1.39923
480 1.47012
485 1.32065
490 1.06191
495 0.976862
500 0.971852
505 1.0049
510 1.64153
515 2.96554
520 2.84674
525 1.78116
530 1.60004
535 1.35025
540 1.18393
545 0.828673
550 0.70845
555 0.656678
560 0.654921
565 0.509107
570 0.473011
575 0.418979
580 0.369946
585 0.304952
590 0.173344
595 0.143134
600 0.0162881
Ex : 458
200 0.0325563
205 0.0854846
210 0.0347341
215 0.0437159
220 0.0428234
225 0.0977928
230 0.0765132
235 0.0716964
240 0.0499478
245 0.081225
250 0.0797413
255 0.0507992
260 0.0609395
265 0.0580498
270 0.0342041
275 0.0606326
280 0.0936904
285 0.0846156
290 0.16787
295 0.051614
300 0.0796194
305 0.057879
310 0.0484321
315 0.0766543
320 0.0792583
325 0.0677843
330 0.0376105
335 0.0536593
340 0.0471862
345 0.0481601
350 0.118583
355 0.0747501
360 0.0878958
365 0.0757495
370 0.0948008
375 0.0850668
380 0.0518143
385 0.0649304
390 0.0890201
395 0.0773203
400 0.0752225
405 0.0932305
410 0.0946054
415 0.133267
420 0.128499
425 0.166628
430 0.239313
435 0.337792
440 0.608826
445 30.7387
450 488.483
455 731.307
460 178.276
465 22.0479
470 3.79158
475 1.44393
480 1.23233
485 1.45684
490 1.23012
495 1.01504
500 0.912813
505 0.981931
510 0.910792
515 1.10604
520 2.36813
525 3.10364
530 2.02313
535 1.46494
540 1.30303
545 0.982001
550 0.802237
555 0.692091
560 0.654984
565 0.545876
570 0.553847
575 0.480862
580 0.355666
585 0.249644
590 0.205995
595 0.212347
600 0.0674641
Ex : 463
200 0.0453753
205 0.0407207
210 0.0478538
215 0.0557524
220 0.0563032
225 0.0710322
230 0.0996117
235 0.0467007
240 0.0545983
245 0.0682798
250 0.0494874
255 0.0549802
260 0.0732318
265 0.056889
270 0.0787879
275 0.0903975
280 0.0952796
285 0.0379871
290 0.0592576
295 0.0454149
300 0.0731357
305 0.0681468
310 0.0421144
315 0.072947
320 0.038947
325 0.0647604
330 0.062347
335 0.0473034
340 0.0652397
345 0.110396
350 0.126308
355 0.0643916
360 0.0747244
365 0.0632249
370 0.0898596
375 0.125702
380 0.101688
385 0.0786789
390 0.0698913
395 0.102312
400 0.104971
405 0.107358
410 0.0691747
415 0.100382
420 0.0792318
425 0.146836
430 0.185251
435 0.161282
440 0.331953
445 0.578979
450 29.5182
455 519.477
460 790.369
465 191.168
470 23.3992
475 3.9542
480 1.53802
485 1.16105
490 1.44632
495 1.27382
500 1.05385
505 0.973706
510 0.932206
515 1.05125
520 0.989666
525 1.89928
530 2.96559
535 2.5155
540 1.50614
545 1.18533
550 1.12791
555 0.812142
560 0.722398
565 0.589747
570 0.582295
575 0.421186
580 0.288404
585 0.237098
590 0.204805
595 0.163851
600 0.250359
Ex : 468
200 0.0595346
205 0.042274
210 0.0479693
215 0.0529912
220 0.0792615
225 0.0643242
230 0.0731501
235 0.04238
240 0.0804629
245 0.0528421
250 0.0543906
255 0.0546086
260 0.0688763
265 0.0661607
270 0.0497761
275 0.0791575
280 0.0475409
285 0.0572181
290 0.0516644
295 0.0568883
300 0.0602826
305 0.0545822
310 0.0688557
315 0.0480146
320 0.0850432
325 0.0640353
330 0.100041
335 0.0627912
340 0.0424912
345 0.0508522
350 0.0528689
355 0.0762244
360 0.0946686
365 0.0932064
370 0.0754167
375 0.0812208
380 0.0431497
385 0.063824
390 0.0727609
395 0.084816
400 0.085412
405 0.0917166
410 0.114717
415 0.122915
420 0.119977
425 0.116301
430 0.174331
435 0.199479
440 0.254712
445 0.42953
450 0.759848
455 31.9133
460 524.294
465 837.384
470 202.007
475 24.4543
480 4.08557
485 1.45727
490 1.17613
495 1.3392
500 1.39347
505 1.14527
510 0.818016
515 0.899068
520 0.902756
525 1.087
530 1.44054
535 2.5172
540 2.57808
545 1.67991
550 1.22804
555 1.14662
560 0.88839
565 0.68042
570 0.496516
575 0.43719
580 0.406059
585 0.274022
590 0.287565
595 0.239942
600 0.0273044
Ex : 473
200 0.0548688
205 0.062586
210 0.0774332
215 0.0607501
220 0.0386955
225 0.0416057
230 0.0366503
235 0.0783482
240 0.0398963
245 0.108012
250 0.0352353
255 0.0557641
260 0.04679
265 0.0705046
270 0.0654362
275 0.0457674
280 0.0492202
285 0.0522531
290 0.094377
295 0.0961304
300 0.057786
305 0.107066
310 0.0799015
315 0.0374953
320 0.047917
325 0.034576
330 0.051307
335 0.0924544
340 0.0488293
345 0.074597
350 0.0643343
355 0.0517812
360 0.0557027
365 0.0730284
370 0.050088
375 0.0643389
380 0.104155
385 0.0808458
390 0.0539384
395 0.0731633
400 0.0779193
405 0.147269
410 0.124187
415 0.137907
420 0.125525
425 0.136818
430 0.131473
435 0.134015
440 0.180366
445 0.270299
450 0.373546
455 0.788452
460 38.3252
465 590.876
470 835.761
475 194.052
480 23.6406
485 3.89214
490 1.3616
495 0.961346
500 1.14908
505 1.24124
510 1.12954
515 1.01143
520 1.00697
525 0.984754
530 0.969429
535 1.11578
540 2.06589
545 2.62128
550 1.79428
555 1.16294
560 1.16694
565 0.870434
570 0.625211
575 0.448036
580 0.378895
585 0.291615
590 0.258451
595 0.251991
600 0.0286756
Ex : 478
200 0.0895248
205 0.0679022
210 0.0572928
215 0.0761325
220 0.0794733
225 0.0928829
230 0.0855712
235 0.0359408
240 0.0392225
245 0.0492685
250 0.0638947
255 0.0766761
260 0.0515548
265 0.0601652
270 0.102165
275 0.0507593
280 0.0675245
285 0.0690916
290 0.096401
295 0.0958486
300 0.0475685
305 0.0636707
310 0.0593488
315 0.0662632
320 0.119113
325 0.146187
330 0.159508
335 0.0582508
340 0.0572096
345 0.0785157
350 0.0720964
355 0.0673145
360 0.09801
365 0.108249
370 0.0971257
375 0.0740672
380 0.0773895
385 0.0816545
390 0.111492
395 0.0639829
400 0.066302
405 0.080045
410 0.132464
415 0.126507
420 0.0955489
425 0.131712
430 0.130164
435 0.152694
440 0.156799
445 0.206615
450 0.252893
455 0.486592
460 1.02809
465 42.8617
470 604.519
475 842.537
480 204.229
485 24.9266
490 3.97116
495 1.39808
500 1.01506
505 1.10738
510 1.22031
515 1.11045
520 0.996989
525 0.856129
530 0.882472
535 1.01197
540 1.03219
545 1.59417
550 2.42688
555 1.88119
560 1.04494
565 0.857277
570 0.763474
575 0.521269
580 0.403034
585 0.327318
590 0.300973
595 0.21329
600 0.0615855
Ex : 483
200 0.0907745
205 0.105088
210 0.106068
215 0.0962625
220 0.0550576
225 0.0895937
230 0.0585852
235 0.0513364
240 0.0674568
245 0.0839735
250 0.111351
255 0.0908853
260 0.103425
265 0.0386996
270 0.0494813
275 0.0423834
280 0.107791
285 0.0555639
290 0.0727329
295 0.0542873
300 0.0573474
305 0.127966
310 0.0687893
315 0.0821528
320 0.0486052
325 0.0780983
330 0.0555179
335 0.057516
340 0.104209
345 0.142609
350 0.124262
355 0.111302
360 0.109452
365 0.0875797
370 0.0589498
375 0.110759
380 0.0576377
385 0.0978603
390 0.107443
395 0.110006
400 0.145106
405 0.0914186
410 0.0828772
415 0.106822
420 0.0614835
425 0.0796591
430 0.14377
435 0.0980594
440 0.115734
445 0.197845
450 0.194052
455 0.259674
460 0.493248
465 0.941375
470 33.5222
475 603.724
480 915.385
485 218.904
490 26.4243
495 4.16791
500 1.36138
505 0.880043
510 1.02552
515 1.16155
520 1.06602
525 0.979309
530 0.859891
535 0.830902
540 0.919752
545 0.783116
550 1.08334
555 1.80927
560 1.97403
565 1.2339
570 0.733783
575 0.702114
580 0.590501
585 0.418009
590 0.330447
595 0.330782
600 0.111749
Ex : 488
200 0.0491549
205 0.0782306
210 0.10986
215 0.098395
220 0.099058
225 0.105577
230 0.0494131
235 0.116916
240 0.0881331
245 0.0709491
250 0.0784951
255 0.0521559
260 0.0628879
265 0.041791
270 0.0305302
275 0.0786816
280 0.137752
285 0.110848
290 0.0766701
295 0.0516922
300 0.0972688
305 0.0692884
310 0.107466
315 0.0682932
320 0.0775769
325 0.0857865
330 0.0966853
335 0.118901
340 0.0749019
345 0.0746947
350 0.109496
355 0.139469
360 0.0681774
365 0.0805513
370 0.0927335
375 0.146245
380 0.0878964
385 0.118227
390 0.0738119
395 0.0661582
400 0.09393
405 0.110613
410 0.0792996
415 0.11313
420 0.187771
425 0.0816226
430 0.131704
435 0.129804
440 0.190347
445 0.193716
450 0.241081
455 0.294227
460 0.3171
465 0.548896
470 0.964577
475 41.9556
480 662.574
485 922.584
490 218.014
495 26.3342
500 3.97905
505 1.31668
510 0.996096
515 0.918474
520 1.26596
525 1.16786
530 1.00722
535 0.940936
540 0.948024
545 0.80576
550 0.765266
555 0.700755
560 1.41567
565 1.91521
570 1.18411
575 0.637377
580 0.539323
585 0.420849
590 0.328198
595 0.217392
600 0.355361
Ex : 493
200 0.0700018
205 0.0499512
210 0.0547121
215 0.0865413
220 0.106072
225 0.0461769
230 0.0687061
235 0.0826999
240 0.0955931
245 0.111124
250 0.0597985
255 0.058688
260 0.0269276
265 0.0911377
270 0.0946568
275 0.0582425
280 0.0351502
285 0.081349
290 0.0853863
295 0.0880698
300 0.0528563
305 0.115055
310 0.125764
315 0.0566421
320 0.128509
325 0.0585207
330 0.118943
335 0.057115
340 0.0586196
345 0.0761957
350 0.0913041
355 0.0566837
360 0.0646269
365 0.101118
370 0.0729604
375 0.0876582
380 0.086475
385 0.0831246
390 0.0913074
395 0.0756566
400 0.0890789
405 0.101693
410 0.130024
415 0.135102
420 0.0882514
425 0.110259
430 0.147049
435 0.0903616
440 0.194609
445 0.163967
450 0.17536
455 0.189407
460 0.292088
465 0.429178
470 0.551769
475 0.992917
480 38.5131
485 655.169
490 972.216
495 224.675
500 27.0368
505 4.32856
510 1.4298
515 0.905328
520 1.04159
525 1.22453
530 1.11241
535 1.04718
540 0.873072
545 0.735926
550 0.790874
555 0.725423
560 0.789372
565 0.96906
570 1.48438
575 1.3705
580 0.584137
585 0.46693
590 0.36265
595 0.282412
600 0.0321374
Ex : 498
200 0.0957965
205 0.0514901
210 0.10343
215 0.0825425
220 0.120213
225 0.102176
230 0.109137
235 0.073843
240 0.0852492
245 0.12616
250 0.101128
255 0.0988776
260 0.0905658
265 0.0517581
270 0.0779848
275 0.0573788
280 0.0493068
285 0.0951614
290 0.10635
295 0.0625883
300 0.0397222
305 0.0573533
310 0.0675459
315 0.0564423
320 0.109694
325 0.0748479
330 0.0838299
335 0.105533
340 0.0888136
345 0.106949
350 0.1375
355 0.0917469
360 0.0708352
365 0.10291
370 0.0846039
375 0.11325
380 0.0799972
385 0.0573062
390 0.105876
395 0.0801701
400 0.107925
405 0.0847261
410 0.0708537
415 0.111253
420 0.129935
425 0.195324
430 0.0752824
435 0.192627
440 0.150964
445 0.140412
450 0.141536
455 0.140854
460 0.262831
465 0.330764
470 0.321211
475 0.544328
480 0.988081
485 46.7212
490 703.014
495 968.802
500 227.542
505 27.3746
510 4.07787
515 1.56037
520 0.968537
525 1.05752
530 1.12502
535 1.08641
540 0.893976
545 0.850059
550 0.693927
555 0.721984
560 0.566267
565 0.545463
570 0.643197
575 1.07516
580 1.06338
585 0.59432
590 0.332908
595 0.364627
600 0.322124
Ex : 503
200 0.0703026
205 0.0854355
210 0.0486649
215 0.0778253
220 0.104224
225 0.062348
230 0.0818465
235 0.0524193
240 0.0459739
245 0.0589353
250 0.0861257
255 0.135606
260 0.0920644
265 0.106453
270 0.0601037
275 0.0691979
280 0.0503708
285 0.0634475
290 0.0710088
295 0.144622
300 0.100127
305 0.105669
310 0.118227
315 0.0696954
320 0.0969171
325 0.160765
330 0.120138
335 0.122284
340 0.0509931
345 0.105378
350 0.086778
355 0.0690556
360 0.141486
365 0.0830953
370 0.0771722
375 0.0494912
380 0.0671608
385 0.0725828
390 0.208382
395 0.100701
400 0.150016
405 0.135307
410 0.122442
415 0.162008
420 0.181058
425 0.119383
430 0.100865
435 0.119749
440 0.0977248
445 0.160632
450 0.130529
455 0.171149
460 0.176449
465 0.193148
470 0.288617
475 0.349058
480 0.578233
485 1.01564
490 42.6066
495 713.205
500 1004.98
505 229.934
510 27.745
515 4.14689
520 1.59085
525 1.06864
530 0.926031
535 0.950469
540 1.0125
545 0.892269
550 0.801305
555 0.535604
560 0.530807
565 0.56425
570 0.507592
575 0.47606
580 0.626798
585 0.823511
590 0.662414
595 0.360659
600 0.415824
Ex : 508
200 0.134613
205 0.0603335
210 0.0817288
215 0.111284
220 0.0875214
225 0.0465451
230 0.159602
235 0.0923128
240 0.113081
245 0.143978
250 0.0920876
255 0.10071
260 0.12607
265 0.0548441
270 0.0823425
275 0.0742286
280 0.108521
285 0.064971
290 0.0752642
295 0.0975633
300 0.145831
305 0.122874
310 0.130736
315 0.0991993
320 0.141041
325 0.0888407
330 0.0551214
335 0.100076
340 0.121138
345 0.111703
350 0.110185
355 0.0902247
360 0.0791877
365 0.0796717
370 0.0622793
375 0.150867
380 0.11054
385 0.114398
390 0.0856085
395 0.138746
400 0.133256
405 0.113168
410 0.102647
415 0.143254
420 0.101384
425 0.106661
430 0.0788012
435 0.199827
440 0.0894242
445 0.185803
450 0.105894
455 0.13444
460 0.128987
465 0.167632
470 0.165418
475 0.289544
480 0.351796
485 0.611617
490 1.00006
495 46.4455
500 704.522
505 1000.57
510 239.217
515 28.7064
520 4.45135
525 1.58258
530 1.119
535 0.960809
540 0.913903
545 0.953391
550 0.900567
555 0.614159
560 0.477079
565 0.502635
570 0.505636
575 0.334285
580 0.393821
585 0.397922
590 0.68261
595 0.711711
600 0.165968
Ex : 513
200 0.134699
205 0.0704923
210 0.0816326
215 0.0923742
220 0.122057
225 0.115937
230 0.0741373
235 0.0827576
240 0.105638
245 0.113634
250 0.0914719
255 0.0709387
260 0.0959268
265 0.0593703
270 0.0870668
275 0.056933
280 0.0418512
285 0.0553829
290 0.148186
295 0.0653304
300 0.101385
305 0.0559664
310 0.118211
315 0.0627407
320 0.138635
325 0.0682225
330 0.106019
335 0.0867006
340 0.059496
345 0.158995
350 0.130338
355 0.0997805
360 0.0878557
365 0.0585446
370 0.0595297
375 0.0593321
380 0.0869368
385 0.104798
390 0.0871993
395 0.182768
400 0.0874204
405 0.174701
410 0.168739
415 0.185744
420 0.131776
425 0.171169
430 0.121787
435 0.139112
440 0.145265
445 0.163734
450 0.13365
455 0.171317
460 0.24416
465 0.25141
470 0.218059
475 0.277085
480 0.399165
485 0.343592
490 0.58804
495 0.958415
500 43.0667
505 711.263
510 1028.06
515 250.453
520 30.225
525 4.67201
530 1.47875
535 0.850409
540 0.821731
545 0.884435
550 0.784767
555 0.66242
560 0.643736
565 0.582414
570 0.382382
575 0.441968
580 0.340625
585 0.295328
590 0.390605
595 0.527147
600 1.13992
Ex : 518
200 0.0767914
205 0.104879
210 0.10342
215 0.0729744
220 0.106042
225 0.0916075
230 0.115178
235 0.0459103
240 0.0706262
245 0.113862
250 0.0919458
255 0.110686
260 0.0690509
265 0.085294
270 0.0715248
275 0.133414
280 0.092671
285 0.142658
290 0.0865042
295 0.0888196
300 0.108392
305 0.0981194
310 0.105732
315 0.0807148
320 0.0942011
325 0.0776415
330 0.0724246
335 0.123228
340 0.0789018
345 0.107582
350 0.105403
355 0.0792519
360 0.0782851
365 0.148889
370 0.0838843
375 0.102145
380 0.14038
385 0.106127
390 0.120419
395 0.140304
400 0.0623082
405 0.077814
410 0.156453
415 0.126542
420 0.127724
425 0.116228
430 0.166653
435 0.218531
440 0.125168
445 0.149749
450 0.154485
455 0.146803
460 0.16297
465 0.100215
470 0.131995
475 0.201804
480 0.198814
485 0.245583
490 0.42186
495 0.576086
500 0.839288
505 43.4661
510 691.127
515 1027.75
520 251.786
525 30.2466
530 4.55154
535 1.48572
540 0.985789
545 0.822963
550 0.770769
555 0.70449
560 0.73063
565 0.539644
570 0.484197
575 0.380072
580 0.281155
585 0.263769
590 0.275696
595 0.302354
600 0.382104
Ex : 523
200 0.302074
205 0.169159
210 0.106555
215 0.0877848
220 0.094511
225 0.0842281
230 0.0926797
235 0.118892
240 0.0848839
245 0.126512
250 0.0824039
255 0.0662162
260 0.126846
265 0.119371
270 0.153002
275 0.0624293
280 0.116447
285 0.085174
290 0.0910389
295 0.0858934
300 0.168406
305 0.197248
310 0.151515
315 0.0761111
320 0.0904158
325 0.144441
330 0.10769
335 0.122476
340 0.132754
345 0.1225
350 0.0951745
355 0.0828299
360 0.110565
365 0.0689074
370 0.112188
375 0.130499
380 0.107885
385 0.106334
390 0.102325
395 0.105616
400 0.159298
405 0.093131
410 0.116779
415 0.103785
420 0.0987013
425 0.167218
430 0.117224
435 0.150416
440 0.160077
445 0.13483
450 0.120567
455 0.21737
460 0.125782
465 0.147818
470 0.150317
475 0.174979
480 0.156251
485 0.240754
490 0.371973
495 0.436955
500 0.505694
505 1.05126
510 41.1142
515 676.304
520 1035.93
525 265.726
530 32.0555
535 4.55319
540 1.26266
545 0.774138
550 0.654749
555 0.630241
560 0.606352
565 0.677639
570 0.527017
575 0.376572
580 0.332988
585 0.471038
590 0.276547
595 0.199614
600 0.0227153
Ex : 528
200 0.0650594
205 0.092306
210 0.0977751
215 0.105141
220 0.0651674
225 0.0769646
230 0.0725964
235 0.121667
240 0.103608
245 0.0728217
250 0.162015
255 0.108739
260 0.12529
265 0.165177
270 0.0994687
275 0.0696449
280 0.0702221
285 0.108711
290 0.143226
295 0.136808
300 0.123244
305 0.0761972
310 0.121662
315 0.125992
320 0.0813558
325 0.102863
330 0.0989939
335 0.115121
340 0.0726288
345 0.129805
350 0.251216
355 0.130528
360 0.115697
365 0.123315
370 0.141703
375 0.116568
380 0.0730066
385 0.142198
390 0.124641
395 0.0884944
400 0.158061
405 0.137027
410 0.182164
415 0.134831
420 0.0783481
425 0.129767
430 0.128411
435 0.0992513
440 0.238038
445 0.143582
450 0.0880094
455 0.136476
460 0.121209
465 0.214887
470 0.142505
475 0.133484
480 0.228483
485 0.250357
490 0.191346
495 0.301389
500 0.384962
505 0.579644
510 0.955742
515 37.9794
520 678.104
525 1035.86
530 259.335
535 31.1119
540 4.51962
545 1.13726
550 0.58208
555 0.501996
560 0.548892
565 0.471963
570 0.458941
575 0.401731
580 0.264447
585 0.335317
590 0.273986
595 0.229516
600 0.026118
Ex : 533
200 0.152185
205 0.0691513
210 0.0885561
215 0.116502
220 0.150028
225 0.128624
230 0.092136
235 0.0860256
240 0.109226
245 0.0795185
250 0.119164
255 0.100481
260 0.0561955
265 0.103932
270 0.132155
275 0.0967782
280 0.130025
285 0.0984641
290 0.119497
295 0.129439
300 0.173611
305 0.122356
310 0.0817649
315 0.0708013
320 0.0907947
325 0.0757655
330 0.217453
335 0.10744
340 0.114355
345 0.0960386
350 0.0843388
355 0.124999
360 0.134454
365 0.0733369
370 0.124692
375 0.080733
380 0.123781
385 0.0518349
390 0.103206
395 0.0770119
400 0.12221
405 0.103503
410 0.145784
415 0.210587
420 0.228713
425 0.166897
430 0.189703
435 0.133386
440 0.210978
445 0.17693
450 0.144553
455 0.117682
460 0.206645
465 0.111429
470 0.141795
475 0.203908
480 0.138319
485 0.135818
490 0.238298
495 0.211654
500 0.323758
505 0.347992
510 0.512645
515 0.957955
520 37.4394
525 651.411
530 1029.76
535 266.303
540 31.8126
545 4.29837
550 1.14867
555 0.541307
560 0.512023
565 0.462507
570 0.581662
575 0.439618
580 0.450342
585 0.308329
590 0.208221
595 0.207965
600 0.511312
Ex : 538
200 0.193427
205 0.0765361
210 0.117497
215 0.0946292
220 0.134481
225 0.0881136
230 0.116004
235 0.108823
240 0.0872986
245 0.143328
250 0.14472
255 0.110119
260 0.118936
265 0.0858094
270 0.105926
275 0.112643
280 0.0635181
285 0.045276
290 0.0785971
295 0.184961
300 0.116407
305 0.0966391
310 0.0961245
315 0.0724805
320 0.138851
325 0.108946
330 0.117081
335 0.0804985
340 0.0638243
345 0.174041
350 0.194317
355 0.152174
360 0.135262
365 0.111154
370 0.0970219
375 0.119145
380 0.198678
385 0.114614
390 0.146547
395 0.0889961
400 0.116994
405 0.0820347
410 0.115365
415 0.0987589
420 0.0746707
425 0.121676
430 0.130357
435 0.134579
440 0.125139
445 0.128265
450 0.145868
455 0.143679
460 0.123061
465 0.157816
470 0.150855
475 0.20599
480 0.144171
485 0.169932
490 0.161536
495 0.250748
500 0.180289
505 0.242818
510 0.46279
515 0.763137
520 0.831415
525 32.9032
530 629.02
535 1032.39
540 278.393
545 33.24
550 4.52899
555 1.0823
560 0.615419
565 0.553332
570 0.363955
575 0.413976
580 0.32574
585 0.320913
590 0.318267
595 0.299583
600 0.592253
Ex : 543
200 0.175355
205 0.0706152
210 0.139281
215 0.193729
220 0.100021
225 0.0913972
230 0.0620531
235 0.0563344
240 0.0612188
245 0.0952673
250 0.0955786
255 0.0968648
260 0.0878832
265 0.0940017
270 0.0887971
275 0.078521
280 0.155467
285 0.117925
290 0.158683
295 0.130259
300 0.111351
305 0.062816
310 0.190954
315 0.168286
320 0.098581
325 0.101504
330 0.074851
335 0.0495446
340 0.121559
345 0.139498
350 0.125494
355 0.140881
360 0.101358
365 0.107848
370 0.0836186
375 0.082419
380 0.141392
385 0.232254
390 0.152034
395 0.208973
400 0.112757
405 0.120573
410 0.132276
415 0.143121
420 0.115925
425 0.162519
430 0.205439
435 0.137723
440 0.136113
445 0.14158
450 0.125893
455 0.127678
460 0.229684
465 0.080148
470 0.0954375
475 0.169835
480 0.164131
485 0.177051
490 0.206381
495 0.216994
500 0.123318
505 0.206322
510 0.291061
515 0.490399
520 0.52216
525 0.935503
530 29.6177
535 606.319
540 1034.29
545 284.373
550 34.0313
555 4.69564
560 1.04847
565 0.761351
570 0.388595
575 0.363145
580 0.346343
585 0.310431
590 0.171692
595 0.202242
600 0.490733
Ex : 548
200 0.100396
205 0.0850005
210 0.109566
215 0.0476832
220 0.0776057
225 0.0627369
230 0.0688618
235 0.12796
240 0.162181
245 0.0849636
250 0.172811
255 0.109284
260 0.100044
265 0.0696408
270 0.129651
275 0.0891754
280 0.111487
285 0.0731541
290 0.143288
295 0.0943568
300 0.0729293
305 0.124689
310 0.103818
315 0.093915
320 0.24246
325 0.155743
330 0.103341
335 0.122764
340 0.0923682
345 0.0824417
350 0.16962
355 0.159865
360 0.125448
365 0.119741
370 0.147847
375 0.119262
380 0.143248
385 0.146028
390 0.118979
395 0.190707
400 0.167609
405 0.110194
410 0.235371
415 0.113252
420 0.108509
425 0.156354
430 0.120452
435 0.0992093
440 0.116551
445 0.169329
450 0.0846096
455 0.0752186
460 0.210158
465 0.155559
470 0.14369
475 0.140437
480 0.270228
485 0.152682
490 0.136371
495 0.190762
500 0.191838
505 0.136058
510 0.198463
515 0.263167
520 0.460598
525 0.59416
530 0.777388
535 33.5883
540 614.507
545 1019.48
550 280.534
555 33.4579
560 4.52782
565 1.01831
570 0.534808
575 0.38317
580 0.271942
585 0.282061
590 0.238052
595 0.228782
600 0.0260346
Ex : 553
200 0.104761
205 0.143192
210 0.0784294
215 0.110586
220 0.0977239
225 0.0667438
230 0.103486
235 0.226583
240 0.151544
245 0.0652358
250 0.0728075
255 0.121189
260 0.178074
265 0.112303
270 0.100675
275 0.0546614
280 0.0915891
285 0.103958
290 0.134381
295 0.177191
300 0.151713
305 0.0917955
310 0.137386
315 0.330723
320 0.129168
325 0.167251
330 0.103715
335 0.120507
340 0.0484343
345 0.0905038
350 0.177895
355 0.166064
360 0.121662
365 0.217795
370 0.119793
375 0.0936592
380 0.15036
385 0.146808
390 0.126731
395 0.123643
400 0.25071
405 0.167902
410 0.122961
415 0.130598
420 0.184301
425 0.0975086
430 0.133191
435 0.131628
440 0.115729
445 0.153255
450 0.111714
455 0.183454
460 0.206478
465 0.170381
470 0.166649
475 0.165787
480 0.161552
485 0.215654
490 0.121197
495 0.134188
500 0.157898
505 0.201655
510 0.227572
515 0.175483
520 0.26506
525 0.362678
530 0.678514
535 0.754979
540 29.2206
545 584.049
550 1015.98
555 285.653
560 34.1946
565 4.45889
570 0.995835
575 0.533063
580 0.300532
585 0.2612
590 0.366521
595 0.309505
600 0.320257
Ex : 558
200 0.167609
205 0.119725
210 0.165297
215 0.119553
220 0.114956
225 0.231178
230 0.114251
235 0.0900964
240 0.11452
245 0.151392
250 0.177932
255 0.0952206
260 0.0699504
265 0.11209
270 0.15473
275 0.163319
280 0.0818484
285 0.160157
290 0.11374
295 0.202437
300 0.172291
305 0.0988169
310 0.146442
315 0.0982988
320 0.126648
325 0.0945055
330 0.0879289
335 0.23317
340 0.0824066
345 0.107931
350 0.129729
355 0.171243
360 0.0956873
365 0.128635
370 0.0736577
375 0.121261
380 0.124317
385 0.106799
390 0.277394
395 0.157592
400 0.125704
405 0.212854
410 0.164496
415 0.101456
420 0.0824
425 0.114662
430 0.135607
435 0.11028
440 0.19538
445 0.101347
450 0.153263
455 0.200847
460 0.153218
465 0.147881
470 0.136704
475 0.120548
480 0.126254
485 0.210768
490 0.260426
495 0.207677
500 0.128464
505 0.205058
510 0.162413
515 0.231068
520 0.353546
525 0.21574
530 0.369372
535 0.479985
540 0.994447
545 25.736
550 561.978
555 1004
560 284.238
565 33.8488
570 4.50786
575 0.867175
580 0.402006
585 0.35483
590 0.310864
595 0.26419
600 0.111616
Ex : 563
200 0.124119
205 0.142442
210 0.126536
215 0.062874
220 0.089428
225 0.154101
230 0.165437
235 0.139575
240 0.108313
245 0.113702
250 0.0835735
255 0.0424607
260 0.115858
265 0.152437
270 0.124141
275 0.150826
280 0.0616462
285 0.128219
290 0.178247
295 0.0778503
300 0.124306
305 0.123823
310 0.0912563
315 0.0949701
320 0.143088
325 0.0973926
330 0.0967502
335 0.0806858
340 0.236041
345 0.134706
350 0.168187
355 0.0899981
360 0.129118
365 0.139401
370 0.126555
375 0.133819
380 0.127161
385 0.16226
390 0.121974
395 0.09321
400 0.0953836
405 0.0731989
410 0.188067
415 0.11159
420 0.139299
425 0.131345
430 0.139502
435 0.193089
440 0.159455
445 0.175809
450 0.237199
455 0.15515
460 0.210477
465 0.13307
470 0.117922
475 0.143912
480 0.187577
485 0.172812
490 0.138162
495 0.129526
500 0.151387
505 0.188884
510 0.155739
515 0.316694
520 0.205763
525 0.255704
530 0.296272
535 0.260614
540 0.441052
545 0.975283
550 27.3084
555 554.828
560 974.619
565 283.688
570 33.8649
575 4.31405
580 0.811959
585 0.451144
590 0.343349
595 0.232524
600 0.0264603
Ex : 568
200 0.274735
205 0.142707
210 0.188175
215 0.145877
220 0.08898
225 0.247968
230 0.135479
235 0.164425
240 0.213946
245 0.0953636
250 0.0934817
255 0.0893048
260 0.0764836
265 0.124278
270 0.123112
275 0.0934082
280 0.15998
285 0.236097
290 0.172505
295 0.139989
300 0.0813286
305 0.158345
310 0.156098
315 0.11793
320 0.145765
325 0.160326
330 0.0837471
335 0.094486
340 0.221418
345 0.0803779
350 0.0916671
355 0.142799
360 0.112294
365 0.128053
370 0.127095
375 0.128023
380 0.102929
385 0.0788976
390 0.139578
395 0.159555
400 0.179347
405 0.161004
410 0.211805
415 0.181684
420 0.0800104
425 0.129152
430 0.107844
435 0.110342
440 0.1111
445 0.0630983
450 0.188468
455 0.320902
460 0.143304
465 0.102344
470 0.117281
475 0.133893
480 0.200845
485 0.0889798
490 0.161472
495 0.14254
500 0.291107
505 0.107335
510 0.124277
515 0.165176
520 0.169596
525 0.264556
530 0.169996
535 0.274556
540 0.283836
545 0.402659
550 0.766817
555 19.6953
560 500.244
565 956.935
570 289.768
575 34.6255
580 4.47104
585 0.85764
590 0.444687
595 0.416734
600 1.59828
Ex : 573
200 0.176322
205 0.0678489
210 0.0607259
215 0.169419
220 0.126796
225 0.200412
230 0.168372
235 0.130112
240 0.118807
245 0.0731939
250 0.121374
255 0.114682
260 0.190433
265 0.0847993
270 0.110781
275 0.0958606
280 0.131057
285 0.133714
290 0.149639
295 0.0747385
300 0.0674442
305 0.189791
310 0.135391
315 0.0808011
320 0.315371
325 0.168571
330 0.113183
335 0.148063
340 0.163254
345 0.124176
350 0.147831
355 0.176841
360 0.122759
365 0.127255
370 0.12756
375 0.0949131
380 0.131807
385 0.133018
390 0.105015
395 0.216513
400 0.248064
405 0.212784
410 0.148459
415 0.158261
420 0.0944282
425 0.193937
430 0.213065
435 0.159746
440 0.111173
445 0.12935
450 0.165135
455 0.15779
460 0.178877
465 0.153589
470 0.176413
475 0.245582
480 0.156353
485 0.198984
490 0.132365
495 0.112884
500 0.190313
505 0.168439
510 0.149248
515 0.219014
520 0.159572
525 0.217302
530 0.22082
535 0.260414
540 0.225278
545 0.273185
550 0.465789
555 0.749187
560 18.2835
565 444.244
570 889.035
575 274.246
580 32.7461
585 4.16457
590 0.815573
595 0.402571
600 0.307509
Ex : 578
200 0.0886507
205 0.104439
210 0.0994755
215 0.139648
220 0.14291
225 0.123003
230 0.0976813
235 0.106858
240 0.0682029
245 0.0282456
250 0.0834078
255 0.154697
260 0.097665
265 0.150811
270 0.0932792
275 0.0802555
280 0.0580027
285 0.150607
290 0.103149
295 0.119494
300 0.0924625
305 0.080011
310 0.0558236
315 0.201463
320 0.279731
325 0.131388
330 0.0736705
335 0.158725
340 0.1245
345 0.0705915
350 0.0926975
355 0.169894
360 0.183041
365 0.105132
370 0.121686
375 0.117757
380 0.156135
385 0.235465
390 0.140377
395 0.149983
400 0.113486
405 0.125559
410 0.130794
415 0.0777983
420 0.20435
425 0.119965
430 0.159447
435 0.0627031
440 0.138138
445 0.0926921
450 0.169495
455 0.115485
460 0.141845
465 0.0765844
470 0.227036
475 0.157647
480 0.120222
485 0.124185
490 0.113859
495 0.126737
500 0.103361
505 0.129351
510 0.138712
515 0.162035
520 0.224998
525 0.184446
530 0.25898
535 0.171164
540 0.224558
545 0.296698
550 0.459547
555 0.387356
560 0.659288
565 16.069
570 399.317
575 797.606
580 241.662
585 28.8494
590 3.6188
595 0.623126
600 0.100648
Ex : 583
200 0.20337
205 0.212841
210 0.120387
215 0.10595
220 0.121231
225 0.0819537
230 0.144993
235 0.144444
240 0.125099
245 0.129691
250 0.198465
255 0.110966
260 0.146937
265 0.118473
270 0.228346
275 0.0662737
280 0.134505
285 0.0741867
290 0.05937
295 0.131935
300 0.105742
305 0.156658
310 0.0862841
315 0.120857
320 0.0880151
325 0.167305
330 0.0933791
335 0.115398
340 0.156594
345 0.183161
350 0.177407
355 0.126634
360 0.0992311
365 0.188922
370 0.149123
375 0.165415
380 0.102767
385 0.0985919
390 0.0903421
395 0.0892566
400 0.113259
405 0.129632
410 0.132325
415 0.134929
420 0.118822
425 0.160602
430 0.159749
435 0.158184
440 0.156934
445 0.134204
450 0.107597
455 0.21911
460 0.162738
465 0.20857
470 0.139665
475 0.169776
480 0.143514
485 0.103961
490 0.0976645
495 0.138547
500 0.111891
505 0.226855
510 0.156153
515 0.0981295
520 0.159716
525 0.19748
530 0.202595
535 0.197451
540 0.118773
545 0.165419
550 0.33234
555 0.454514
560 0.294542
565 0.472006
570 13.5944
575 354.689
580 689.669
585 202.485
590 24.1182
595 3.17217
600 0.36098
Ex : 588
200 0.0533449
205 0.129781
210 0.136242
215 0.119691
220 0.102551
225 0.0810695
230 0.11406
235 0.222303
240 0.0614846
245 0.152576
250 0.131576
255 0.12723
260 0.0993113
265 0.0928642
270 0.20745
275 0.14621
280 0.0867882
285 0.122425
290 0.112004
295 0.191559
300 0.128496
305 0.03189
310 0.217163
315 0.122682
320 0.0778993
325 0.114041
330 0.103074
335 0.106108
340 0.115168
345 0.130332
350 0.13943
355 0.115996
360 0.153046
365 0.0875828
370 0.0947914
375 0.121889
380 0.131703
385 0.105829
390 0.10774
395 0.195256
400 0.163691
405 0.188182
410 0.110986
415 0.136566
420 0.121351
425 0.0661387
430 0.131791
435 0.249977
440 0.107415
445 0.179333
450 0.182331
455 0.132081
460 0.128137
465 0.134247
470 0.118374
475 0.157897
480 0.0839145
485 0.176746
490 0.0923553
495 0.0950057
500 0.240745
505 0.132361
510 0.272392
515 0.0989405
520 0.147301
525 0.124462
530 0.167631
535 0.0776423
540 0.196785
545 0.143267
550 0.142439
555 0.35982
560 0.309162
565 0.375319
570 0.479556
575 12.1474
580 306.418
585 593.086
590 180.38
595 21.3665
600 2.43142
Ex : 593
200 0.14378
205 0.063495
210 0.137217
215 0.117788
220 0.128996
225 0.109315
230 0.189648
235 0.184991
240 0.107861
245 0.0480885
250 0.102868
255 0.16029
260 0.144979
265 0.0962854
270 0.169437
275 0.149856
280 0.111299
285 0.0849889
290 0.136687
295 0.213077
300 0.160673
305 0.170374
310 0.103429
315 0.0950232
320 0.15249
325 0.112859
330 0.112827
335 0.215018
340 0.208272
345 0.19072
350 0.181886
355 0.126494
360 0.132944
365 0.234827
370 0.120522
375 0.0697976
380 0.222043
385 0.269754
390 0.265005
395 0.139329
400 0.103799
405 0.130263
410 0.133981
415 0.12743
420 0.122516
425 0.159147
430 0.0848646
435 0.137039
440 0.0525466
445 0.23421
450 0.166478
455 0.156467
460 0.0903027
465 0.181326
470 0.157048
475 0.140339
480 0.118386
485 0.251595
490 0.101676
495 0.0921928
500 0.158622
505 0.175134
510 0.258998
515 0.212162
520 0.155343
525 0.137222
530 0.157884
535 0.144728
540 0.140606
545 0.14554
550 0.208409
555 0.185123
560 0.277925
565 0.215202
570 0.274337
575 0.408084
580 10.5687
585 275.557
590 512.23
595 157.227
600 21.7365
Ex : 598
200 0.176326
205 0.148992
210 0.0926784
215 0.126549
220 0.163059
225 0.10582
230 0.263567
235 0.237976
240 0.18735
245 0.275416
250 0.109908
255 0.151496
260 0.145741
265 0.203446
270 0.169664
275 0.118601
280 0.147948
285 0.120787
290 0.184527
295 0.255671
300 0.132953
305 0.105586
310 0.136084
315 0.114592
320 0.169578
325 0.0950254
330 0.12456
335 0.167472
340 0.078014
345 0.0849055
350 0.108242
355 0.229005
360 0.108141
365 0.151868
370 0.10808
375 0.258241
380 0.134492
385 0.109954
390 0.145553
395 0.176354
400 0.103889
405 0.12086
410 0.0923546
415 0.117427
420 0.232419
425 0.132725
430 0.0877349
435 0.0777235
440 0.226786
445 0.098773
450 0.159897
455 0.154301
460 0.0833035
465 0.20617
470 0.132255
475 0.186262
480 0.238153
485 0.189456
490 0.135171
495 0.143648
500 0.133526
505 0.172097
510 0.175545
515 0.141615
520 0.132146
525 0.180863
530 0.140394
535 0.103852
540 0.230417
545 0.118505
550 0.204228
555 0.152591
560 0.18006
565 0.245138
570 0.266437
575 0.282629
580 0.437216
585 10.2961
590 253.311
595 453.285
600 285.678
Ex : 603
200 0.0495205
205 0.0972872
210 0.109616
215 0.105472
220 0.165651
225 0.214656
230 0.102242
235 0.265819
240 0.104202
245 0.181822
250 0.116758
255 0.0955894
260 0.225875
265 0.31102
270 0.124277
275 0.216216
280 0.130879
285 0.0933824
290 0.0710416
295 0.149384
300 0.11574
305 0.0756043
310 0.0620889
315 0.0873727
320 0.205603
325 0.0766428
330 0.128789
335 0.0897339
340 0.116429
345 0.22682
350 0.201539
355 0.164333
360 0.203209
365 0.128116
370 0.166917
375 0.102446
380 0.0954713
385 0.0868548
390 0.131113
395 0.114523
400 0.138301
405 0.157875
410 0.173122
415 0.264316
420 0.199982
425 0.0680905
430 0.186983
435 0.134482
440 0.217497
445 0.108791
450 0.0849822
455 0.152481
460 0.173224
465 0.215887
470 0.276736
475 0.157967
480 0.119272
485 0.121741
490 0.143209
495 0.13147
500 0.077166
505 0.118032
510 0.167715
515 0.11471
520 0.228607
525 0.174564
530 0.0966
535 0.203677
540 0.142583
545 0.198586
550 0.156064
555 0.0837103
560 0.296628
565 0.151706
570 0.210424
575 0.292631
580 0.492533
585 0.414788
590 9.23495
595 217.947
600 437.871
