File format V 1.0
ven. 6. janv. 02:47:09 2017
Operator : 
Comments : 

=============================================
SpectroFluorometer parameters
Mode : 3D measurement
Data : Fluorescence
Phospho. : Ordinary
Spectrum : Fluorescence

Scan speed : 2400 nm/mn
Response : 100 ms
PM Voltage : 700 V
Shutter : On

Lambda Ex. Start : 203
Lambda Ex. End : 603
Lambda Ex. Step : 5
Ex. Slit : 5 nm

Lambda Em. Start : 200
Lambda Em. End : 600
Lambda Em. Step : 5
Em. Slit : 5 nm

Repetition : 1
Decal lambda em : 10
=============================================
DATA
Ex : 203
200 3.76159
205 2.7077
210 4.97705
215 2.15914
220 3.98679
225 2.77777
230 6.14482
235 2.94354
240 4.23543
245 4.10309
250 4.62902
255 4.64929
260 2.92663
265 3.65926
270 5.2546
275 4.13698
280 2.42404
285 3.02807
290 1.91745
295 1.22664
300 3.50144
305 3.28875
310 3.98553
315 5.04346
320 2.14663
325 1.87989
330 3.41037
335 5.23858
340 2.07681
345 5.05778
350 1.56602
355 2.64521
360 10.2195
365 3.46484
370 5.04405
375 5.17267
380 6.43009
385 5.50488
390 4.93171
395 3.56414
400 6.888
405 3.13107
410 8.10148
415 5.47602
420 1.85772
425 3.33451
430 3.65572
435 4.02899
440 2.91308
445 2.00874
450 4.72957
455 4.15345
460 3.95794
465 3.70162
470 3.12558
475 6.79973
480 4.02923
485 3.32209
490 5.97294
495 2.31577
500 5.0638
505 2.57175
510 4.00435
515 2.9542
520 4.18821
525 8.36036
530 6.59572
535 3.76938
540 4.84806
545 2.67392
550 2.5111
555 3.88965
560 3.33681
565 6.34566
570 5.54975
575 3.56969
580 3.99267
585 7.38073
590 5.86594
595 3.83584
600 0.436505
Ex : 208
200 3.17532
205 5.5964
210 4.27747
215 2.68996
220 4.41695
225 2.61867
230 2.3386
235 0.624247
240 2.19239
245 5.00951
250 6.09015
255 4.20482
260 2.25689
265 2.93732
270 5.48922
275 4.01706
280 8.37795
285 5.5954
290 2.21475
295 2.31049
300 2.18209
305 3.28272
310 2.94128
315 1.30531
320 6.26154
325 1.46765
330 2.08433
335 3.32208
340 3.30662
345 3.02921
350 3.55252
355 3.31692
360 2.51296
365 2.94458
370 3.60187
375 4.64517
380 5.65955
385 7.5181
390 3.92191
395 2.10723
400 2.82404
405 3.93755
410 5.49607
415 3.25018
420 4.72458
425 5.4532
430 6.31513
435 5.43494
440 2.25979
445 5.02809
450 2.55793
455 2.81734
460 4.23796
465 4.604
470 4.78586
475 3.69908
480 5.92539
485 4.51627
490 4.3268
495 2.03002
500 1.69403
505 1.58869
510 2.56137
515 3.01026
520 6.87547
525 2.46619
530 2.46511
535 3.25753
540 3.64149
545 4.65512
550 4.04025
555 2.83479
560 2.51566
565 2.93231
570 6.05373
575 4.14103
580 3.48763
585 3.87583
590 3.12346
595 2.99701
600 0.341048
Ex : 213
200 5.15484
205 4.20433
210 3.32297
215 4.80916
220 5.19429
225 2.40017
230 5.33307
235 3.73536
240 4.08964
245 2.74093
250 5.66915
255 2.60659
260 3.16064
265 2.81011
270 4.20054
275 3.19642
280 9.076
285 2.91448
290 3.77468
295 2.79073
300 4.1704
305 2.59039
310 3.10876
315 4.30803
320 2.86813
325 7.71141
330 3.99851
335 3.35979
340 2.5322
345 3.67391
350 1.9357
355 4.21109
360 2.07087
365 3.80817
370 3.10363
375 3.75777
380 1.79335
385 1.93272
390 4.83842
395 7.01397
400 2.75013
405 2.29494
410 2.43486
415 4.34453
420 5.6365
425 3.15054
430 3.89266
435 3.41507
440 4.08114
445 6.66784
450 5.30868
455 7.20008
460 1.89843
465 6.05841
470 6.66727
475 6.742
480 3.9291
485 6.03187
490 3.7651
495 6.43692
500 3.06521
505 6.011
510 3.11674
515 2.52747
520 3.4558
525 2.95529
530 4.90142
535 2.20832
540 5.26733
545 7.19398
550 4.9429
555 2.08583
560 6.53865
565 6.49274
570 4.12902
575 2.60098
580 2.06288
585 5.74694
590 3.90907
595 2.8819
600 0.327949
Ex : 218
200 3.20382
205 4.02722
210 4.68013
215 2.55739
220 3.11921
225 8.7903
230 4.42979
235 3.34323
240 1.77562
245 3.6542
250 3.17588
255 1.0431
260 1.64553
265 3.91346
270 3.52132
275 3.55102
280 4.68304
285 4.74518
290 3.72354
295 1.59397
300 3.79309
305 5.07445
310 2.09846
315 1.16622
320 1.92727
325 2.49813
330 2.967
335 2.68556
340 2.42728
345 5.32204
350 3.61406
355 3.33053
360 6.39476
365 3.45278
370 2.49631
375 1.40585
380 3.18188
385 4.97606
390 2.42512
395 3.2573
400 6.60383
405 3.0364
410 4.21773
415 3.70944
420 5.31481
425 5.47893
430 6.6268
435 2.86903
440 3.32942
445 3.16409
450 2.49015
455 2.65
460 3.14156
465 4.05807
470 4.87532
475 5.14129
480 4.10877
485 5.20995
490 2.06988
495 2.48842
500 2.65406
505 1.88251
510 5.54175
515 7.07956
520 5.46516
525 7.68807
530 2.80399
535 3.87596
540 2.07146
545 3.65227
550 1.78425
555 2.631
560 3.07836
565 3.92466
570 2.78872
575 7.07391
580 5.06248
585 3.95721
590 5.02094
595 4.92554
600 16.2906
Ex : 223
200 4.63529
205 2.78015
210 3.84414
215 5.33859
220 1.80477
225 4.64158
230 2.95972
235 1.48196
240 5.5399
245 3.67984
250 2.81203
255 2.65491
260 2.05264
265 6.12944
270 4.6485
275 3.47141
280 4.64006
285 5.20583
290 2.61801
295 2.29476
300 5.79717
305 2.72569
310 2.42045
315 3.49494
320 2.79785
325 3.71919
330 2.1839
335 3.45119
340 3.92626
345 3.74695
350 1.85874
355 2.26014
360 4.46264
365 3.71961
370 3.5712
375 3.12268
380 4.08884
385 3.99409
390 8.18865
395 4.76069
400 5.83682
405 6.6781
410 2.6026
415 2.90041
420 4.66556
425 8.80403
430 2.88062
435 8.67289
440 3.4631
445 8.411
450 6.75369
455 3.88667
460 1.56228
465 2.7213
470 4.46975
475 2.30392
480 5.18732
485 3.48771
490 3.80617
495 5.24632
500 2.98757
505 6.45422
510 6.63175
515 1.92016
520 6.17287
525 7.02727
530 2.41143
535 3.51346
540 4.95423
545 3.67147
550 3.8505
555 5.17697
560 1.85026
565 5.57074
570 4.9399
575 2.64884
580 3.76428
585 5.511
590 6.53339
595 3.26186
600 10.2967
Ex : 228
200 4.47159
205 4.03735
210 3.89768
215 3.31816
220 5.74316
225 3.56463
230 2.64604
235 2.40174
240 3.76305
245 4.69127
250 1.93395
255 6.65873
260 3.09985
265 3.60401
270 3.03835
275 3.39408
280 4.35354
285 2.58664
290 6.832
295 2.65927
300 2.5433
305 3.07969
310 3.70614
315 1.94539
320 3.09639
325 5.7487
330 4.08952
335 4.15967
340 3.93851
345 3.36805
350 3.42741
355 3.20346
360 1.86658
365 1.93866
370 6.64298
375 4.67908
380 5.74687
385 4.47507
390 5.55379
395 4.09998
400 2.4001
405 3.43672
410 2.28804
415 3.83506
420 1.86205
425 3.02817
430 3.95714
435 4.53586
440 3.35095
445 3.94151
450 1.89388
455 3.53475
460 3.50395
465 3.79026
470 5.64197
475 4.9819
480 2.22182
485 2.12979
490 2.28667
495 2.10434
500 1.89034
505 2.40809
510 4.20856
515 2.66996
520 7.04364
525 4.29033
530 3.08211
535 2.37708
540 3.14659
545 4.09806
550 4.78929
555 5.09387
560 4.04008
565 2.95873
570 4.17154
575 3.91438
580 1.94993
585 3.181
590 8.17819
595 7.21047
600 0.820524
Ex : 233
200 3.79581
205 1.98042
210 4.2201
215 4.6607
220 3.3493
225 9.31982
230 2.74989
235 2.97154
240 1.44714
245 2.78175
250 6.13164
255 6.88192
260 3.06788
265 1.20301
270 2.39136
275 2.91572
280 3.14045
285 1.53568
290 3.56851
295 2.30853
300 2.10254
305 3.1807
310 1.69602
315 1.93771
320 2.05821
325 1.26968
330 3.31924
335 5.25421
340 7.38887
345 4.07132
350 4.232
355 3.70777
360 3.73517
365 2.65385
370 2.47416
375 5.80287
380 4.82598
385 2.81804
390 4.73821
395 4.18358
400 1.77959
405 2.01475
410 2.13663
415 2.71972
420 3.57496
425 3.10482
430 3.54556
435 3.2223
440 2.90529
445 4.40429
450 3.60048
455 3.68149
460 4.71936
465 5.37708
470 3.15511
475 6.23977
480 3.06043
485 2.79191
490 1.21314
495 1.44101
500 2.80186
505 2.90966
510 2.21665
515 2.58381
520 2.0383
525 5.78264
530 4.10773
535 3.48925
540 5.4435
545 1.49105
550 2.63475
555 3.08361
560 2.89265
565 2.91236
570 2.28317
575 3.04503
580 4.61559
585 3.95744
590 3.64258
595 1.96416
600 0.223514
Ex : 238
200 2.36181
205 3.22132
210 3.13967
215 3.09349
220 3.23509
225 4.39558
230 2.63801
235 4.30102
240 1.41593
245 1.59856
250 2.5625
255 3.10875
260 1.8103
265 1.97456
270 3.02257
275 1.83019
280 2.86688
285 2.00668
290 2.31757
295 1.68578
300 1.55235
305 3.07046
310 1.77112
315 4.66225
320 2.84676
325 1.16795
330 2.50759
335 4.00911
340 3.20345
345 5.30502
350 5.63545
355 1.81408
360 2.33846
365 1.35781
370 3.63517
375 1.73453
380 3.27328
385 3.44741
390 2.9901
395 2.51549
400 4.82752
405 2.11013
410 4.12957
415 2.56656
420 3.44054
425 2.03296
430 4.43171
435 1.88467
440 2.94625
445 4.4398
450 4.08446
455 3.69944
460 2.87651
465 3.83054
470 2.99758
475 1.84645
480 5.27638
485 4.04299
490 1.86704
495 1.81845
500 1.57765
505 4.36664
510 2.98965
515 2.24048
520 1.7512
525 2.24023
530 2.64851
535 1.54381
540 2.6403
545 4.10032
550 1.60111
555 1.97993
560 1.7051
565 3.22158
570 1.93741
575 1.04133
580 1.47563
585 4.01762
590 3.52616
595 2.57833
600 2.50891
Ex : 243
200 1.3133
205 1.29922
210 1.09816
215 2.241
220 1.95388
225 3.43529
230 1.46623
235 2.41913
240 2.76676
245 3.01852
250 1.53948
255 4.01785
260 1.3576
265 2.59704
270 1.1517
275 1.5336
280 2.66081
285 1.65425
290 3.33354
295 1.67485
300 4.22319
305 3.14674
310 4.31994
315 1.55858
320 2.65649
325 2.27682
330 2.41552
335 2.36297
340 4.76375
345 1.56823
350 3.30708
355 1.52956
360 3.19316
365 3.01081
370 2.53823
375 2.25982
380 3.0496
385 2.1691
390 2.19263
395 3.1608
400 1.96524
405 1.53996
410 1.03128
415 1.42151
420 2.83939
425 2.0992
430 2.47618
435 4.22941
440 3.04947
445 3.29295
450 2.73923
455 3.37247
460 2.31469
465 2.16084
470 1.52218
475 2.03643
480 1.47682
485 3.4489
490 2.2205
495 1.35568
500 2.29808
505 3.68548
510 1.64938
515 3.25279
520 2.89438
525 2.64215
530 4.10031
535 2.04166
540 1.70569
545 3.58994
550 2.36179
555 3.82461
560 2.05124
565 1.82026
570 2.68318
575 3.39615
580 2.92323
585 1.82256
590 1.17481
595 1.95715
600 0.222717
Ex : 248
200 2.28521
205 2.16879
210 2.56128
215 3.47991
220 1.77317
225 1.80423
230 2.78805
235 2.01733
240 1.62399
245 2.59515
250 1.38675
255 1.36394
260 1.57438
265 1.65302
270 1.78265
275 1.65188
280 3.01689
285 2.46331
290 1.99139
295 2.04065
300 1.37926
305 2.11838
310 1.57345
315 1.65078
320 3.85267
325 4.25847
330 3.37996
335 4.17931
340 3.84558
345 1.92939
350 3.96766
355 1.47405
360 1.7591
365 2.26289
370 2.32635
375 1.06381
380 2.81886
385 2.65174
390 2.92184
395 1.72334
400 2.69527
405 1.89255
410 1.05182
415 1.81182
420 1.67244
425 2.54593
430 2.32437
435 0.857344
440 2.05207
445 2.70043
450 1.77146
455 3.69767
460 1.43042
465 0.810272
470 3.52143
475 1.4117
480 2.2708
485 1.775
490 1.67799
495 3.10967
500 1.69413
505 1.50952
510 2.7481
515 1.36005
520 2.56585
525 0.715097
530 4.39239
535 1.66606
540 1.92158
545 3.21488
550 0.986482
555 2.66009
560 1.86791
565 3.12846
570 2.12215
575 1.23809
580 1.2857
585 2.10153
590 1.57299
595 4.75206
600 0.540766
Ex : 253
200 0.668539
205 2.32883
210 2.31594
215 2.47041
220 1.60012
225 2.00288
230 1.79239
235 0.777545
240 1.12611
245 3.97752
250 1.98545
255 1.04956
260 1.1794
265 2.67129
270 1.58461
275 2.78053
280 1.81689
285 1.89973
290 1.67389
295 1.18213
300 2.15045
305 1.46983
310 0.835163
315 1.12811
320 1.84602
325 1.63559
330 1.56295
335 2.29982
340 1.74908
345 0.893903
350 2.3433
355 2.6626
360 2.453
365 0.890143
370 2.39381
375 1.86952
380 1.20782
385 1.54615
390 1.0496
395 0.682231
400 2.13787
405 3.08499
410 1.83404
415 1.89986
420 1.2835
425 0.616131
430 1.28202
435 1.49665
440 1.97373
445 1.60543
450 1.08963
455 1.8939
460 2.04065
465 0.79438
470 3.12733
475 1.63336
480 1.03839
485 1.81589
490 1.47444
495 2.53918
500 3.60082
505 1.71194
510 3.0731
515 2.08707
520 2.0296
525 1.9858
530 2.95517
535 2.10365
540 2.22941
545 2.00848
550 1.9308
555 1.32621
560 1.09953
565 1.12178
570 2.24955
575 2.32055
580 3.64288
585 2.55891
590 1.69214
595 1.29844
600 0.147758
Ex : 258
200 1.27982
205 1.67007
210 1.46001
215 1.22837
220 0.981169
225 1.37058
230 0.801398
235 0.649626
240 0.806006
245 1.45005
250 1.70015
255 1.49489
260 0.917847
265 1.9547
270 1.24256
275 0.773544
280 1.87074
285 0.763283
290 1.70403
295 2.95798
300 0.737981
305 0.27416
310 0.848475
315 1.32606
320 1.62522
325 0.944547
330 2.19159
335 1.17789
340 2.48458
345 1.45408
350 1.00147
355 1.1624
360 1.85163
365 1.62667
370 0.727117
375 1.75297
380 0.884365
385 1.48809
390 1.24033
395 1.84088
400 1.37313
405 1.49384
410 1.37594
415 1.84016
420 1.8991
425 1.11635
430 1.46816
435 1.39003
440 1.13021
445 3.76145
450 2.0322
455 1.37501
460 1.51002
465 1.30399
470 1.15104
475 1.50165
480 1.82227
485 1.15701
490 0.739062
495 1.64893
500 3.16219
505 1.64035
510 2.15336
515 2.82651
520 1.33388
525 1.28605
530 1.3583
535 0.763964
540 0.863115
545 2.29688
550 1.80676
555 1.68671
560 2.11336
565 1.36589
570 3.65206
575 1.36263
580 0.87161
585 0.824816
590 0.962801
595 1.15671
600 0.13163
Ex : 263
200 2.82716
205 1.64561
210 0.69919
215 2.40349
220 0.981847
225 0.862979
230 0.451435
235 1.24852
240 0.397243
245 1.81145
250 0.937332
255 0.59798
260 0.67349
265 0.602776
270 1.51973
275 1.64047
280 1.27909
285 2.08998
290 1.03431
295 1.12548
300 0.976791
305 0.938792
310 0.935
315 0.907242
320 0.545575
325 1.31131
330 1.59631
335 1.10593
340 1.61543
345 1.74286
350 1.09385
355 0.82067
360 1.79929
365 0.745803
370 2.01072
375 2.11101
380 0.959018
385 1.45298
390 1.50934
395 0.94602
400 1.45986
405 1.51949
410 1.16528
415 1.04342
420 1.84209
425 1.11593
430 1.62344
435 1.11848
440 1.82753
445 1.62528
450 1.42184
455 0.934546
460 2.255
465 0.637075
470 0.836789
475 0.87313
480 1.80112
485 1.17316
490 0.843699
495 0.994673
500 1.03792
505 1.30399
510 0.822147
515 1.04416
520 2.04488
525 1.33772
530 1.68926
535 1.29192
540 0.786624
545 0.576542
550 0.534499
555 1.11212
560 0.453962
565 1.34384
570 0.710449
575 1.0932
580 0.715205
585 1.0453
590 1.22985
595 1.09396
600 6.94144
Ex : 268
200 1.45942
205 0.901931
210 1.35981
215 0.505833
220 0.559703
225 0.852778
230 0.975758
235 0.649994
240 0.654455
245 0.550809
250 0.963432
255 0.872013
260 1.31533
265 0.750395
270 1.11497
275 0.850387
280 0.893248
285 1.70927
290 0.565788
295 0.452252
300 0.600355
305 2.05658
310 1.58519
315 1.43172
320 0.845656
325 0.419594
330 0.527369
335 0.548529
340 1.11041
345 0.761453
350 0.411348
355 0.728781
360 0.576863
365 1.23722
370 1.22339
375 0.935805
380 0.918545
385 1.88536
390 1.29127
395 1.13228
400 0.913738
405 1.80916
410 1.69753
415 1.19538
420 1.33847
425 0.768029
430 0.599887
435 0.674423
440 1.07358
445 1.35185
450 1.1562
455 0.635207
460 1.82344
465 0.717339
470 0.688553
475 0.798991
480 1.03159
485 1.18131
490 1.05827
495 1.21394
500 1.52762
505 1.07572
510 0.51349
515 0.369509
520 0.770303
525 1.32161
530 0.83763
535 1.37552
540 1.71956
545 0.707654
550 1.1094
555 0.675373
560 1.07008
565 0.941388
570 0.720375
575 0.870392
580 0.387125
585 1.35622
590 0.440049
595 1.11984
600 0.752989
Ex : 273
200 0.658351
205 0.61115
210 0.562637
215 0.771417
220 0.624403
225 0.857045
230 0.582784
235 0.606088
240 0.850114
245 0.84317
250 0.391682
255 0.60834
260 1.07346
265 0.936796
270 0.362315
275 0.590344
280 0.46451
285 0.807517
290 0.394809
295 0.474336
300 0.427999
305 0.193594
310 0.308973
315 0.643436
320 0.435668
325 0.71496
330 0.808401
335 0.356691
340 0.758552
345 0.981516
350 0.526799
355 1.13961
360 0.751495
365 0.801373
370 1.64687
375 0.602877
380 0.820986
385 1.20808
390 0.66372
395 0.885051
400 1.16103
405 0.735536
410 1.81314
415 1.71102
420 0.836141
425 0.616331
430 0.668446
435 0.834109
440 0.650035
445 0.55967
450 0.611342
455 0.674975
460 0.730842
465 1.03685
470 0.847058
475 0.620597
480 0.600986
485 0.586976
490 0.454386
495 0.606325
500 0.731698
505 0.74236
510 0.792439
515 0.553729
520 1.21927
525 0.682378
530 0.535799
535 0.874229
540 0.952577
545 1.21936
550 0.742319
555 0.688091
560 0.30596
565 0.619751
570 0.710454
575 0.381453
580 0.689435
585 0.738647
590 0.781124
595 1.62819
600 0.185282
Ex : 278
200 0.560391
205 0.977943
210 0.527341
215 0.764594
220 0.337911
225 1.05388
230 0.316862
235 0.27592
240 1.05239
245 0.663071
250 0.753745
255 0.31031
260 0.402881
265 0.433015
270 0.724026
275 0.466597
280 0.481335
285 1.24919
290 0.625609
295 0.289555
300 0.643163
305 0.741065
310 0.588017
315 0.421078
320 0.423809
325 0.78369
330 0.767147
335 0.392056
340 0.465976
345 0.499345
350 0.33061
355 0.456151
360 0.547798
365 0.713605
370 0.778991
375 1.09188
380 0.764332
385 0.587876
390 0.804058
395 1.24824
400 0.864048
405 1.05035
410 1.65227
415 0.828852
420 0.795169
425 0.662976
430 0.665187
435 0.947265
440 0.994799
445 0.866036
450 0.565648
455 1.37493
460 1.03476
465 0.717953
470 0.594427
475 0.599046
480 0.619728
485 0.90595
490 0.41863
495 0.591188
500 0.78272
505 0.437623
510 0.720031
515 0.523037
520 0.927951
525 0.695601
530 0.730327
535 0.357391
540 0.469838
545 1.09414
550 1.46397
555 1.17687
560 0.627965
565 0.388528
570 1.07745
575 0.47486
580 0.417856
585 0.341355
590 0.66247
595 0.191013
600 0.0217365
Ex : 283
200 0.668379
205 0.455296
210 0.587407
215 0.208873
220 0.385832
225 0.465971
230 0.402216
235 0.531057
240 0.602001
245 0.283262
250 0.227924
255 0.878884
260 0.562096
265 0.408709
270 0.316339
275 0.565479
280 0.680131
285 0.32205
290 0.470168
295 0.391669
300 0.28291
305 0.664821
310 0.380225
315 0.296093
320 0.200393
325 0.422595
330 0.299785
335 0.293796
340 0.686217
345 0.513883
350 0.765869
355 1.10665
360 0.436561
365 0.801328
370 0.730568
375 0.431849
380 0.619739
385 0.692683
390 1.21
395 0.6657
400 0.728503
405 0.891732
410 0.435532
415 0.740801
420 0.381014
425 0.789327
430 0.470863
435 0.531071
440 0.859136
445 0.57937
450 0.63344
455 0.483535
460 0.588716
465 0.472838
470 0.35426
475 1.49622
480 0.51187
485 0.70258
490 0.486948
495 0.439893
500 0.481061
505 0.349262
510 0.450795
515 0.542456
520 0.431916
525 0.481765
530 0.306494
535 0.550728
540 0.639459
545 0.305841
550 0.91377
555 0.992815
560 0.974457
565 1.12595
570 0.865747
575 0.988624
580 0.350636
585 0.820387
590 0.535469
595 0.623256
600 0.0709242
Ex : 288
200 0.669118
205 0.708434
210 0.427273
215 0.322142
220 0.305625
225 0.241193
230 0.4014
235 0.786106
240 0.237895
245 0.411899
250 0.565478
255 0.667699
260 0.339805
265 0.302016
270 0.438138
275 0.390706
280 0.886164
285 0.674235
290 0.42002
295 0.29261
300 0.30653
305 0.382779
310 0.265797
315 0.366393
320 0.188192
325 0.537405
330 0.450072
335 0.333742
340 0.285472
345 0.450228
350 0.613886
355 0.432446
360 0.821311
365 0.503914
370 0.813239
375 1.00995
380 0.669357
385 0.599463
390 0.732869
395 0.638928
400 0.374722
405 0.705662
410 0.751047
415 0.895757
420 0.546138
425 0.331501
430 0.530182
435 0.646743
440 0.533456
445 0.348391
450 0.4714
455 0.579126
460 0.568616
465 0.592893
470 0.715499
475 0.554978
480 0.569166
485 0.52083
490 0.432724
495 0.43084
500 0.612627
505 0.653339
510 0.265282
515 0.532917
520 0.678401
525 0.921622
530 0.812736
535 0.444997
540 0.505186
545 0.439794
550 0.430397
555 0.612275
560 0.650728
565 0.497435
570 0.951056
575 0.645003
580 0.359702
585 0.584478
590 0.378344
595 0.222286
600 0.0252953
Ex : 293
200 0.609807
205 0.232728
210 0.353128
215 0.484234
220 0.178881
225 0.183934
230 0.294259
235 0.449583
240 0.167078
245 0.252644
250 0.410557
255 0.176647
260 0.31129
265 0.147247
270 0.257012
275 0.112621
280 0.297052
285 0.393484
290 0.524824
295 0.319054
300 0.333419
305 0.553349
310 0.288634
315 0.403782
320 0.302088
325 0.286571
330 0.434098
335 0.391426
340 0.303943
345 0.56128
350 0.475558
355 0.364591
360 0.54307
365 0.440929
370 0.471393
375 0.690645
380 0.591856
385 0.594296
390 0.739052
395 0.569814
400 0.41493
405 0.547607
410 0.428826
415 0.633336
420 0.532018
425 0.691696
430 0.757035
435 0.58355
440 0.576701
445 0.731555
450 0.53972
455 0.355576
460 0.476293
465 0.477225
470 0.526326
475 0.457867
480 0.486961
485 0.542639
490 0.452832
495 0.416081
500 0.276741
505 0.19053
510 0.380417
515 0.248408
520 0.290431
525 0.274149
530 0.343528
535 0.253474
540 0.326118
545 0.293818
550 0.357414
555 0.350074
560 0.341963
565 0.163057
570 0.248347
575 0.580614
580 0.701323
585 0.859592
590 0.497035
595 0.332154
600 0.0377979
Ex : 298
200 0.483581
205 0.190534
210 0.421668
215 0.23865
220 0.134183
225 0.403388
230 0.280475
235 0.123775
240 0.244037
245 0.220477
250 0.258858
255 0.229568
260 0.239937
265 0.28675
270 0.0982758
275 0.135671
280 0.27848
285 0.16307
290 0.236142
295 0.391326
300 0.330113
305 0.458583
310 0.233536
315 0.320616
320 0.385854
325 0.227614
330 0.393905
335 0.233336
340 0.577852
345 0.364264
350 0.217559
355 0.342338
360 0.320728
365 0.403217
370 0.640723
375 0.370751
380 0.35119
385 0.702581
390 0.495106
395 0.500852
400 0.507441
405 0.636639
410 0.701457
415 0.829027
420 0.394493
425 1.01114
430 0.583868
435 0.364931
440 0.298241
445 0.328527
450 0.431884
455 0.420201
460 0.551974
465 0.427649
470 0.300537
475 0.346594
480 0.417517
485 0.620037
490 0.348377
495 0.603114
500 0.353093
505 0.360436
510 0.237008
515 0.524089
520 0.485504
525 0.390153
530 0.214559
535 0.204668
540 0.276955
545 0.273651
550 0.200986
555 0.265155
560 0.371425
565 0.351163
570 0.458886
575 0.518429
580 0.371222
585 0.432692
590 0.645023
595 0.507568
600 2.20997
Ex : 303
200 0.283418
205 0.158752
210 0.221826
215 0.0891705
220 0.223214
225 0.129187
230 0.294059
235 0.116391
240 0.110421
245 0.345985
250 0.295594
255 0.16688
260 0.263569
265 0.234961
270 0.244273
275 0.223805
280 0.248595
285 0.172206
290 0.20723
295 0.247675
300 0.416556
305 0.147832
310 0.17715
315 0.428394
320 0.196625
325 0.304461
330 0.176327
335 0.5503
340 0.470557
345 0.352339
350 0.398362
355 0.439831
360 0.4337
365 0.347769
370 0.241569
375 0.409643
380 0.403549
385 0.322861
390 0.432555
395 0.479992
400 0.343282
405 0.645359
410 0.375156
415 0.686157
420 0.344292
425 0.400496
430 0.474315
435 0.580725
440 0.283963
445 0.302378
450 0.321431
455 0.339595
460 0.408129
465 0.35318
470 0.306715
475 0.539056
480 0.344465
485 0.374312
490 0.239529
495 0.333196
500 0.226047
505 0.350735
510 0.416409
515 0.247079
520 0.499324
525 0.427726
530 0.278495
535 0.255523
540 0.190778
545 0.329834
550 0.188496
555 0.29089
560 0.11567
565 0.279995
570 0.326686
575 0.323466
580 0.266928
585 0.239306
590 0.328305
595 0.580382
600 1.43167
Ex : 308
200 0.179918
205 0.354107
210 0.191502
215 0.129009
220 0.482035
225 0.137079
230 0.102263
235 0.259786
240 0.175332
245 0.348469
250 0.236897
255 0.172925
260 0.113092
265 0.143095
270 0.301909
275 0.56657
280 0.298698
285 0.113176
290 0.103944
295 0.141346
300 0.479789
305 0.622246
310 0.171002
315 0.109155
320 0.156865
325 0.333455
330 0.293647
335 0.339698
340 0.149854
345 0.375025
350 0.22504
355 0.334707
360 0.458271
365 0.422549
370 0.354355
375 0.517676
380 0.374726
385 0.309751
390 0.419827
395 0.74511
400 0.437866
405 0.429102
410 0.693846
415 0.353496
420 0.549694
425 0.7833
430 0.568416
435 0.448007
440 0.440655
445 0.363843
450 0.328243
455 0.65742
460 0.449744
465 0.409523
470 0.457684
475 0.333475
480 0.43812
485 0.353489
490 0.344752
495 0.371097
500 0.274846
505 0.316814
510 0.167038
515 0.15837
520 0.21162
525 0.197059
530 0.258684
535 0.129646
540 0.417075
545 0.217271
550 0.160709
555 0.185948
560 0.300404
565 0.110582
570 0.30482
575 0.507718
580 0.180971
585 0.2011
590 0.130266
595 0.237836
600 0.271092
Ex : 313
200 0.166915
205 0.094878
210 0.145572
215 0.2005
220 0.184309
225 0.105602
230 0.0591528
235 0.0365824
240 0.114938
245 0.0976839
250 0.194207
255 0.182448
260 0.0891771
265 0.068405
270 0.214086
275 0.21354
280 0.222035
285 0.175025
290 0.281021
295 0.199639
300 0.271727
305 0.378358
310 0.53171
315 0.308056
320 0.210954
325 0.309662
330 0.27201
335 0.312842
340 0.388413
345 0.39895
350 0.351318
355 0.366685
360 0.819487
365 0.583717
370 0.734145
375 0.81096
380 0.916023
385 1.06787
390 1.09388
395 1.03086
400 1.06284
405 0.997806
410 1.22197
415 1.12704
420 1.05543
425 1.0814
430 0.82484
435 0.803146
440 0.699674
445 0.705082
450 0.74121
455 0.895517
460 0.690213
465 0.725211
470 0.678115
475 0.735559
480 0.65582
485 0.61929
490 0.419315
495 0.434564
500 0.31211
505 0.262921
510 0.309435
515 0.3391
520 0.357718
525 0.395777
530 0.400113
535 0.320781
540 0.419395
545 0.293078
550 0.155144
555 0.346214
560 0.334889
565 0.238865
570 0.240073
575 0.120885
580 0.12286
585 0.26592
590 0.273638
595 0.0820763
600 0.829899
Ex : 318
200 0.0608162
205 0.25404
210 0.203236
215 0.23485
220 0.154814
225 0.188041
230 0.0590783
235 0.113768
240 0.204462
245 0.104048
250 0.155232
255 0.0565062
260 0.0970538
265 0.0959742
270 0.0849492
275 0.145182
280 0.145545
285 0.0877349
290 0.145415
295 0.175841
300 0.085116
305 0.13537
310 0.623914
315 2.07258
320 1.16492
325 0.548987
330 0.603619
335 0.977311
340 1.05608
345 1.49618
350 2.27798
355 3.4319
360 4.35254
365 5.14941
370 6.51657
375 7.97081
380 8.82292
385 10.0196
390 10.6271
395 12.081
400 12.0234
405 12.5648
410 12.6342
415 12.5334
420 12.0877
425 11.6217
430 11.6759
435 10.2845
440 9.73073
445 9.65267
450 9.13482
455 8.47801
460 8.04317
465 7.32196
470 6.70957
475 6.38096
480 6.0029
485 4.81991
490 4.49175
495 3.81902
500 3.04368
505 2.91462
510 2.29602
515 2.40032
520 1.82162
525 1.69473
530 1.29884
535 1.28554
540 0.932549
545 0.794381
550 0.561127
555 0.664209
560 0.395016
565 0.576579
570 0.293228
575 0.362802
580 0.301295
585 0.202158
590 0.1312
595 0.203222
600 3.00037
Ex : 323
200 0.114964
205 0.0608773
210 0.108671
215 0.172759
220 0.117123
225 0.138661
230 0.0698597
235 0.0845899
240 0.0746762
245 0.28746
250 0.129465
255 0.293477
260 0.13595
265 0.13785
270 0.151977
275 0.32318
280 0.282372
285 0.150547
290 0.24186
295 0.206279
300 0.204834
305 0.113743
310 0.221537
315 14.1342
320 59.1223
325 23.7508
330 4.45191
335 3.31819
340 4.5407
345 6.15629
350 9.04251
355 12.6439
360 15.9468
365 18.6326
370 21.8155
375 25.328
380 28.2977
385 32.0202
390 35.4453
395 37.1429
400 38.3144
405 39.0646
410 39.4678
415 39.713
420 38.4994
425 36.0087
430 35.5292
435 33.1581
440 32.4731
445 31.1098
450 28.351
455 26.0661
460 25.2191
465 22.8399
470 21.146
475 20.1064
480 18.1781
485 16.342
490 13.9999
495 12.6849
500 11.5693
505 10.2765
510 8.68429
515 7.43411
520 6.53217
525 5.63264
530 4.46671
535 3.72023
540 3.41473
545 2.77985
550 2.32174
555 1.84745
560 1.41705
565 1.18601
570 1.19325
575 0.787196
580 0.46203
585 0.536827
590 0.329277
595 0.21932
600 0.0249578
Ex : 328
200 0.164696
205 0.0807875
210 0.100047
215 0.181242
220 0.0963735
225 0.129089
230 0.150809
235 0.15222
240 0.086045
245 0.133822
250 0.136109
255 0.0965879
260 0.114122
265 0.149311
270 0.201049
275 0.0730555
280 0.0942472
285 0.106694
290 0.0759845
295 0.129923
300 0.121894
305 0.115795
310 0.187755
315 3.16246
320 124.143
325 289.999
330 83.7331
335 13.1993
340 6.33278
345 7.0008
350 8.41578
355 13.0713
360 17.2926
365 19.4509
370 21.7898
375 24.319
380 27.131
385 31.3698
390 33.4368
395 35.8897
400 36.3877
405 37.0651
410 38.0628
415 37.0312
420 36.3318
425 34.3017
430 33.4829
435 32.1828
440 31.2811
445 28.1312
450 26.6555
455 24.9079
460 22.7141
465 20.9291
470 19.6263
475 18.7395
480 16.6704
485 14.8364
490 13.3529
495 12.2722
500 10.534
505 9.33617
510 8.45402
515 6.95052
520 6.50512
525 5.30269
530 4.37993
535 4.24434
540 2.9137
545 2.84011
550 2.40547
555 2.05088
560 1.546
565 1.64977
570 1.24075
575 0.80293
580 0.592775
585 0.392219
590 0.341614
595 0.251093
600 0.0285735
Ex : 333
200 0.149372
205 0.190861
210 0.156674
215 0.145099
220 0.0442056
225 0.11877
230 0.0883014
235 0.185782
240 0.18263
245 0.152091
250 0.171625
255 0.110648
260 0.0605551
265 0.144151
270 0.13721
275 0.172165
280 0.121423
285 0.223171
290 0.208008
295 0.0961263
300 0.0952981
305 0.160849
310 0.213569
315 0.287508
320 16.2286
325 318.21
330 520.423
335 133.51
340 18.8685
345 6.69537
350 5.56763
355 6.03897
360 9.39217
365 14.1257
370 14.8244
375 14.1898
380 15.4558
385 18.1307
390 20.3927
395 21.1944
400 20.7078
405 21.6167
410 22.5291
415 22.0701
420 21.2721
425 20.0534
430 18.9122
435 18.3104
440 16.7087
445 15.9793
450 14.6372
455 13.6311
460 12.6373
465 11.6323
470 10.4517
475 9.60735
480 9.0686
485 8.32416
490 7.11916
495 6.62443
500 5.96911
505 5.31621
510 4.25919
515 3.74754
520 3.24638
525 2.79161
530 2.33319
535 2.13969
540 2.0563
545 1.44669
550 1.31478
555 1.16967
560 1.00897
565 0.858235
570 0.585432
575 0.581039
580 0.660258
585 0.452538
590 0.441108
595 0.306779
600 0.0349103
Ex : 338
200 0.141933
205 0.117701
210 0.209389
215 0.173509
220 0.162691
225 0.113989
230 0.0865187
235 0.110191
240 0.179878
245 0.135059
250 0.0775672
255 0.133292
260 0.195876
265 0.134299
270 0.135716
275 0.102739
280 0.0830059
285 0.119324
290 0.10752
295 0.115457
300 0.173642
305 0.128112
310 0.0844518
315 0.328525
320 0.35612
325 28.6841
330 453.313
335 674.719
340 166.188
345 22.2352
350 6.13529
355 4.16024
360 3.4324
365 5.25737
370 9.92677
375 10.1293
380 8.92432
385 10.1769
390 12.4462
395 12.661
400 12.1769
405 12.4901
410 13.3107
415 14.5481
420 13.4326
425 12.1359
430 11.649
435 10.8793
440 10.8835
445 9.9517
450 9.0731
455 8.12072
460 7.62794
465 7.62541
470 6.50681
475 6.1699
480 5.7887
485 4.96077
490 4.28751
495 3.84314
500 3.7277
505 3.40738
510 2.93701
515 2.71391
520 2.41866
525 2.04354
530 1.61261
535 1.53904
540 1.16105
545 1.03763
550 0.915772
555 0.949521
560 0.914133
565 0.789421
570 0.622872
575 0.425456
580 0.488237
585 0.413576
590 0.420566
595 0.304041
600 0.254532
Ex : 343
200 0.113737
205 0.118576
210 0.17213
215 0.129557
220 0.134183
225 0.0683109
230 0.104576
235 0.159052
240 0.0989371
245 0.105877
250 0.186004
255 0.201268
260 0.156851
265 0.111119
270 0.0917497
275 0.0776033
280 0.133729
285 0.130585
290 0.194386
295 0.103202
300 0.199424
305 0.144479
310 0.230892
315 0.219064
320 0.256531
325 0.529691
330 32.1969
335 520.137
340 761.646
345 183.242
350 23.6877
355 5.13609
360 2.98745
365 2.47014
370 3.17445
375 7.19021
380 8.90094
385 9.22816
390 10.2684
395 10.2832
400 9.94159
405 10.408
410 11.7505
415 12.9068
420 12.1143
425 10.57
430 9.75662
435 9.91415
440 9.38073
445 8.57323
450 7.95966
455 7.12014
460 6.8532
465 6.24769
470 6.0811
475 5.67107
480 4.93743
485 4.48609
490 4.17835
495 3.74998
500 3.16362
505 3.07548
510 2.62712
515 2.28808
520 2.17996
525 1.75135
530 1.59694
535 1.41041
540 1.36043
545 1.16698
550 1.21111
555 0.978747
560 0.808572
565 0.66971
570 0.612134
575 0.514838
580 0.494202
585 0.522744
590 0.315936
595 0.355546
600 0.0404598
Ex : 348
200 0.1613
205 0.0985731
210 0.058676
215 0.153325
220 0.0676721
225 0.0881451
230 0.0922898
235 0.0908646
240 0.0612244
245 0.0820266
250 0.0891607
255 0.106711
260 0.120545
265 0.0578165
270 0.113156
275 0.0844678
280 0.117454
285 0.193735
290 0.117944
295 0.137176
300 0.133127
305 0.124233
310 0.108081
315 0.107452
320 0.164552
325 0.251854
330 0.545491
335 33.7698
340 523.268
345 799.693
350 204.841
355 25.914
360 5.38153
365 2.84461
370 2.13805
375 2.59002
380 6.54913
385 11.8473
390 13.4212
395 12.9736
400 11.1983
405 11.9462
410 13.4563
415 15.0198
420 13.8987
425 12.0258
430 11.2718
435 11.253
440 10.7621
445 10.8301
450 9.50821
455 8.23826
460 7.59887
465 6.8828
470 6.35723
475 5.9482
480 5.63738
485 5.30912
490 4.2164
495 3.7761
500 3.63764
505 3.34503
510 3.06707
515 2.49715
520 2.50819
525 1.91987
530 1.66407
535 1.57093
540 1.43651
545 1.3477
550 1.18261
555 1.19495
560 0.927174
565 0.842744
570 0.72729
575 0.652173
580 0.512666
585 0.332123
590 0.272596
595 0.465928
600 0.895461
Ex : 353
200 0.0810335
205 0.0727389
210 0.10814
215 0.126309
220 0.0788776
225 0.0804967
230 0.156861
235 0.132514
240 0.0949593
245 0.110747
250 0.158742
255 0.0560617
260 0.151601
265 0.114067
270 0.110642
275 0.127965
280 0.14078
285 0.0919113
290 0.10816
295 0.145178
300 0.131263
305 0.133473
310 0.104874
315 0.127914
320 0.166276
325 0.242846
330 0.284426
335 0.844569
340 34.9815
345 553.762
350 807.323
355 198.535
360 24.9343
365 4.93794
370 2.4773
375 2.04755
380 3.36568
385 8.58769
390 15.4706
395 16.0804
400 13.7474
405 13.0884
410 14.6508
415 16.2681
420 16.0667
425 14.1811
430 12.6353
435 12.1479
440 11.7635
445 11.1442
450 10.3406
455 9.36907
460 8.05183
465 7.32042
470 6.94773
475 6.47093
480 5.91566
485 5.47016
490 4.92232
495 4.54666
500 4.01489
505 3.46228
510 3.14175
515 3.20751
520 2.38416
525 2.20111
530 1.82965
535 1.70023
540 1.55076
545 1.27591
550 1.10952
555 0.982051
560 0.855407
565 0.838235
570 0.806596
575 0.616223
580 0.416539
585 0.391369
590 0.366274
595 0.344233
600 0.0391724
Ex : 358
200 0.134137
205 0.0698349
210 0.0992733
215 0.0644015
220 0.0799831
225 0.0464596
230 0.0515803
235 0.0869276
240 0.107183
245 0.109355
250 0.176293
255 0.178094
260 0.0688968
265 0.064674
270 0.0890871
275 0.126636
280 0.0820304
285 0.166852
290 0.112105
295 0.139471
300 0.122066
305 0.149575
310 0.183517
315 0.117801
320 0.0945048
325 0.201801
330 0.249011
335 0.495795
340 0.900756
345 33.2869
350 533.645
355 824.494
360 205.435
365 25.8685
370 4.87772
375 2.53814
380 3.1909
385 5.79632
390 11.0728
395 15.9845
400 15.2835
405 13.4577
410 14.3891
415 15.4362
420 15.0334
425 12.8366
430 12.0828
435 11.396
440 11.3659
445 10.8232
450 9.72331
455 8.72378
460 8.17863
465 7.63693
470 7.39321
475 6.78142
480 6.36916
485 5.67518
490 5.28221
495 4.70696
500 4.21176
505 4.27605
510 3.50597
515 3.04053
520 2.69911
525 2.49763
530 2.116
535 2.03168
540 1.67742
545 1.67671
550 1.35781
555 1.08319
560 1.01544
565 0.761271
570 0.689645
575 0.539961
580 0.580495
585 0.458318
590 0.274385
595 0.228822
600 0.238162
Ex : 363
200 0.0632701
205 0.118754
210 0.119529
215 0.0911421
220 0.0587042
225 0.0682486
230 0.131047
235 0.0673831
240 0.148928
245 0.114285
250 0.0695579
255 0.106324
260 0.0988701
265 0.0808277
270 0.073829
275 0.0562357
280 0.0554217
285 0.0929766
290 0.0811182
295 0.114646
300 0.118132
305 0.0931561
310 0.154486
315 0.140003
320 0.210705
325 0.184384
330 0.198394
335 0.292451
340 0.388224
345 0.840181
350 31.278
355 529.724
360 830.491
365 215.722
370 26.8445
375 5.32405
380 4.77104
385 7.85537
390 11.0567
395 12.9966
400 15.0714
405 16.462
410 17.6036
415 17.5874
420 15.9274
425 14.0408
430 12.5076
435 12.6936
440 12.9447
445 12.2133
450 10.8571
455 9.35704
460 8.38234
465 7.93952
470 7.7952
475 7.21259
480 6.5643
485 5.98442
490 5.69934
495 4.93812
500 4.48461
505 4.08122
510 3.71222
515 3.36346
520 2.90045
525 2.71186
530 2.34872
535 2.20242
540 1.9158
545 1.46886
550 1.35495
555 1.27656
560 1.06917
565 0.868238
570 0.889001
575 0.780507
580 0.476783
585 0.357109
590 0.294876
595 0.298404
600 0.0560021
Ex : 368
200 0.0690877
205 0.0774046
210 0.0961332
215 0.109516
220 0.0656525
225 0.0827203
230 0.156899
235 0.0904829
240 0.0742088
245 0.0842021
250 0.0743152
255 0.0992209
260 0.0744154
265 0.105377
270 0.0798561
275 0.0842278
280 0.0523454
285 0.0832448
290 0.0384838
295 0.0987194
300 0.0682648
305 0.0776488
310 0.0722277
315 0.0925212
320 0.184449
325 0.196865
330 0.163272
335 0.20676
340 0.289468
345 0.444452
350 0.816619
355 26.6604
360 512.925
365 854.653
370 227.481
375 28.685
380 7.22085
385 9.64822
390 14.6377
395 15.7646
400 14.7794
405 17.723
410 22.5682
415 23.3203
420 21.6878
425 17.6573
430 15.6665
435 15.3892
440 15.656
445 14.7905
450 13.0314
455 11.3263
460 10.5855
465 9.36378
470 9.23736
475 8.75031
480 8.14204
485 6.83233
490 6.53357
495 5.61683
500 5.28023
505 4.72642
510 4.32595
515 3.63959
520 3.30976
525 2.72403
530 2.58665
535 2.291
540 2.02298
545 1.85671
550 1.55044
555 1.48245
560 1.11365
565 0.858935
570 0.756655
575 0.593657
580 0.505427
585 0.375835
590 0.338137
595 0.363541
600 0.136173
Ex : 373
200 0.0845849
205 0.121489
210 0.0809897
215 0.0762433
220 0.110134
225 0.171234
230 0.0659403
235 0.14246
240 0.0880231
245 0.129083
250 0.090441
255 0.0856005
260 0.118433
265 0.0948871
270 0.0739386
275 0.0999559
280 0.0677593
285 0.109224
290 0.0864578
295 0.0400924
300 0.0899067
305 0.119441
310 0.101491
315 0.0738256
320 0.17242
325 0.15695
330 0.177602
335 0.168143
340 0.170159
345 0.278547
350 0.38525
355 0.92699
360 31.2334
365 522.579
370 854.197
375 226.825
380 29.5961
385 10.4025
390 14.6516
395 17.1282
400 15.6274
405 14.9015
410 18.377
415 24.7475
420 23.9604
425 19.1819
430 15.5898
435 14.9448
440 15.1571
445 14.7538
450 12.9425
455 11.3716
460 10.1631
465 9.36996
470 9.25754
475 8.46481
480 7.78814
485 6.86488
490 6.42302
495 5.68847
500 4.86209
505 4.8494
510 4.41179
515 3.94349
520 3.36649
525 3.02914
530 2.50321
535 2.30271
540 2.10413
545 1.73026
550 1.60547
555 1.52709
560 1.16228
565 0.998452
570 0.811327
575 0.724864
580 0.505612
585 0.462179
590 0.343948
595 0.271981
600 0.104158
Ex : 378
200 0.0368457
205 0.158587
210 0.116014
215 0.101381
220 0.10568
225 0.0956598
230 0.0796634
235 0.0948839
240 0.101458
245 0.0768383
250 0.0702014
255 0.0783962
260 0.0920574
265 0.0935683
270 0.100717
275 0.0788715
280 0.0471578
285 0.048953
290 0.0800834
295 0.0759882
300 0.0982324
305 0.0795239
310 0.0733665
315 0.106321
320 0.142955
325 0.108489
330 0.137001
335 0.132719
340 0.145695
345 0.211702
350 0.225393
355 0.365564
360 0.767286
365 29.4077
370 531.847
375 876.281
380 234.569
385 32.7764
390 13.2651
395 12.9152
400 11.847
405 11.0734
410 13.0076
415 16.7155
420 18.5164
425 16.1847
430 13.4249
435 12.3118
440 11.8184
445 11.2962
450 10.3572
455 9.42852
460 8.6682
465 8.12895
470 7.62157
475 7.54193
480 6.98059
485 6.2985
490 5.98858
495 5.22356
500 5.04764
505 4.39726
510 4.18832
515 3.67091
520 3.05902
525 2.87459
530 2.56451
535 2.34412
540 2.10522
545 1.86483
550 1.49373
555 1.34407
560 1.07643
565 1.10444
570 0.838111
575 0.585778
580 0.569974
585 0.536985
590 0.3409
595 0.22221
600 0.0252866
Ex : 383
200 0.0982252
205 0.113348
210 0.0562059
215 0.0519646
220 0.0555829
225 0.055554
230 0.067119
235 0.0943862
240 0.0816371
245 0.176381
250 0.0850201
255 0.108412
260 0.0871674
265 0.133356
270 0.131929
275 0.0952796
280 0.0711438
285 0.0883562
290 0.0666511
295 0.0695348
300 0.0711297
305 0.100043
310 0.140101
315 0.0883715
320 0.0979631
325 0.103469
330 0.137855
335 0.17589
340 0.121554
345 0.0954289
350 0.164964
355 0.294694
360 0.414044
365 0.882718
370 27.2429
375 531.641
380 921.797
385 253.686
390 38.9063
395 14.5424
400 10.8807
405 11.3914
410 13.2501
415 14.8201
420 15.1742
425 14.9346
430 14.5512
435 13.5456
440 12.7462
445 11.7128
450 10.3315
455 9.41757
460 8.50431
465 8.449
470 7.755
475 7.68683
480 6.7581
485 6.16887
490 5.8006
495 5.27954
500 4.78363
505 4.53604
510 4.16817
515 3.65549
520 3.4227
525 2.90542
530 2.44948
535 2.22903
540 1.85917
545 2.01799
550 1.68897
555 1.42447
560 1.16161
565 0.998305
570 0.816797
575 0.679202
580 0.508201
585 0.370025
590 0.327748
595 0.231923
600 0.290515
Ex : 388
200 0.0304069
205 0.143707
210 0.0901768
215 0.073769
220 0.111427
225 0.0688221
230 0.100931
235 0.0652681
240 0.0776559
245 0.0784956
250 0.0570349
255 0.0692247
260 0.0517171
265 0.0692947
270 0.101213
275 0.0869547
280 0.133037
285 0.0982512
290 0.0682768
295 0.0976966
300 0.0636087
305 0.119008
310 0.0765028
315 0.108383
320 0.0458587
325 0.0901626
330 0.144715
335 0.103021
340 0.114635
345 0.142588
350 0.217106
355 0.238422
360 0.319532
365 0.443002
370 0.900543
375 30.4192
380 553.992
385 922.932
390 257.466
395 42.7515
400 16.4342
405 13.9517
410 16.8969
415 18.464
420 17.5809
425 15.4799
430 15.5272
435 17.0174
440 16.0945
445 14.9185
450 12.6888
455 10.7895
460 10.0613
465 9.36515
470 9.02387
475 8.27776
480 7.56057
485 6.81833
490 6.16885
495 5.45273
500 5.40539
505 4.95165
510 4.40635
515 3.87739
520 3.4653
525 2.97392
530 2.6327
535 2.36654
540 2.15197
545 1.95471
550 1.69008
555 1.42568
560 1.30267
565 1.00973
570 0.771347
575 0.658552
580 0.588978
585 0.408659
590 0.271424
595 0.244565
600 0.327725
Ex : 393
200 0.0308705
205 0.0347898
210 0.0653934
215 0.0786332
220 0.0384959
225 0.0719848
230 0.0378444
235 0.0876059
240 0.0892987
245 0.0402285
250 0.0635408
255 0.0888972
260 0.0410498
265 0.105137
270 0.0595323
275 0.0776586
280 0.0760829
285 0.0992812
290 0.0775041
295 0.0810559
300 0.0653156
305 0.0902554
310 0.104893
315 0.0486391
320 0.0589786
325 0.109541
330 0.0957017
335 0.205951
340 0.17162
345 0.133879
350 0.151486
355 0.162806
360 0.218763
365 0.288045
370 0.525063
375 1.03659
380 26.537
385 549.346
390 948.64
395 269.578
400 43.8888
405 16.6628
410 16.0959
415 19.4401
420 19.4833
425 16.2921
430 13.7749
435 14.313
440 16.8756
445 16.0304
450 13.7287
455 11.1156
460 9.61197
465 9.11958
470 8.52357
475 8.21225
480 7.42971
485 6.76227
490 6.2472
495 5.63622
500 5.25356
505 4.8531
510 4.10629
515 3.61976
520 3.47123
525 3.10348
530 2.70999
535 2.55685
540 2.06436
545 1.88447
550 1.59335
555 1.49829
560 1.31413
565 1.0212
570 0.780382
575 0.681077
580 0.57012
585 0.422241
590 0.289146
595 0.251593
600 0.1662
Ex : 398
200 0.0817067
205 0.0364036
210 0.0985872
215 0.0765424
220 0.0535905
225 0.0878818
230 0.0529544
235 0.0675972
240 0.0893344
245 0.0619669
250 0.0902595
255 0.0596286
260 0.0611837
265 0.0456752
270 0.0604088
275 0.0941811
280 0.0783484
285 0.0961189
290 0.0532489
295 0.0582738
300 0.0649456
305 0.0878161
310 0.0603636
315 0.0715455
320 0.0761769
325 0.0843369
330 0.084461
335 0.0923567
340 0.104765
345 0.162604
350 0.153155
355 0.193042
360 0.208673
365 0.187254
370 0.242678
375 0.478343
380 1.25831
385 29.5156
390 566.943
395 973.61
400 265.397
405 38.0475
410 12.688
415 12.21
420 12.8435
425 11.0223
430 8.8404
435 8.56689
440 9.90567
445 11.9654
450 11.2092
455 9.06654
460 8.27635
465 6.79671
470 6.6194
475 6.42056
480 5.9587
485 5.74665
490 5.12315
495 5.09793
500 4.57869
505 4.01459
510 3.94991
515 3.63259
520 2.98013
525 2.67124
530 2.52986
535 2.26195
540 1.91799
545 1.82045
550 1.54953
555 1.42388
560 1.21851
565 0.980869
570 0.790299
575 0.684746
580 0.583818
585 0.381974
590 0.31788
595 0.274786
600 0.323657
Ex : 403
200 0.0635979
205 0.115713
210 0.0802255
215 0.0535308
220 0.0383343
225 0.0734351
230 0.0672608
235 0.0617228
240 0.0638205
245 0.0754097
250 0.0582274
255 0.0307474
260 0.0341054
265 0.0283807
270 0.0739027
275 0.0486257
280 0.0464081
285 0.041155
290 0.0638891
295 0.0841993
300 0.0693872
305 0.065906
310 0.0554892
315 0.0819554
320 0.0659543
325 0.0594892
330 0.116682
335 0.121458
340 0.0887755
345 0.0900179
350 0.0930665
355 0.122306
360 0.14148
365 0.191332
370 0.247708
375 0.337407
380 0.554108
385 1.37334
390 32.5369
395 579.863
400 965.397
405 262.695
410 34.8685
415 9.49605
420 6.901
425 6.02726
430 5.36485
435 5.36445
440 5.97723
445 6.4896
450 8.23887
455 8.4363
460 6.60022
465 5.80248
470 5.74035
475 5.35428
480 5.14986
485 4.72621
490 4.57032
495 4.45964
500 4.18321
505 3.76149
510 3.35957
515 3.1761
520 2.97674
525 2.55148
530 2.4066
535 2.02466
540 1.94275
545 1.71855
550 1.51993
555 1.32854
560 1.11582
565 1.01384
570 0.762959
575 0.658999
580 0.576969
585 0.329091
590 0.258982
595 0.233048
600 0.0813367
Ex : 408
200 0.0762215
205 0.0821436
210 0.0486959
215 0.0734542
220 0.0961651
225 0.0714421
230 0.0836818
235 0.0741455
240 0.100318
245 0.0540419
250 0.0593191
255 0.0357216
260 0.0375833
265 0.0582121
270 0.0808423
275 0.0479864
280 0.0483298
285 0.0767061
290 0.0911378
295 0.0589796
300 0.0605966
305 0.104435
310 0.0786347
315 0.0835105
320 0.0794169
325 0.115568
330 0.0983771
335 0.123916
340 0.109041
345 0.11123
350 0.0954864
355 0.100952
360 0.122545
365 0.125037
370 0.188134
375 0.241187
380 0.337874
385 0.603606
390 1.19261
395 30.618
400 592.367
405 982.648
410 260.042
415 34.8378
420 8.94031
425 5.74059
430 5.23804
435 5.14755
440 5.45254
445 5.65209
450 5.81537
455 6.98276
460 7.86098
465 6.93707
470 6.30833
475 5.85886
480 5.06189
485 4.7308
490 4.43282
495 4.28404
500 4.03636
505 3.87886
510 3.45598
515 3.2582
520 2.74528
525 2.51726
530 2.44517
535 2.07475
540 2.01088
545 1.79631
550 1.54156
555 1.34987
560 1.15504
565 1.01743
570 0.815768
575 0.642088
580 0.493783
585 0.344469
590 0.354981
595 0.236793
600 0.221183
Ex : 413
200 0.0848929
205 0.0971368
210 0.0471301
215 0.123557
220 0.0471589
225 0.099645
230 0.0652503
235 0.0714379
240 0.0930943
245 0.093469
250 0.0725769
255 0.0514019
260 0.064609
265 0.0908829
270 0.0648756
275 0.154467
280 0.0514111
285 0.103157
290 0.0625675
295 0.08262
300 0.0887539
305 0.0713912
310 0.0385507
315 0.0804787
320 0.0625149
325 0.0916856
330 0.0805364
335 0.106616
340 0.0970089
345 0.0969845
350 0.111021
355 0.1307
360 0.138353
365 0.18876
370 0.160967
375 0.129111
380 0.229731
385 0.352377
390 0.590513
395 1.00344
400 33.9996
405 608.534
410 984.101
415 255.055
420 33.966
425 8.04292
430 4.7248
435 4.97379
440 5.24624
445 4.98919
450 4.98845
455 4.6834
460 5.45086
465 6.80833
470 6.62082
475 5.661
480 5.21766
485 4.24899
490 4.09803
495 3.92467
500 3.6487
505 3.53482
510 3.34163
515 3.10137
520 2.89425
525 2.45508
530 2.18945
535 1.98596
540 1.94051
545 1.72606
550 1.55229
555 1.2334
560 1.1125
565 1.00714
570 0.803776
575 0.724287
580 0.51521
585 0.344611
590 0.309288
595 0.31338
600 0.0356614
Ex : 418
200 0.0649074
205 0.0752087
210 0.0685102
215 0.0888245
220 0.0407053
225 0.0532028
230 0.107339
235 0.0677788
240 0.0878816
245 0.0642309
250 0.0429454
255 0.0433749
260 0.0825488
265 0.0742139
270 0.0935545
275 0.0697171
280 0.0828903
285 0.096044
290 0.0683621
295 0.0387424
300 0.0516692
305 0.0991792
310 0.0645733
315 0.0510707
320 0.0653754
325 0.0571194
330 0.0404376
335 0.108844
340 0.0711066
345 0.103072
350 0.13127
355 0.101772
360 0.141854
365 0.0856829
370 0.136291
375 0.151951
380 0.131611
385 0.222966
390 0.386452
395 0.603361
400 0.992552
405 32.7403
410 609.678
415 1000.96
420 267.421
425 34.0214
430 6.69919
435 3.59729
440 3.62953
445 3.7484
450 3.40136
455 3.06715
460 3.119
465 3.72204
470 5.69535
475 5.62271
480 4.69391
485 4.42683
490 3.78399
495 3.50676
500 2.87331
505 3.06882
510 2.91119
515 2.56813
520 2.25294
525 2.25047
530 2.15296
535 1.90062
540 1.63535
545 1.41194
550 1.33539
555 1.18698
560 1.09534
565 0.99688
570 0.802906
575 0.627516
580 0.436623
585 0.371834
590 0.322734
595 0.262199
600 0.0298373
Ex : 423
200 0.0686381
205 0.0867677
210 0.060022
215 0.0331909
220 0.0340383
225 0.0625689
230 0.0573731
235 0.0549189
240 0.0696244
245 0.0772021
250 0.0570909
255 0.0618026
260 0.0624857
265 0.0504674
270 0.0571562
275 0.0666994
280 0.0700544
285 0.0898265
290 0.0363257
295 0.0457113
300 0.0857595
305 0.0493726
310 0.0689088
315 0.0735686
320 0.0939138
325 0.0965137
330 0.0458789
335 0.103511
340 0.0885053
345 0.0822684
350 0.0687201
355 0.140314
360 0.083343
365 0.110205
370 0.0875066
375 0.105471
380 0.155267
385 0.268297
390 0.330564
395 0.328147
400 0.548704
405 1.10816
410 32.7892
415 627.278
420 992.667
425 251.104
430 31.1812
435 5.63368
440 2.38908
445 2.53954
450 2.47388
455 2.07094
460 1.94695
465 2.08734
470 2.58659
475 4.38513
480 5.0276
485 3.9784
490 3.53939
495 3.18517
500 2.64888
505 2.53487
510 2.49015
515 2.2927
520 2.16048
525 2.02257
530 1.84741
535 1.62222
540 1.48191
545 1.35174
550 1.20666
555 1.11955
560 0.907864
565 0.787688
570 0.811849
575 0.573862
580 0.445105
585 0.362951
590 0.25491
595 0.237027
600 0.373875
Ex : 428
200 0.114853
205 0.0675443
210 0.091774
215 0.0608968
220 0.0463526
225 0.052353
230 0.0945073
235 0.0568764
240 0.0635457
245 0.0746838
250 0.080829
255 0.101765
260 0.0610579
265 0.07248
270 0.069402
275 0.0494859
280 0.0471677
285 0.0704048
290 0.107497
295 0.0945731
300 0.0531645
305 0.0460647
310 0.0777901
315 0.0796834
320 0.0930499
325 0.0653327
330 0.0454451
335 0.0673637
340 0.0710166
345 0.089164
350 0.130376
355 0.0880809
360 0.0899136
365 0.0981886
370 0.15637
375 0.144091
380 0.125331
385 0.171197
390 0.133367
395 0.18833
400 0.372372
405 0.554348
410 1.24407
415 36.6233
420 626.733
425 1000.32
430 260.351
435 31.7361
440 5.09564
445 2.01332
450 1.89213
455 1.75592
460 1.67856
465 1.66128
470 1.82978
475 2.00387
480 3.20302
485 4.62991
490 3.89908
495 3.21315
500 2.85055
505 2.44653
510 2.17707
515 2.07428
520 1.95138
525 1.83812
530 1.74704
535 1.77785
540 1.49714
545 1.25761
550 1.18161
555 1.22176
560 0.9701
565 0.88096
570 0.724045
575 0.616472
580 0.428808
585 0.364539
590 0.311207
595 0.254922
600 0.0906326
Ex : 433
200 0.0918513
205 0.0775446
210 0.0876599
215 0.0389653
220 0.0274276
225 0.0963532
230 0.0851738
235 0.0574331
240 0.0829485
245 0.0508181
250 0.0590306
255 0.0903392
260 0.072856
265 0.0458821
270 0.0598248
275 0.0763823
280 0.119879
285 0.104402
290 0.107039
295 0.0612993
300 0.0749695
305 0.0691932
310 0.0671066
315 0.0916793
320 0.0641399
325 0.0574788
330 0.0822063
335 0.0666051
340 0.0619547
345 0.0584192
350 0.0629883
355 0.0647247
360 0.0678998
365 0.0975259
370 0.121945
375 0.137079
380 0.107943
385 0.121226
390 0.177466
395 0.156819
400 0.292791
405 0.432368
410 0.674249
415 1.1724
420 38.1979
425 675.388
430 1034.06
435 257.737
440 31.5603
445 5.05248
450 1.97586
455 1.812
460 1.80242
465 1.71672
470 1.68102
475 1.60722
480 1.84875
485 2.61997
490 4.32677
495 3.87334
500 3.01783
505 2.78427
510 2.33977
515 1.98956
520 1.77683
525 1.68245
530 1.67601
535 1.54302
540 1.33349
545 1.26544
550 1.14499
555 1.02848
560 0.897179
565 0.837235
570 0.568307
575 0.515489
580 0.437309
585 0.315998
590 0.335642
595 0.251074
600 0.0285713
Ex : 438
200 0.074232
205 0.0678553
210 0.118639
215 0.0623565
220 0.0630719
225 0.0377749
230 0.0358113
235 0.0362173
240 0.0444034
245 0.0743638
250 0.0642939
255 0.0750953
260 0.0562517
265 0.0922819
270 0.111266
275 0.0512965
280 0.0484474
285 0.0748382
290 0.108511
295 0.058681
300 0.0546892
305 0.0549322
310 0.0700149
315 0.0895021
320 0.0479243
325 0.0844118
330 0.0866083
335 0.10679
340 0.0887962
345 0.0677962
350 0.0747672
355 0.124299
360 0.113084
365 0.142569
370 0.138179
375 0.146491
380 0.146558
385 0.0734263
390 0.0935919
395 0.156629
400 0.185066
405 0.190634
410 0.389151
415 0.612819
420 1.15979
425 38.8184
430 673.826
435 1082.57
440 271.656
445 33.1404
450 5.23993
455 1.94907
460 1.58798
465 1.93676
470 1.62358
475 1.59563
480 1.70471
485 1.82991
490 2.19845
495 3.92896
500 4.09357
505 2.85557
510 2.40099
515 2.16139
520 1.82194
525 1.76169
530 1.57208
535 1.43216
540 1.27076
545 1.10623
550 1.14335
555 0.922902
560 0.94295
565 0.728957
570 0.712971
575 0.553259
580 0.395498
585 0.345393
590 0.286018
595 0.252664
600 0.0287522
Ex : 443
200 0.0419314
205 0.0796731
210 0.0710743
215 0.101806
220 0.0856374
225 0.0629975
230 0.0221808
235 0.0419236
240 0.0898134
245 0.0456399
250 0.066395
255 0.0572531
260 0.0651778
265 0.0441723
270 0.0451534
275 0.0579021
280 0.0558623
285 0.0577928
290 0.0786837
295 0.0747992
300 0.0827176
305 0.118852
310 0.0620753
315 0.0801617
320 0.103869
325 0.0789317
330 0.0924511
335 0.0670974
340 0.059446
345 0.0728207
350 0.116996
355 0.0960507
360 0.132145
365 0.125786
370 0.130617
375 0.134178
380 0.124765
385 0.120724
390 0.0913111
395 0.130664
400 0.197984
405 0.185616
410 0.318188
415 0.406919
420 0.580954
425 1.25518
430 42.6535
435 717.238
440 1097.19
445 273.005
450 33.2891
455 5.46114
460 2.09557
465 1.82138
470 1.71628
475 1.67399
480 1.69757
485 1.55745
490 1.68802
495 1.78114
500 3.23544
505 3.76115
510 2.79734
515 2.38936
520 2.07842
525 1.8191
530 1.46075
535 1.28754
540 1.35012
545 1.20234
550 1.09767
555 0.933833
560 0.846022
565 0.882105
570 0.684699
575 0.532409
580 0.399093
585 0.373462
590 0.250303
595 0.272442
600 0.431414
Ex : 448
200 0.0245941
205 0.0300785
210 0.0923982
215 0.0828955
220 0.0704134
225 0.0556176
230 0.0608911
235 0.100098
240 0.0737733
245 0.0595863
250 0.11424
255 0.122444
260 0.0887788
265 0.0460308
270 0.0776826
275 0.0814109
280 0.113912
285 0.0659024
290 0.0765033
295 0.0662303
300 0.0675644
305 0.0592088
310 0.05353
315 0.0822736
320 0.0556213
325 0.0787681
330 0.0809028
335 0.0630326
340 0.0882103
345 0.0944754
350 0.0856454
355 0.0805743
360 0.081344
365 0.0863891
370 0.0704654
375 0.103698
380 0.113404
385 0.131596
390 0.111357
395 0.146253
400 0.183281
405 0.118674
410 0.173121
415 0.237287
420 0.401759
425 0.597595
430 1.12017
435 43.8104
440 767.294
445 1168.7
450 291.186
455 35.3674
460 5.65401
465 2.03344
470 1.66686
475 1.71977
480 1.58927
485 1.61461
490 1.46352
495 1.44799
500 1.61653
505 2.40713
510 3.38666
515 2.85736
520 2.28531
525 2.08358
530 1.73016
535 1.40672
540 1.25914
545 1.14553
550 1.01677
555 1.01693
560 0.862067
565 0.79083
570 0.632611
575 0.574659
580 0.448857
585 0.353962
590 0.227445
595 0.210799
600 0.0239882
Ex : 453
200 0.119278
205 0.0398883
210 0.0744061
215 0.0597811
220 0.0546949
225 0.0495546
230 0.073907
235 0.0494891
240 0.111275
245 0.0992694
250 0.0558347
255 0.0601442
260 0.0798932
265 0.0535813
270 0.068746
275 0.0738973
280 0.0521269
285 0.0924103
290 0.0508588
295 0.082718
300 0.0958145
305 0.0743088
310 0.0563572
315 0.0623621
320 0.0708426
325 0.0677718
330 0.0534095
335 0.104523
340 0.0838804
345 0.0943155
350 0.0917097
355 0.114152
360 0.110037
365 0.136616
370 0.0779088
375 0.103461
380 0.0938182
385 0.0727044
390 0.0971415
395 0.134887
400 0.164613
405 0.169451
410 0.171
415 0.192146
420 0.281511
425 0.394267
430 0.66408
435 1.08102
440 46.8079
445 825.426
450 1200.93
455 282.11
460 34.3678
465 5.58938
470 2.00404
475 1.677
480 1.77548
485 1.77846
490 1.34719
495 1.33411
500 1.23528
505 1.27684
510 1.78796
515 3.17993
520 3.11223
525 1.99197
530 1.85549
535 1.55004
540 1.16616
545 1.1399
550 0.972539
555 0.978497
560 0.913542
565 0.678276
570 0.565307
575 0.625132
580 0.391893
585 0.359131
590 0.287356
595 0.312836
600 0.450833
Ex : 458
200 0.0424354
205 0.0660351
210 0.0420275
215 0.0855757
220 0.0443248
225 0.0815637
230 0.0700805
235 0.0869579
240 0.0459837
245 0.0689088
250 0.067841
255 0.060787
260 0.0523601
265 0.041702
270 0.0665721
275 0.0997403
280 0.0920022
285 0.0733317
290 0.0488929
295 0.0606606
300 0.0754651
305 0.0708236
310 0.0983989
315 0.0855101
320 0.0761372
325 0.0650878
330 0.0583531
335 0.0965895
340 0.0678673
345 0.092746
350 0.0923724
355 0.100853
360 0.0971086
365 0.102432
370 0.105244
375 0.0794729
380 0.147349
385 0.0982943
390 0.131448
395 0.117058
400 0.178815
405 0.190316
410 0.175615
415 0.18995
420 0.186088
425 0.306226
430 0.441601
435 0.587241
440 1.31856
445 52.3808
450 851.59
455 1269.53
460 308.211
465 37.7227
470 6.08897
475 2.11209
480 1.64526
485 1.75575
490 1.67253
495 1.42063
500 1.24107
505 1.24282
510 1.18049
515 1.4072
520 2.31386
525 3.10914
530 2.2327
535 1.75297
540 1.565
545 1.36588
550 1.10952
555 1.00546
560 0.827813
565 0.755286
570 0.667184
575 0.512842
580 0.392224
585 0.329862
590 0.326614
595 0.362579
600 0.0412601
Ex : 463
200 0.0648484
205 0.060817
210 0.0516648
215 0.0712757
220 0.082522
225 0.109257
230 0.0637724
235 0.0727605
240 0.0998239
245 0.065059
250 0.0476149
255 0.0794517
260 0.0622969
265 0.0822857
270 0.0558423
275 0.0415607
280 0.0854817
285 0.062067
290 0.0554546
295 0.0770069
300 0.0965388
305 0.103858
310 0.0721813
315 0.0666085
320 0.075909
325 0.0557649
330 0.12314
335 0.094412
340 0.0976903
345 0.093804
350 0.0780615
355 0.0932004
360 0.0693711
365 0.0849016
370 0.077325
375 0.0758909
380 0.0994079
385 0.0872614
390 0.120925
395 0.11975
400 0.117032
405 0.115719
410 0.176267
415 0.163215
420 0.155263
425 0.181187
430 0.252851
435 0.339211
440 0.71712
445 1.34394
450 51.0176
455 902.94
460 1380.2
465 334.971
470 40.751
475 6.43365
480 2.08817
485 1.54062
490 1.53818
495 1.63444
500 1.35079
505 1.21078
510 1.14421
515 1.25781
520 1.30511
525 1.75139
530 2.98252
535 2.54349
540 1.69692
545 1.48147
550 1.32623
555 0.926771
560 0.739887
565 0.708023
570 0.675732
575 0.632311
580 0.533056
585 0.392954
590 0.297742
595 0.278188
600 0.218654
Ex : 468
200 0.052117
205 0.102795
210 0.0698438
215 0.112541
220 0.0650964
225 0.0777201
230 0.0677335
235 0.0638687
240 0.079428
245 0.073216
250 0.099257
255 0.058237
260 0.0755302
265 0.0618635
270 0.0596157
275 0.0385167
280 0.0709731
285 0.0474375
290 0.0418746
295 0.0464702
300 0.0567444
305 0.0635627
310 0.07748
315 0.0820415
320 0.0627958
325 0.0796115
330 0.0906031
335 0.0761532
340 0.0531883
345 0.0695642
350 0.0703656
355 0.0944818
360 0.0856552
365 0.0676051
370 0.104629
375 0.121391
380 0.135444
385 0.139226
390 0.0988434
395 0.142014
400 0.102498
405 0.123986
410 0.159343
415 0.126215
420 0.155103
425 0.151807
430 0.23267
435 0.25834
440 0.340585
445 0.58896
450 1.2162
455 56.3205
460 917.559
465 1456.3
470 352.495
475 42.3933
480 6.55697
485 1.99862
490 1.50363
495 1.52634
500 1.64906
505 1.39853
510 1.23094
515 1.20765
520 1.15653
525 1.2441
530 1.53282
535 2.47903
540 2.64806
545 1.81926
550 1.44596
555 1.36116
560 0.959435
565 0.844442
570 0.706813
575 0.602332
580 0.463842
585 0.358999
590 0.403085
595 0.321912
600 0.0366323
Ex : 473
200 0.0562676
205 0.085931
210 0.0475849
215 0.0404064
220 0.085545
225 0.0766563
230 0.0445815
235 0.0457186
240 0.098112
245 0.0639004
250 0.105951
255 0.0530768
260 0.112016
265 0.0849888
270 0.0393728
275 0.0275705
280 0.0697165
285 0.0463334
290 0.0757536
295 0.0506053
300 0.0595703
305 0.137902
310 0.0745187
315 0.115852
320 0.0775102
325 0.0990999
330 0.0638365
335 0.0811249
340 0.0658214
345 0.0873251
350 0.0766092
355 0.074789
360 0.0769361
365 0.124771
370 0.161653
375 0.0851622
380 0.0882062
385 0.0741829
390 0.11921
395 0.116911
400 0.122194
405 0.143164
410 0.0937745
415 0.167009
420 0.231778
425 0.183495
430 0.181514
435 0.177944
440 0.287126
445 0.485038
450 0.771229
455 1.39644
460 66.4511
465 1024.49
470 1445.12
475 338.02
480 40.7751
485 6.37567
490 2.04167
495 1.40893
500 1.40149
505 1.47939
510 1.29686
515 1.15742
520 1.21686
525 1.09902
530 1.17894
535 1.33091
540 2.12299
545 2.50206
550 1.89489
555 1.38828
560 1.2044
565 1.09378
570 0.712691
575 0.556992
580 0.518528
585 0.357025
590 0.351641
595 0.296315
600 0.0516484
Ex : 478
200 0.108189
205 0.083788
210 0.0625701
215 0.0939317
220 0.0758336
225 0.0522
230 0.0564149
235 0.0973774
240 0.0494083
245 0.0830318
250 0.0756289
255 0.0618396
260 0.0959332
265 0.14303
270 0.0550259
275 0.0782467
280 0.0661193
285 0.0714631
290 0.0470953
295 0.0586994
300 0.069433
305 0.0472864
310 0.0594595
315 0.0945876
320 0.0736335
325 0.0918962
330 0.10275
335 0.11134
340 0.0893758
345 0.105081
350 0.106693
355 0.119161
360 0.0749934
365 0.0963519
370 0.112389
375 0.107697
380 0.190181
385 0.11062
390 0.0852425
395 0.140566
400 0.159807
405 0.212395
410 0.133592
415 0.17401
420 0.157063
425 0.185135
430 0.283175
435 0.271056
440 0.233137
445 0.413294
450 0.510153
455 0.967402
460 1.78428
465 73.142
470 1070.26
475 1494.79
480 362.465
485 43.703
490 6.62161
495 2.04573
500 1.30583
505 1.34522
510 1.37178
515 1.20746
520 1.08495
525 1.13321
530 1.04915
535 1.08625
540 1.136
545 1.56476
550 2.22385
555 2.02844
560 1.34221
565 1.06413
570 0.981547
575 0.779693
580 0.464468
585 0.383573
590 0.362954
595 0.329024
600 0.0621442
Ex : 483
200 0.0579065
205 0.119727
210 0.16098
215 0.0727206
220 0.0745563
225 0.100958
230 0.0750698
235 0.0682577
240 0.0631921
245 0.135503
250 0.0679874
255 0.122895
260 0.0837602
265 0.0530085
270 0.0784775
275 0.076683
280 0.0617552
285 0.0641093
290 0.0589383
295 0.0824496
300 0.118515
305 0.0700433
310 0.19104
315 0.119566
320 0.0699762
325 0.0745654
330 0.0807951
335 0.101013
340 0.0715013
345 0.0937291
350 0.0875698
355 0.0767288
360 0.0816297
365 0.109852
370 0.119352
375 0.143438
380 0.138859
385 0.097924
390 0.139613
395 0.130934
400 0.108441
405 0.106206
410 0.120893
415 0.18411
420 0.129971
425 0.198293
430 0.195165
435 0.210299
440 0.271392
445 0.239281
450 0.304559
455 0.504652
460 0.918311
465 1.70339
470 58.7494
475 1064.79
480 1617.88
485 387.444
490 46.66
495 6.85402
500 2.10499
505 1.26095
510 1.30503
515 1.32896
520 1.30672
525 1.22542
530 1.14435
535 1.10494
540 0.984623
545 0.907706
550 1.16151
555 2.00986
560 2.16849
565 1.28841
570 0.942884
575 0.910757
580 0.614089
585 0.490706
590 0.347507
595 0.340454
600 0.149135
Ex : 488
200 0.0710155
205 0.0980653
210 0.104535
215 0.0465245
220 0.0588904
225 0.105313
230 0.0731495
235 0.0823988
240 0.103125
245 0.134147
250 0.11572
255 0.103121
260 0.0631444
265 0.0808534
270 0.0673245
275 0.0911868
280 0.0702719
285 0.0995321
290 0.0400111
295 0.1283
300 0.0855519
305 0.103833
310 0.112261
315 0.0556663
320 0.0926209
325 0.0922177
330 0.111219
335 0.0705302
340 0.139334
345 0.0671148
350 0.0955963
355 0.0946567
360 0.0556396
365 0.0631468
370 0.0590799
375 0.0829653
380 0.136274
385 0.0985483
390 0.102143
395 0.101717
400 0.151198
405 0.128032
410 0.121828
415 0.170784
420 0.125315
425 0.182553
430 0.19448
435 0.14986
440 0.238074
445 0.270786
450 0.322786
455 0.3546
460 0.593719
465 1.19895
470 1.88951
475 72.3544
480 1164.04
485 1629.41
490 382.789
495 45.8704
500 6.77414
505 2.06222
510 1.20498
515 1.12651
520 1.3955
525 1.21535
530 1.02817
535 0.976329
540 0.955644
545 0.852527
550 0.724786
555 0.995348
560 1.5359
565 1.96534
570 1.40757
575 0.774903
580 0.705613
585 0.621353
590 0.470315
595 0.302966
600 0.599813
Ex : 493
200 0.114741
205 0.0729509
210 0.0969541
215 0.0775264
220 0.0743092
225 0.0479551
230 0.111497
235 0.131047
240 0.078311
245 0.121055
250 0.0834391
255 0.0898916
260 0.0964115
265 0.0518705
270 0.114887
275 0.086043
280 0.0565948
285 0.0567322
290 0.0777634
295 0.116927
300 0.0741339
305 0.118576
310 0.0737499
315 0.0903354
320 0.121217
325 0.0886165
330 0.115116
335 0.0572574
340 0.0858712
345 0.0962248
350 0.0676291
355 0.0854065
360 0.116328
365 0.084163
370 0.103796
375 0.160598
380 0.146627
385 0.133118
390 0.105637
395 0.104582
400 0.167979
405 0.138307
410 0.0789238
415 0.102215
420 0.107834
425 0.130072
430 0.219776
435 0.170672
440 0.199373
445 0.182232
450 0.314051
455 0.325279
460 0.407079
465 0.728013
470 1.06269
475 1.76803
480 68.2678
485 1170.27
490 1721.97
495 397.537
500 47.7036
505 6.99732
510 2.0789
515 1.28211
520 1.30988
525 1.32381
530 1.2558
535 1.13497
540 0.966509
545 0.836127
550 0.869655
555 0.839588
560 0.855868
565 0.963596
570 1.64344
575 1.34135
580 0.729709
585 0.580234
590 0.438976
595 0.389329
600 0.45409
Ex : 498
200 0.151063
205 0.133887
210 0.129976
215 0.0756243
220 0.0847438
225 0.102685
230 0.147534
235 0.0685541
240 0.0763723
245 0.107
250 0.182737
255 0.0640372
260 0.0531084
265 0.0914522
270 0.0827174
275 0.0910777
280 0.0677993
285 0.115808
290 0.116027
295 0.0711055
300 0.0673079
305 0.0672421
310 0.0603599
315 0.104099
320 0.0945478
325 0.0957534
330 0.108635
335 0.0779938
340 0.0646176
345 0.0966426
350 0.104352
355 0.103466
360 0.0842275
365 0.107104
370 0.0957352
375 0.161316
380 0.179001
385 0.169677
390 0.101994
395 0.165111
400 0.108067
405 0.15042
410 0.132863
415 0.180744
420 0.125396
425 0.243312
430 0.136421
435 0.152014
440 0.229517
445 0.187367
450 0.225817
455 0.278467
460 0.343343
465 0.555359
470 0.747036
475 1.08319
480 1.94883
485 83.7543
490 1253.77
495 1705.13
500 393.795
505 47.2026
510 7.04241
515 2.09397
520 1.25515
525 1.21634
530 1.39712
535 1.21446
540 1.05533
545 0.860045
550 0.83059
555 0.789352
560 0.830474
565 0.762723
570 0.855762
575 1.20305
580 1.19665
585 0.768721
590 0.589612
595 0.438537
600 0.377174
Ex : 503
200 0.106974
205 0.0806898
210 0.0636573
215 0.129769
220 0.132075
225 0.106774
230 0.110565
235 0.0905498
240 0.0867801
245 0.117387
250 0.0826541
255 0.0782734
260 0.049848
265 0.084818
270 0.0608836
275 0.148683
280 0.102838
285 0.0751974
290 0.166878
295 0.166737
300 0.0738321
305 0.0787444
310 0.17537
315 0.155782
320 0.102195
325 0.0851912
330 0.169862
335 0.132392
340 0.0992466
345 0.0994464
350 0.116352
355 0.127077
360 0.123192
365 0.183201
370 0.0848198
375 0.108098
380 0.148071
385 0.126851
390 0.137221
395 0.116027
400 0.106138
405 0.135934
410 0.094207
415 0.23147
420 0.128093
425 0.18344
430 0.166006
435 0.169034
440 0.154422
445 0.234529
450 0.203217
455 0.298235
460 0.311694
465 0.406417
470 0.442011
475 0.685293
480 1.09359
485 1.94961
490 77.2161
495 1265.18
500 1782.36
505 411.014
510 49.2726
515 7.36694
520 2.22858
525 1.43214
530 1.28359
535 1.23664
540 1.18514
545 0.92096
550 0.723302
555 0.829949
560 0.799793
565 0.599004
570 0.605632
575 0.679272
580 0.71493
585 0.933252
590 0.646077
595 0.407774
600 0.331394
Ex : 508
200 0.150315
205 0.0939348
210 0.0580572
215 0.106294
220 0.0829844
225 0.0744012
230 0.135025
235 0.109991
240 0.0732221
245 0.0544697
250 0.0829134
255 0.0720696
260 0.108667
265 0.0893341
270 0.103088
275 0.151208
280 0.126088
285 0.0780016
290 0.10348
295 0.134997
300 0.0552751
305 0.0938428
310 0.0754735
315 0.0593561
320 0.0874863
325 0.0958711
330 0.106209
335 0.113734
340 0.137085
345 0.113582
350 0.116986
355 0.0978932
360 0.112035
365 0.132983
370 0.181005
375 0.133594
380 0.0954665
385 0.107821
390 0.105881
395 0.124148
400 0.137314
405 0.154135
410 0.14996
415 0.183948
420 0.169083
425 0.111927
430 0.216883
435 0.136476
440 0.193993
445 0.228802
450 0.168055
455 0.174112
460 0.1491
465 0.325634
470 0.466733
475 0.417124
480 0.710347
485 1.08853
490 1.87976
495 82.9933
500 1280.07
505 1813.9
510 438.208
515 52.2938
520 7.56545
525 2.14111
530 1.39141
535 1.17572
540 1.10755
545 1.09508
550 0.92524
555 0.790444
560 0.803122
565 0.748516
570 0.604074
575 0.52452
580 0.449661
585 0.61945
590 0.772438
595 0.666176
600 0.1604
Ex : 513
200 0.179779
205 0.117855
210 0.124843
215 0.0995758
220 0.134099
225 0.133905
230 0.103617
235 0.145094
240 0.100954
245 0.170003
250 0.135289
255 0.0741569
260 0.120209
265 0.134006
270 0.102706
275 0.136299
280 0.145464
285 0.117229
290 0.161637
295 0.106278
300 0.083649
305 0.119907
310 0.0760229
315 0.13973
320 0.0970293
325 0.128282
330 0.132325
335 0.0951893
340 0.0943274
345 0.121734
350 0.131333
355 0.184263
360 0.115982
365 0.158723
370 0.0925951
375 0.0862238
380 0.101974
385 0.163997
390 0.117516
395 0.19914
400 0.1317
405 0.139827
410 0.220466
415 0.153024
420 0.134384
425 0.128949
430 0.19822
435 0.13552
440 0.135507
445 0.227334
450 0.157444
455 0.240565
460 0.230718
465 0.267522
470 0.342015
475 0.390242
480 0.521251
485 0.662323
490 1.05922
495 1.64
500 77.4385
505 1276.63
510 1839.38
515 450.81
520 53.9417
525 7.72979
530 2.41112
535 1.3768
540 1.01633
545 0.936847
550 1.00292
555 0.939084
560 0.886325
565 0.725227
570 0.556595
575 0.46459
580 0.536596
585 0.477634
590 0.513136
595 0.614514
600 1.30487
Ex : 518
200 0.12345
205 0.0892783
210 0.10185
215 0.105294
220 0.0878114
225 0.105316
230 0.139985
235 0.156668
240 0.134994
245 0.108497
250 0.146113
255 0.10464
260 0.0968385
265 0.0639961
270 0.0969664
275 0.0667025
280 0.0962211
285 0.131758
290 0.0471304
295 0.136024
300 0.132158
305 0.123332
310 0.0833029
315 0.117614
320 0.137708
325 0.123964
330 0.0830631
335 0.0791353
340 0.0844204
345 0.151807
350 0.116288
355 0.119733
360 0.112716
365 0.13779
370 0.139845
375 0.0970084
380 0.124986
385 0.159396
390 0.12862
395 0.0707899
400 0.0875578
405 0.111945
410 0.138903
415 0.124236
420 0.15566
425 0.226425
430 0.190189
435 0.130353
440 0.199307
445 0.151575
450 0.231616
455 0.187979
460 0.233267
465 0.282987
470 0.287049
475 0.315398
480 0.411996
485 0.486584
490 0.813415
495 1.0819
500 1.82324
505 79.2121
510 1248.82
515 1851.65
520 460.878
525 55.1717
530 7.98327
535 2.22269
540 1.27375
545 0.991953
550 0.845091
555 1.04095
560 0.860752
565 0.645501
570 0.695453
575 0.477565
580 0.503694
585 0.468927
590 0.410141
595 0.399046
600 0.552729
Ex : 523
200 0.0881384
205 0.120964
210 0.0969749
215 0.0747956
220 0.117264
225 0.0990617
230 0.142736
235 0.144849
240 0.0688853
245 0.101029
250 0.11861
255 0.087453
260 0.139467
265 0.133147
270 0.137496
275 0.155197
280 0.0996407
285 0.151371
290 0.110683
295 0.0751595
300 0.0610975
305 0.0931802
310 0.105197
315 0.124149
320 0.0974648
325 0.135959
330 0.0941112
335 0.106072
340 0.113698
345 0.11639
350 0.114237
355 0.143844
360 0.110751
365 0.17227
370 0.0898721
375 0.0835797
380 0.112348
385 0.101321
390 0.185649
395 0.110242
400 0.201238
405 0.119743
410 0.126619
415 0.13184
420 0.146179
425 0.118707
430 0.17391
435 0.127572
440 0.159347
445 0.162871
450 0.247198
455 0.227537
460 0.19394
465 0.223661
470 0.23957
475 0.23028
480 0.45443
485 0.364768
490 0.488226
495 0.600736
500 0.994895
505 1.82711
510 73.3185
515 1215.41
520 1846.79
525 474.056
530 56.45
535 7.95388
540 2.05057
545 1.11871
550 0.848916
555 0.845777
560 0.750404
565 0.750231
570 0.632142
575 0.499645
580 0.394464
585 0.456096
590 0.372462
595 0.365024
600 1.50986
Ex : 528
200 0.121554
205 0.0625213
210 0.110172
215 0.20416
220 0.118988
225 0.117217
230 0.121107
235 0.0683155
240 0.111682
245 0.096664
250 0.0677197
255 0.036712
260 0.0997731
265 0.12942
270 0.111663
275 0.135757
280 0.0819985
285 0.101576
290 0.10466
295 0.0915418
300 0.119666
305 0.141365
310 0.0929216
315 0.0820474
320 0.0884894
325 0.0706732
330 0.0626099
335 0.0980119
340 0.152421
345 0.10513
350 0.172734
355 0.0983021
360 0.0993184
365 0.0864575
370 0.0982851
375 0.0990143
380 0.123022
385 0.207278
390 0.169325
395 0.0992301
400 0.168084
405 0.128304
410 0.124406
415 0.128629
420 0.1413
425 0.129604
430 0.201105
435 0.147882
440 0.15141
445 0.231318
450 0.230498
455 0.219459
460 0.227276
465 0.279874
470 0.218384
475 0.231575
480 0.209664
485 0.274675
490 0.412054
495 0.483026
500 0.641476
505 1.06374
510 1.98287
515 68.8457
520 1219.16
525 1861.9
530 468.62
535 56.1102
540 7.77088
545 1.82341
550 0.969687
555 0.714532
560 0.679208
565 0.631209
570 0.596197
575 0.433786
580 0.500604
585 0.483645
590 0.322746
595 0.33878
600 0.0385519
Ex : 533
200 0.0887127
205 0.0961047
210 0.0868967
215 0.0834673
220 0.130252
225 0.109267
230 0.0836115
235 0.132299
240 0.145884
245 0.096869
250 0.0770471
255 0.10105
260 0.146954
265 0.1274
270 0.105077
275 0.14934
280 0.108698
285 0.0987083
290 0.0944963
295 0.0816854
300 0.134132
305 0.0911597
310 0.115459
315 0.160559
320 0.161889
325 0.132869
330 0.117501
335 0.105051
340 0.0670558
345 0.122342
350 0.108271
355 0.0963361
360 0.131988
365 0.129485
370 0.105662
375 0.261464
380 0.10659
385 0.0765152
390 0.164951
395 0.139057
400 0.137711
405 0.161462
410 0.124732
415 0.115507
420 0.211243
425 0.187307
430 0.168295
435 0.197916
440 0.113653
445 0.15128
450 0.202355
455 0.165555
460 0.160534
465 0.265383
470 0.191951
475 0.234425
480 0.311928
485 0.281134
490 0.26144
495 0.453871
500 0.505888
505 0.750299
510 1.23591
515 2.04418
520 70.2658
525 1173.63
530 1821.27
535 473.848
540 56.3019
545 7.76329
550 1.94915
555 1.07276
560 0.749296
565 0.663699
570 0.583927
575 0.568489
580 0.428113
585 0.440641
590 0.330995
595 0.419687
600 0.07108
Ex : 538
200 0.203255
205 0.0982297
210 0.0966023
215 0.0777586
220 0.125777
225 0.060151
230 0.0742798
235 0.103192
240 0.149694
245 0.0996132
250 0.0739661
255 0.0802152
260 0.0661904
265 0.10173
270 0.0962081
275 0.136287
280 0.119381
285 0.135056
290 0.103607
295 0.198408
300 0.203311
305 0.189393
310 0.182596
315 0.135453
320 0.0674273
325 0.146945
330 0.104496
335 0.0875597
340 0.105232
345 0.0963977
350 0.210756
355 0.121628
360 0.113337
365 0.091779
370 0.198515
375 0.12232
380 0.142761
385 0.109218
390 0.214655
395 0.124003
400 0.173233
405 0.140622
410 0.142984
415 0.140358
420 0.147807
425 0.118781
430 0.173241
435 0.143196
440 0.149638
445 0.242843
450 0.192311
455 0.141951
460 0.239466
465 0.191396
470 0.284646
475 0.197911
480 0.186342
485 0.297531
490 0.276641
495 0.379405
500 0.354944
505 0.374524
510 0.675688
515 1.05428
520 1.83029
525 59.4139
530 1133.33
535 1832.17
540 488.56
545 58.5339
550 7.88001
555 1.85815
560 0.898269
565 0.645193
570 0.480467
575 0.569062
580 0.558393
585 0.455282
590 0.486153
595 0.29604
600 0.284137
Ex : 543
200 0.135153
205 0.0891808
210 0.13619
215 0.110263
220 0.0959702
225 0.107297
230 0.063013
235 0.098139
240 0.178314
245 0.168091
250 0.153358
255 0.105787
260 0.0888417
265 0.155565
270 0.170314
275 0.0765135
280 0.174371
285 0.0939325
290 0.0825179
295 0.117977
300 0.090887
305 0.206933
310 0.1208
315 0.181852
320 0.190949
325 0.116485
330 0.108882
335 0.153088
340 0.130321
345 0.0963376
350 0.0762658
355 0.0966353
360 0.179899
365 0.11138
370 0.162941
375 0.179767
380 0.113493
385 0.137636
390 0.123652
395 0.114934
400 0.16928
405 0.15845
410 0.115102
415 0.141399
420 0.145646
425 0.199821
430 0.105524
435 0.114235
440 0.208653
445 0.15712
450 0.146507
455 0.158668
460 0.206622
465 0.212374
470 0.216315
475 0.264028
480 0.230358
485 0.335443
490 0.200893
495 0.303283
500 0.387458
505 0.443237
510 0.540517
515 0.666502
520 0.965125
525 1.75074
530 55.1719
535 1097.76
540 1848.76
545 505.957
550 60.4715
555 8.18568
560 1.94818
565 1.00295
570 0.588444
575 0.456143
580 0.514275
585 0.552583
590 0.351944
595 0.432277
600 0.41352
Ex : 548
200 0.0856636
205 0.137363
210 0.0979443
215 0.143663
220 0.0800813
225 0.109378
230 0.0791902
235 0.140427
240 0.0866046
245 0.118263
250 0.0750572
255 0.104545
260 0.0897605
265 0.100725
270 0.0755338
275 0.1435
280 0.125738
285 0.126029
290 0.124384
295 0.0599089
300 0.194605
305 0.100304
310 0.140678
315 0.104019
320 0.103224
325 0.112875
330 0.0646853
335 0.146256
340 0.12527
345 0.14559
350 0.0927845
355 0.112382
360 0.163791
365 0.147097
370 0.1819
375 0.172101
380 0.105677
385 0.198556
390 0.131179
395 0.138154
400 0.118998
405 0.122916
410 0.107689
415 0.165594
420 0.148887
425 0.131198
430 0.19742
435 0.218235
440 0.144578
445 0.128491
450 0.17952
455 0.107036
460 0.131812
465 0.198894
470 0.201555
475 0.147187
480 0.207748
485 0.193787
490 0.228894
495 0.276061
500 0.271931
505 0.323821
510 0.340649
515 0.455608
520 0.592822
525 0.922638
530 1.73293
535 60.8893
540 1099.17
545 1787.45
550 492.898
555 58.477
560 7.65273
565 1.66627
570 0.85062
575 0.462878
580 0.458628
585 0.413634
590 0.411819
595 0.412109
600 0.771052
Ex : 553
200 0.08461
205 0.0796444
210 0.15056
215 0.15983
220 0.0749332
225 0.125592
230 0.126633
235 0.110859
240 0.092599
245 0.102611
250 0.156539
255 0.0557991
260 0.101582
265 0.133786
270 0.0906459
275 0.0818946
280 0.0737933
285 0.119609
290 0.115465
295 0.164694
300 0.196259
305 0.0865567
310 0.139514
315 0.107337
320 0.0899693
325 0.185566
330 0.0960232
335 0.0705658
340 0.129605
345 0.125367
350 0.211898
355 0.177797
360 0.144759
365 0.154216
370 0.0930401
375 0.117854
380 0.166002
385 0.186679
390 0.121048
395 0.180612
400 0.187958
405 0.0973313
410 0.123929
415 0.143105
420 0.14396
425 0.173029
430 0.172048
435 0.172312
440 0.184924
445 0.150282
450 0.164197
455 0.150151
460 0.263643
465 0.201153
470 0.232565
475 0.221995
480 0.226774
485 0.220794
490 0.292523
495 0.359165
500 0.313252
505 0.344723
510 0.251776
515 0.396374
520 0.367933
525 0.536634
530 1.03021
535 1.54343
540 52.1222
545 1041.31
550 1788.79
555 505.423
560 60.4861
565 7.7947
570 1.63108
575 0.796652
580 0.598575
585 0.426895
590 0.382442
595 0.447835
600 0.272513
Ex : 558
200 0.173894
205 0.13405
210 0.149778
215 0.0994727
220 0.0935005
225 0.102592
230 0.0940849
235 0.220913
240 0.185725
245 0.170967
250 0.1134
255 0.134644
260 0.158412
265 0.190164
270 0.248497
275 0.135814
280 0.144755
285 0.203369
290 0.135471
295 0.125188
300 0.140457
305 0.133017
310 0.127122
315 0.13596
320 0.141869
325 0.144962
330 0.148937
335 0.127611
340 0.168189
345 0.145129
350 0.184154
355 0.124213
360 0.201024
365 0.0995204
370 0.145367
375 0.138986
380 0.192309
385 0.150531
390 0.160789
395 0.175735
400 0.11835
405 0.115896
410 0.16662
415 0.237129
420 0.114364
425 0.149284
430 0.140072
435 0.129784
440 0.154805
445 0.187672
450 0.327713
455 0.230972
460 0.216433
465 0.315467
470 0.258484
475 0.168893
480 0.150337
485 0.16382
490 0.251594
495 0.350178
500 0.260979
505 0.188083
510 0.299825
515 0.308602
520 0.378123
525 0.498267
530 0.604914
535 0.86593
540 1.70223
545 49.0683
550 995.289
555 1771.12
560 500.74
565 59.7559
570 7.84602
575 1.51048
580 0.659202
585 0.596167
590 0.420925
595 0.395621
600 0.504333
Ex : 563
200 0.106957
205 0.234921
210 0.118133
215 0.221091
220 0.16078
225 0.127567
230 0.118879
235 0.0829633
240 0.154149
245 0.0865131
250 0.0863152
255 0.118528
260 0.173742
265 0.165567
270 0.120517
275 0.13675
280 0.13102
285 0.120512
290 0.122071
295 0.13817
300 0.198774
305 0.159516
310 0.172861
315 0.204264
320 0.133853
325 0.152512
330 0.150474
335 0.212706
340 0.0826098
345 0.184991
350 0.133477
355 0.155186
360 0.175982
365 0.178215
370 0.212089
375 0.128465
380 0.0838243
385 0.0818004
390 0.150156
395 0.214215
400 0.118279
405 0.178363
410 0.206789
415 0.217647
420 0.080605
425 0.181011
430 0.143664
435 0.101701
440 0.138307
445 0.12045
450 0.155473
455 0.110661
460 0.240562
465 0.217726
470 0.147467
475 0.228766
480 0.153073
485 0.179474
490 0.190487
495 0.218183
500 0.341758
505 0.350386
510 0.32184
515 0.259112
520 0.266012
525 0.295628
530 0.388605
535 0.626916
540 0.869245
545 1.77059
550 48.8631
555 975.687
560 1700.29
565 484.999
570 57.8419
575 7.48066
580 1.41022
585 0.624277
590 0.435281
595 0.311173
600 0.0354103
Ex : 568
200 0.143471
205 0.244121
210 0.180446
215 0.110759
220 0.156069
225 0.160009
230 0.119347
235 0.10172
240 0.100292
245 0.166704
250 0.0903719
255 0.13346
260 0.0928931
265 0.10481
270 0.110532
275 0.149097
280 0.120065
285 0.112574
290 0.0740751
295 0.0882801
300 0.0871488
305 0.0997444
310 0.218337
315 0.136685
320 0.136975
325 0.0924153
330 0.159786
335 0.15468
340 0.212389
345 0.211977
350 0.109146
355 0.156096
360 0.127367
365 0.154182
370 0.209764
375 0.180987
380 0.21756
385 0.130154
390 0.129712
395 0.134648
400 0.135172
405 0.167111
410 0.111679
415 0.161873
420 0.134922
425 0.226296
430 0.192532
435 0.169839
440 0.174926
445 0.169419
450 0.184359
455 0.215947
460 0.194267
465 0.138774
470 0.217121
475 0.135962
480 0.182117
485 0.180279
490 0.287198
495 0.230914
500 0.233008
505 0.216426
510 0.214059
515 0.241026
520 0.2535
525 0.453712
530 0.438127
535 0.497839
540 0.639324
545 0.754025
550 1.27656
555 36.86
560 888.568
565 1655.41
570 497.844
575 59.4648
580 7.51681
585 1.35408
590 0.55979
595 0.507699
600 0.586088
Ex : 573
200 0.0808336
205 0.150304
210 0.207583
215 0.177276
220 0.095559
225 0.223268
230 0.22193
235 0.168186
240 0.189378
245 0.10232
250 0.0890072
255 0.161394
260 0.133351
265 0.209512
270 0.108074
275 0.154187
280 0.0863896
285 0.10795
290 0.129815
295 0.167566
300 0.130495
305 0.17513
310 0.112251
315 0.182418
320 0.119288
325 0.161369
330 0.155831
335 0.148082
340 0.0837744
345 0.107608
350 0.116505
355 0.115588
360 0.0825901
365 0.110639
370 0.0946435
375 0.195766
380 0.173936
385 0.0670177
390 0.132788
395 0.196322
400 0.196444
405 0.181348
410 0.164777
415 0.134479
420 0.138907
425 0.229278
430 0.169414
435 0.185442
440 0.220182
445 0.147296
450 0.182943
455 0.141046
460 0.20218
465 0.251673
470 0.258892
475 0.217003
480 0.312685
485 0.206132
490 0.211867
495 0.2101
500 0.256548
505 0.361415
510 0.195939
515 0.177245
520 0.195193
525 0.174923
530 0.340148
535 0.363649
540 0.324113
545 0.599439
550 0.926428
555 1.33138
560 31.8646
565 767.932
570 1528.39
575 472.917
580 56.3716
585 7.1192
590 1.2953
595 0.502419
600 0.600712
Ex : 578
200 0.112919
205 0.0533827
210 0.0698966
215 0.102707
220 0.123731
225 0.115933
230 0.168187
235 0.173407
240 0.112802
245 0.0912023
250 0.125807
255 0.114332
260 0.203359
265 0.287366
270 0.163732
275 0.185131
280 0.192605
285 0.177604
290 0.114041
295 0.136851
300 0.103642
305 0.214885
310 0.0857665
315 0.186009
320 0.17325
325 0.0973632
330 0.186971
335 0.116665
340 0.195819
345 0.134806
350 0.117186
355 0.109102
360 0.186381
365 0.0945515
370 0.108905
375 0.104064
380 0.124653
385 0.139642
390 0.116761
395 0.169095
400 0.164918
405 0.15695
410 0.172451
415 0.175224
420 0.136369
425 0.155094
430 0.1586
435 0.174394
440 0.168371
445 0.238311
450 0.12641
455 0.276208
460 0.207628
465 0.232334
470 0.147944
475 0.27658
480 0.193409
485 0.193079
490 0.235703
495 0.138632
500 0.153523
505 0.17901
510 0.252402
515 0.213541
520 0.122444
525 0.345787
530 0.25324
535 0.287663
540 0.26316
545 0.479148
550 0.556533
555 0.738263
560 1.10386
565 27.4284
570 694.609
575 1354.84
580 408.37
585 48.6844
590 6.13086
595 1.16328
600 0.448011
Ex : 583
200 0.0908331
205 0.0963482
210 0.143182
215 0.216752
220 0.169434
225 0.0890678
230 0.0786518
235 0.172406
240 0.1346
245 0.143362
250 0.138282
255 0.112443
260 0.223882
265 0.151544
270 0.127853
275 0.160371
280 0.150808
285 0.157152
290 0.0654837
295 0.120857
300 0.142485
305 0.0808068
310 0.115822
315 0.144873
320 0.0854129
325 0.164622
330 0.264993
335 0.244694
340 0.206465
345 0.121049
350 0.104146
355 0.19916
360 0.0721964
365 0.0570674
370 0.120125
375 0.161719
380 0.222087
385 0.112337
390 0.117069
395 0.197387
400 0.122643
405 0.15929
410 0.157317
415 0.22279
420 0.20008
425 0.173561
430 0.237372
435 0.0798371
440 0.149279
445 0.16301
450 0.108878
455 0.267022
460 0.138032
465 0.163309
470 0.146956
475 0.199142
480 0.177251
485 0.276731
490 0.0985348
495 0.142731
500 0.174065
505 0.219245
510 0.151041
515 0.221351
520 0.153955
525 0.23982
530 0.250112
535 0.181426
540 0.19001
545 0.324951
550 0.438066
555 0.479407
560 0.586903
565 1.02184
570 23.704
575 621.255
580 1182.24
585 341.118
590 40.6628
595 5.15606
600 1.69762
Ex : 588
200 0.264007
205 0.122333
210 0.0876297
215 0.0447099
220 0.129681
225 0.155741
230 0.141646
235 0.107694
240 0.106486
245 0.0871517
250 0.135808
255 0.190112
260 0.0834444
265 0.0838494
270 0.183869
275 0.0870002
280 0.058508
285 0.16937
290 0.104865
295 0.212149
300 0.170606
305 0.157033
310 0.127257
315 0.130831
320 0.137959
325 0.120602
330 0.128353
335 0.107591
340 0.130919
345 0.140042
350 0.134932
355 0.127612
360 0.103219
365 0.124255
370 0.108357
375 0.177897
380 0.151323
385 0.0825273
390 0.0975654
395 0.119696
400 0.125519
405 0.181573
410 0.137309
415 0.14561
420 0.200306
425 0.201953
430 0.110327
435 0.148906
440 0.104654
445 0.124583
450 0.0918493
455 0.170585
460 0.179688
465 0.206297
470 0.148445
475 0.108047
480 0.181411
485 0.177819
490 0.141536
495 0.145357
500 0.261928
505 0.176405
510 0.183237
515 0.220294
520 0.175286
525 0.209614
530 0.190298
535 0.276772
540 0.266357
545 0.237483
550 0.354824
555 0.472499
560 0.495946
565 0.576095
570 0.93614
575 19.796
580 522.849
585 1019.99
590 307.839
595 36.6593
600 4.70469
Ex : 593
200 0.0403515
205 0.106908
210 0.129574
215 0.178562
220 0.084309
225 0.159066
230 0.114522
235 0.0747299
240 0.219482
245 0.282799
250 0.305008
255 0.234439
260 0.14384
265 0.143336
270 0.148508
275 0.217266
280 0.073724
285 0.0647535
290 0.115016
295 0.112288
300 0.128622
305 0.244165
310 0.136501
315 0.0837401
320 0.132047
325 0.164557
330 0.132616
335 0.117215
340 0.111645
345 0.0747873
350 0.194562
355 0.191798
360 0.209345
365 0.141017
370 0.139234
375 0.094338
380 0.125877
385 0.148054
390 0.157798
395 0.106819
400 0.0743482
405 0.137645
410 0.116769
415 0.230304
420 0.221131
425 0.195513
430 0.206485
435 0.18724
440 0.15684
445 0.141039
450 0.12622
455 0.0918112
460 0.163425
465 0.173357
470 0.137963
475 0.13385
480 0.183249
485 0.174178
490 0.180319
495 0.182278
500 0.292274
505 0.141827
510 0.122148
515 0.213794
520 0.148459
525 0.211042
530 0.264568
535 0.171252
540 0.173371
545 0.180535
550 0.209019
555 0.282349
560 0.314228
565 0.369829
570 0.709689
575 0.895304
580 18.5063
585 464.287
590 881.016
595 261.371
600 36.2153
Ex : 598
200 0.0741298
205 0.152705
210 0.23116
215 0.0683125
220 0.140154
225 0.108512
230 0.140739
235 0.232081
240 0.109623
245 0.0881221
250 0.157503
255 0.157315
260 0.102841
265 0.116646
270 0.0913942
275 0.0605532
280 0.106013
285 0.06169
290 0.119847
295 0.125998
300 0.113161
305 0.16858
310 0.161654
315 0.257391
320 0.127305
325 0.213815
330 0.176767
335 0.105366
340 0.129329
345 0.150405
350 0.0846085
355 0.0993959
360 0.196042
365 0.129375
370 0.125561
375 0.10593
380 0.188216
385 0.130552
390 0.327105
395 0.28427
400 0.142366
405 0.109574
410 0.0981327
415 0.246459
420 0.143195
425 0.177683
430 0.116324
435 0.148444
440 0.0552393
445 0.130858
450 0.148591
455 0.127538
460 0.215962
465 0.173802
470 0.150485
475 0.140648
480 0.231431
485 0.159597
490 0.206057
495 0.175
500 0.217864
505 0.169058
510 0.168403
515 0.159207
520 0.205446
525 0.196737
530 0.192727
535 0.157566
540 0.232732
545 0.156127
550 0.201002
555 0.201998
560 0.221851
565 0.257881
570 0.361924
575 0.605993
580 0.529549
585 17.9662
590 419.829
595 767.973
600 488.876
Ex : 603
200 0.0546706
205 0.156639
210 0.104687
215 0.0699069
220 0.348141
225 0.148128
230 0.14048
235 0.12891
240 0.163542
245 0.084724
250 0.118702
255 0.110902
260 0.118276
265 0.129455
270 0.164473
275 0.164798
280 0.137334
285 0.146162
290 0.0803605
295 0.0652003
300 0.181492
305 0.200146
310 0.169223
315 0.125853
320 0.078289
325 0.255086
330 0.0593421
335 0.131701
340 0.266938
345 0.179466
350 0.125948
355 0.193117
360 0.128054
365 0.106218
370 0.212538
375 0.138046
380 0.120207
385 0.115045
390 0.102433
395 0.141659
400 0.123742
405 0.099894
410 0.253044
415 0.210943
420 0.119639
425 0.106122
430 0.066182
435 0.122243
440 0.241264
445 0.098696
450 0.106087
455 0.0978964
460 0.202975
465 0.124193
470 0.126295
475 0.191823
480 0.132648
485 0.143002
490 0.113879
495 0.105734
500 0.237906
505 0.177931
510 0.127512
515 0.215713
520 0.242749
525 0.134883
530 0.125112
535 0.139408
540 0.289897
545 0.237647
550 0.20824
555 0.208863
560 0.257044
565 0.311663
570 0.373978
575 0.402754
580 0.391685
585 0.538632
590 16.0956
595 363.069
600 723.79
