File format V 1.0
jeu. 5. janv. 23:37:53 2017
Operator : 
Comments : 

=============================================
SpectroFluorometer parameters
Mode : 3D measurement
Data : Fluorescence
Phospho. : Ordinary
Spectrum : Fluorescence

Scan speed : 2400 nm/mn
Response : 100 ms
PM Voltage : 700 V
Shutter : On

Lambda Ex. Start : 203
Lambda Ex. End : 603
Lambda Ex. Step : 5
Ex. Slit : 5 nm

Lambda Em. Start : 200
Lambda Em. End : 600
Lambda Em. Step : 5
Em. Slit : 5 nm

Repetition : 1
Decal lambda em : 10
=============================================
DATA
Ex : 203
200 2.14085
205 3.41439
210 2.72066
215 2.91574
220 9.40125
225 8.01176
230 7.30705
235 2.64556
240 2.33311
245 3.30559
250 3.50973
255 3.19612
260 2.95235
265 2.21332
270 2.10134
275 7.22964
280 7.90044
285 8.82459
290 7.41072
295 3.99024
300 4.77945
305 2.37741
310 5.52645
315 2.93753
320 2.47751
325 1.58517
330 5.20018
335 2.87854
340 2.04497
345 5.39456
350 4.9832
355 2.91005
360 7.74783
365 6.67998
370 6.14781
375 4.77959
380 5.04877
385 4.82712
390 3.07403
395 3.9181
400 2.07456
405 1.56249
410 5.27492
415 3.94057
420 7.57941
425 3.42722
430 3.32761
435 4.76113
440 8.15453
445 4.44945
450 4.37393
455 3.94927
460 4.96689
465 3.45645
470 4.78097
475 5.37449
480 2.81574
485 6.52385
490 3.77263
495 1.99017
500 2.86907
505 3.80614
510 4.50243
515 3.60256
520 8.94916
525 6.219
530 3.10331
535 3.02365
540 4.38589
545 6.11829
550 4.21265
555 2.42903
560 5.12265
565 3.0988
570 4.54617
575 2.82737
580 3.61886
585 8.37567
590 3.21054
595 3.75858
600 0.427712
Ex : 208
200 5.04762
205 4.25555
210 4.48967
215 3.77375
220 3.83524
225 2.73118
230 4.22588
235 3.70878
240 10.0086
245 6.24731
250 4.03859
255 3.82376
260 1.89104
265 3.17536
270 3.00162
275 1.89516
280 4.94009
285 4.78394
290 4.49823
295 4.17104
300 6.51419
305 4.0482
310 4.05007
315 4.78412
320 4.03641
325 6.66847
330 6.56581
335 4.59661
340 2.9479
345 4.98536
350 3.80339
355 5.79826
360 2.94597
365 5.21762
370 6.16766
375 4.0005
380 3.01728
385 3.87586
390 5.66248
395 3.85686
400 3.11455
405 4.48802
410 4.80498
415 5.00816
420 5.49632
425 4.80969
430 4.50984
435 3.64296
440 5.43638
445 2.28491
450 4.74456
455 4.00689
460 6.80817
465 6.04889
470 3.82932
475 2.2994
480 3.42419
485 6.06367
490 2.59741
495 8.72958
500 5.74345
505 7.44575
510 5.99087
515 6.3646
520 4.07995
525 6.40923
530 4.85188
535 4.86205
540 3.21723
545 4.59354
550 3.22085
555 3.13968
560 5.92036
565 5.03796
570 4.59307
575 2.28954
580 4.93379
585 3.9363
590 3.10655
595 2.45677
600 0.279571
Ex : 213
200 4.42169
205 3.87422
210 3.19918
215 5.79275
220 7.94505
225 7.86082
230 2.71873
235 2.72511
240 6.32321
245 3.63137
250 6.99567
255 4.07989
260 2.46422
265 3.9712
270 2.48397
275 4.3168
280 3.43909
285 9.22686
290 7.83285
295 3.97557
300 5.81948
305 4.85106
310 4.07888
315 4.17069
320 4.38687
325 2.97834
330 2.91548
335 3.41747
340 3.75436
345 2.26528
350 5.80101
355 2.62446
360 3.50638
365 4.95663
370 4.72973
375 7.24805
380 3.34569
385 5.25191
390 7.04226
395 2.66422
400 5.30469
405 6.50752
410 4.16395
415 3.92537
420 5.19499
425 4.87908
430 8.01978
435 5.76033
440 4.15074
445 4.01715
450 2.76354
455 5.05862
460 4.5487
465 2.82613
470 4.43865
475 2.48072
480 7.2928
485 3.34858
490 6.39334
495 4.90377
500 4.37282
505 3.24544
510 2.75664
515 4.66569
520 4.11073
525 3.32404
530 4.56114
535 3.57615
540 3.73309
545 5.10579
550 3.21631
555 3.09942
560 4.43362
565 3.55834
570 5.75857
575 3.79151
580 3.97627
585 3.62704
590 2.55585
595 6.02233
600 0.685318
Ex : 218
200 3.03774
205 5.83198
210 1.69098
215 9.06597
220 4.00273
225 2.97857
230 6.3537
235 6.79663
240 2.59342
245 1.83156
250 1.52665
255 4.38173
260 2.72579
265 4.95248
270 2.30233
275 3.34066
280 3.6258
285 2.81057
290 5.88942
295 5.60234
300 2.75723
305 2.14771
310 1.712
315 6.11237
320 3.44585
325 2.24244
330 4.09127
335 4.78224
340 2.71108
345 4.01702
350 4.13105
355 4.435
360 3.71988
365 2.66422
370 2.39462
375 5.5667
380 7.88041
385 4.78933
390 2.92346
395 2.46896
400 2.44007
405 7.02893
410 5.20095
415 5.57091
420 5.89209
425 5.85395
430 2.60654
435 3.76957
440 6.81302
445 4.30273
450 2.61762
455 4.74698
460 3.22598
465 2.5097
470 3.06626
475 3.74784
480 4.26479
485 3.89425
490 5.40476
495 5.34353
500 1.93122
505 4.27518
510 3.03976
515 4.7026
520 6.06939
525 3.33069
530 3.47193
535 5.75865
540 3.65825
545 2.54695
550 6.89555
555 9.39129
560 7.23383
565 4.29466
570 2.46707
575 5.24461
580 6.80615
585 4.21081
590 4.02994
595 1.67483
600 0.190589
Ex : 223
200 3.1465
205 2.78748
210 2.98122
215 3.93154
220 2.9153
225 3.99288
230 3.44037
235 3.10992
240 4.94398
245 5.3144
250 2.7999
255 1.72645
260 4.2284
265 3.82407
270 4.49648
275 4.62096
280 2.48263
285 3.19276
290 6.82328
295 5.44271
300 6.88967
305 9.21707
310 2.91914
315 5.3256
320 2.4744
325 5.49073
330 4.60416
335 3.83522
340 4.60586
345 2.82347
350 3.02236
355 2.82756
360 5.81623
365 4.29757
370 3.36783
375 4.35723
380 3.9188
385 6.75878
390 5.9936
395 8.25965
400 3.72271
405 4.87737
410 3.23185
415 4.32204
420 4.46727
425 7.40046
430 4.50919
435 3.98409
440 4.80183
445 7.40012
450 4.06835
455 1.93488
460 3.65559
465 7.00472
470 3.48854
475 7.35693
480 2.79873
485 4.33594
490 3.31819
495 6.46018
500 3.08194
505 3.34165
510 8.11183
515 3.76106
520 6.37447
525 5.72184
530 4.11964
535 3.62691
540 4.05666
545 5.33575
550 4.88079
555 4.26497
560 5.4881
565 3.22021
570 2.85201
575 2.03282
580 4.41677
585 3.30698
590 3.66501
595 3.52446
600 21.67
Ex : 228
200 5.18644
205 3.3699
210 6.1021
215 3.42158
220 2.67543
225 5.32805
230 6.20779
235 4.69988
240 5.2271
245 3.39059
250 5.15127
255 4.27959
260 2.85187
265 5.56746
270 5.46146
275 3.32934
280 4.93649
285 6.17269
290 3.49819
295 3.33029
300 2.20382
305 2.29356
310 7.4073
315 4.38774
320 3.07379
325 4.47891
330 3.45658
335 3.05196
340 6.09351
345 2.60368
350 4.29814
355 4.54181
360 4.84816
365 6.61355
370 5.24454
375 6.12063
380 3.61751
385 4.63658
390 4.81507
395 6.23483
400 2.80571
405 1.71542
410 1.70849
415 2.30767
420 4.40547
425 3.6836
430 6.49823
435 4.46645
440 5.64607
445 4.26788
450 2.70371
455 2.70758
460 4.20539
465 4.78222
470 3.86486
475 4.20209
480 1.49251
485 4.10853
490 3.52001
495 2.10967
500 3.19245
505 4.5741
510 6.1911
515 4.38956
520 9.31571
525 2.30398
530 4.36993
535 1.84107
540 2.37031
545 6.00618
550 5.37986
555 2.81151
560 6.52852
565 2.92478
570 5.8294
575 3.18123
580 2.15411
585 3.72054
590 5.01195
595 3.58019
600 25.2211
Ex : 233
200 4.29545
205 1.7523
210 3.31108
215 3.57204
220 2.53736
225 2.70522
230 4.00278
235 1.92602
240 4.22442
245 2.4056
250 2.61553
255 2.84301
260 3.21978
265 6.10009
270 4.13784
275 5.16093
280 4.23472
285 3.21315
290 1.80066
295 1.60767
300 2.33175
305 3.65404
310 5.67329
315 2.18504
320 2.15665
325 3.03696
330 6.80852
335 7.93184
340 5.17208
345 4.12438
350 3.86237
355 5.5022
360 3.87389
365 5.22344
370 2.6207
375 6.59366
380 3.96047
385 3.02399
390 5.22879
395 1.85087
400 2.99232
405 4.15763
410 4.70499
415 3.88899
420 2.93189
425 2.45764
430 3.31944
435 6.26839
440 5.74167
445 3.73249
450 5.58675
455 3.79162
460 4.1991
465 5.60651
470 4.84179
475 2.81151
480 3.30124
485 1.5102
490 2.02175
495 2.47671
500 2.57496
505 3.65688
510 5.62453
515 2.8678
520 2.31632
525 4.3111
530 4.85831
535 4.18032
540 4.26553
545 7.02781
550 5.634
555 3.87577
560 3.45824
565 3.70717
570 3.38511
575 6.02919
580 4.2863
585 2.97501
590 2.99254
595 3.79399
600 0.431742
Ex : 238
200 2.63861
205 1.42443
210 1.2331
215 3.55281
220 3.6356
225 1.7472
230 2.866
235 7.64289
240 8.82456
245 6.00994
250 6.40731
255 1.83688
260 8.2786
265 2.58258
270 4.87333
275 2.46531
280 2.50676
285 1.39525
290 3.73329
295 2.82833
300 2.33711
305 2.25581
310 1.98846
315 6.70339
320 3.83306
325 4.87585
330 2.85305
335 4.99063
340 4.23318
345 2.77913
350 5.75193
355 2.55165
360 3.83948
365 5.12678
370 3.62676
375 3.82957
380 1.82717
385 1.11142
390 2.36007
395 2.65553
400 3.21909
405 2.22053
410 3.04796
415 3.97142
420 3.69435
425 4.96742
430 3.96892
435 1.92155
440 3.20644
445 1.52641
450 5.10405
455 3.76851
460 3.43945
465 2.37502
470 3.34244
475 4.15098
480 3.98991
485 4.10857
490 6.78656
495 2.89418
500 2.67779
505 3.55414
510 2.79451
515 2.2818
520 2.95388
525 3.32012
530 2.62161
535 3.69688
540 5.93677
545 5.08896
550 3.39145
555 3.48551
560 6.22026
565 4.18518
570 6.04785
575 2.48595
580 1.43245
585 2.10666
590 2.7881
595 2.70356
600 0.307655
Ex : 243
200 2.125
205 4.25731
210 3.33607
215 2.43131
220 1.6307
225 3.84261
230 2.89775
235 4.91154
240 2.14963
245 2.51016
250 3.64447
255 3.14059
260 1.94148
265 3.24817
270 1.63091
275 3.93916
280 1.51756
285 2.35144
290 3.18467
295 3.02856
300 5.82511
305 3.04317
310 4.94964
315 2.2903
320 2.75308
325 2.22719
330 4.73187
335 3.114
340 4.23245
345 2.05193
350 4.65353
355 3.3142
360 1.71027
365 2.37835
370 2.20853
375 0.91222
380 1.97875
385 6.60584
390 2.81343
395 4.62042
400 2.09627
405 4.92804
410 5.38394
415 3.27128
420 2.01535
425 2.62775
430 2.71988
435 3.53728
440 2.34509
445 4.12468
450 2.36838
455 1.77749
460 1.68955
465 1.64974
470 0.925634
475 4.62843
480 2.79312
485 2.26969
490 2.91299
495 5.01256
500 3.06262
505 4.60083
510 2.06256
515 2.55924
520 4.70684
525 2.54337
530 2.52766
535 3.8895
540 1.2814
545 2.19848
550 3.75068
555 2.42549
560 4.83418
565 1.89868
570 2.2547
575 2.16227
580 2.39573
585 3.87401
590 2.11397
595 2.44869
600 0.278651
Ex : 248
200 0.922222
205 2.62201
210 4.20752
215 1.54343
220 2.02136
225 1.56416
230 1.7177
235 1.50383
240 1.7948
245 1.70397
250 1.68697
255 1.6073
260 2.4174
265 4.52329
270 3.02406
275 2.49677
280 2.74758
285 1.51068
290 2.67113
295 2.27569
300 2.04737
305 2.75694
310 1.06586
315 0.950801
320 1.6529
325 4.56331
330 5.29668
335 1.73582
340 3.62758
345 2.5302
350 1.24824
355 1.82018
360 2.45014
365 3.5229
370 1.0704
375 1.17953
380 2.1243
385 1.93164
390 4.95476
395 2.96253
400 1.70557
405 1.80593
410 3.04452
415 3.0366
420 4.10559
425 2.03678
430 2.05359
435 2.86088
440 2.75453
445 2.07302
450 2.43046
455 2.68285
460 2.22593
465 4.47935
470 5.38546
475 2.82359
480 2.01024
485 1.85025
490 5.23659
495 2.52006
500 3.59614
505 1.72236
510 1.28152
515 2.51736
520 2.5207
525 3.8788
530 3.0081
535 1.32513
540 1.4582
545 2.4801
550 4.1409
555 1.4587
560 3.0992
565 2.74265
570 2.35529
575 1.66562
580 1.99615
585 4.39326
590 3.02083
595 1.67306
600 0.190388
Ex : 253
200 1.3467
205 1.90055
210 2.33148
215 1.19432
220 2.12524
225 2.02994
230 0.707242
235 1.77492
240 1.31037
245 1.44243
250 1.3752
255 1.97901
260 2.52511
265 1.28201
270 1.821
275 1.29694
280 2.28231
285 1.05388
290 0.566861
295 1.37035
300 0.521595
305 1.31968
310 1.75933
315 1.93187
320 1.20423
325 2.44066
330 2.11713
335 3.47582
340 1.96574
345 1.88127
350 1.56856
355 1.53493
360 1.37517
365 1.59624
370 1.2194
375 0.779362
380 3.30985
385 2.93736
390 3.54518
395 3.20075
400 2.14165
405 2.20583
410 1.95833
415 2.43439
420 2.07794
425 2.50965
430 1.84355
435 2.87344
440 3.33596
445 3.7789
450 2.62431
455 2.45193
460 1.33827
465 1.64603
470 2.01335
475 1.92457
480 1.72349
485 1.44394
490 2.40166
495 0.923865
500 1.32523
505 3.51487
510 2.74968
515 1.5277
520 2.47697
525 2.03873
530 0.953995
535 1.6434
540 1.84737
545 1.76924
550 2.48982
555 1.57166
560 1.73665
565 0.778953
570 2.1243
575 2.27556
580 1.43363
585 2.30208
590 1.81406
595 2.94394
600 0.335009
Ex : 258
200 1.47196
205 3.11337
210 2.60648
215 1.45253
220 1.76247
225 0.958447
230 1.98434
235 2.21723
240 1.54045
245 1.08926
250 1.9087
255 1.15422
260 1.54888
265 1.64735
270 1.03402
275 1.16446
280 1.71244
285 1.67384
290 1.32899
295 3.28827
300 1.49618
305 0.969425
310 1.49397
315 1.64235
320 1.56101
325 0.858114
330 1.88852
335 1.72764
340 2.94157
345 1.74236
350 2.02469
355 1.04675
360 1.82527
365 1.7416
370 2.50035
375 1.36321
380 2.20113
385 2.13874
390 2.44629
395 1.17273
400 1.83083
405 1.49881
410 1.06487
415 3.38906
420 1.51411
425 1.96104
430 1.64148
435 2.202
440 2.7118
445 1.26281
450 1.12507
455 3.1601
460 1.85269
465 3.44935
470 3.58703
475 3.05463
480 1.361
485 0.922248
490 1.22128
495 0.833238
500 1.26428
505 0.921852
510 1.00311
515 1.07108
520 1.3348
525 0.670843
530 0.916533
535 0.536143
540 2.29352
545 2.12304
550 1.78245
555 3.22985
560 2.40708
565 2.12966
570 0.732888
575 1.26707
580 1.08783
585 1.13057
590 0.559274
595 0.966412
600 0.109974
Ex : 263
200 0.528269
205 0.715068
210 0.939293
215 1.20597
220 1.53543
225 1.65747
230 1.72219
235 1.50864
240 1.69196
245 1.09127
250 0.890671
255 1.29414
260 1.41829
265 0.697866
270 1.27594
275 1.37177
280 1.14249
285 0.785031
290 0.660268
295 0.307608
300 1.54932
305 0.882725
310 2.29121
315 1.84254
320 1.45004
325 2.01982
330 1.13461
335 1.2329
340 0.926627
345 0.880677
350 1.25777
355 0.842764
360 0.983656
365 0.933257
370 1.33836
375 1.82536
380 1.8744
385 2.12614
390 0.656032
395 1.78183
400 1.44909
405 1.95472
410 1.82582
415 0.877105
420 1.84215
425 1.76829
430 1.17051
435 1.61786
440 1.23918
445 1.30386
450 1.18775
455 1.34662
460 3.00843
465 1.67874
470 1.42673
475 1.5416
480 1.67012
485 0.950543
490 1.07382
495 1.35545
500 1.02017
505 0.933281
510 1.62541
515 1.03858
520 1.05957
525 1.67992
530 0.932093
535 1.35355
540 0.670203
545 1.00654
550 1.07733
555 0.723332
560 0.777033
565 1.21962
570 0.991877
575 1.09772
580 1.73563
585 1.34957
590 0.860016
595 1.29823
600 0.147733
Ex : 268
200 0.465565
205 0.882878
210 0.807727
215 1.29905
220 1.86782
225 1.0084
230 1.97736
235 0.710084
240 0.808936
245 1.14682
250 1.12593
255 0.866426
260 0.714185
265 0.639652
270 1.08752
275 0.612352
280 0.957121
285 0.715139
290 0.458384
295 0.503785
300 0.307669
305 1.07968
310 0.941183
315 0.54524
320 0.856952
325 0.82349
330 1.45634
335 0.802874
340 1.46486
345 0.748751
350 0.987256
355 0.959326
360 2.41084
365 0.961121
370 0.554292
375 1.19826
380 0.87795
385 0.60932
390 0.785897
395 1.2882
400 1.2195
405 0.778606
410 1.71043
415 1.63656
420 1.02201
425 1.59786
430 1.93565
435 1.19695
440 1.06326
445 1.11267
450 1.14823
455 1.73308
460 0.955616
465 1.66458
470 1.44447
475 2.12633
480 2.04371
485 0.656617
490 1.09535
495 1.11287
500 1.19058
505 1.10661
510 0.742953
515 1.86319
520 0.86759
525 0.709523
530 1.08643
535 1.21369
540 1.92691
545 1.113
550 0.850614
555 2.53629
560 1.02216
565 0.847807
570 0.867525
575 0.97645
580 1.65321
585 1.04583
590 1.32198
595 0.611311
600 0.0695649
Ex : 273
200 0.884488
205 0.818953
210 0.544208
215 0.864208
220 0.833746
225 0.914442
230 1.20036
235 1.11733
240 0.615202
245 0.636743
250 0.616982
255 0.93562
260 0.520968
265 0.777854
270 0.549143
275 1.34596
280 0.863118
285 0.455067
290 1.04791
295 1.01536
300 0.449506
305 0.628811
310 1.21054
315 0.826252
320 0.994122
325 1.14036
330 0.791656
335 0.755964
340 0.60549
345 1.12836
350 0.559964
355 0.847555
360 0.972751
365 1.13469
370 0.567201
375 1.01283
380 0.666249
385 1.22074
390 0.908848
395 1.8121
400 1.44186
405 1.2521
410 0.56957
415 1.05853
420 1.67899
425 1.05331
430 0.906605
435 0.925792
440 0.740595
445 0.615999
450 0.651393
455 0.818375
460 0.843598
465 1.09383
470 0.975591
475 1.3646
480 0.72506
485 0.862486
490 0.879564
495 0.758015
500 0.750667
505 1.05612
510 0.797751
515 0.669303
520 0.470032
525 1.38728
530 0.516617
535 1.25176
540 0.999076
545 0.772688
550 0.918057
555 1.02161
560 1.09187
565 0.735224
570 0.600202
575 0.938573
580 0.544963
585 0.901163
590 0.809732
595 0.935045
600 0.106405
Ex : 278
200 0.43521
205 0.709739
210 0.400155
215 0.360703
220 0.911225
225 0.765697
230 0.74085
235 0.600658
240 0.655141
245 0.286559
250 0.351254
255 0.659825
260 0.645874
265 0.919088
270 0.534553
275 0.470036
280 0.560585
285 0.453884
290 0.499956
295 0.483199
300 0.401097
305 0.295847
310 0.50085
315 0.648872
320 0.519795
325 0.465933
330 0.489244
335 1.29829
340 0.626616
345 0.52852
350 0.838096
355 0.874354
360 0.866097
365 0.746387
370 0.590872
375 0.911588
380 0.879866
385 0.684287
390 0.556048
395 1.04588
400 0.665927
405 0.839999
410 0.713124
415 0.728823
420 0.473933
425 0.885562
430 1.55685
435 1.23737
440 0.752673
445 0.730827
450 1.28035
455 0.8545
460 0.401771
465 1.02777
470 0.354436
475 0.665842
480 0.985295
485 0.791732
490 0.56505
495 0.756928
500 0.531663
505 0.818833
510 0.78736
515 0.570634
520 0.710245
525 0.719676
530 0.44891
535 1.16229
540 1.06486
545 0.88782
550 0.909925
555 1.2935
560 0.514901
565 0.411292
570 0.472925
575 0.490838
580 0.885095
585 1.54562
590 0.82076
595 0.434432
600 1.07743
Ex : 283
200 0.822123
205 0.610949
210 0.800124
215 0.900858
220 0.602407
225 0.352429
230 0.370748
235 0.472328
240 0.254587
245 0.752648
250 0.846875
255 1.07956
260 0.814342
265 0.628098
270 0.550973
275 0.439835
280 0.608919
285 0.682818
290 0.517147
295 0.585347
300 0.372562
305 0.347008
310 0.322674
315 0.474857
320 0.449772
325 0.354622
330 0.482786
335 0.4401
340 0.767359
345 0.614398
350 0.644208
355 0.537258
360 1.13881
365 1.20551
370 0.856478
375 0.541559
380 0.442769
385 0.803325
390 0.861941
395 0.880888
400 0.683758
405 0.529521
410 0.578152
415 0.70434
420 0.663846
425 0.922066
430 1.03059
435 0.819805
440 0.534723
445 0.383227
450 0.405421
455 0.645296
460 1.01644
465 0.55576
470 0.352266
475 0.517324
480 0.503621
485 0.306387
490 0.657694
495 0.472405
500 0.315968
505 0.567279
510 0.698718
515 0.604793
520 0.680044
525 0.668633
530 0.430168
535 0.722466
540 0.599446
545 0.866925
550 0.995598
555 0.934172
560 0.66304
565 0.678711
570 0.622744
575 0.454089
580 0.431381
585 0.747351
590 0.564654
595 0.740762
600 0.693561
Ex : 288
200 0.497838
205 0.430925
210 0.370476
215 0.359605
220 0.248756
225 0.148546
230 0.275147
235 0.372244
240 0.349466
245 0.280142
250 0.598096
255 0.703588
260 0.363251
265 0.226077
270 0.490089
275 0.427639
280 0.60261
285 0.738386
290 0.60881
295 0.185886
300 0.374977
305 0.451902
310 0.247246
315 0.251374
320 0.405311
325 0.33169
330 0.602812
335 0.740737
340 0.385991
345 0.711367
350 0.446021
355 0.924132
360 0.422534
365 0.702502
370 0.675212
375 0.362726
380 0.428746
385 0.557732
390 0.634167
395 0.883464
400 0.907879
405 0.467733
410 0.588547
415 0.936478
420 0.932057
425 0.646743
430 0.586457
435 0.321296
440 0.267746
445 0.628077
450 0.85847
455 0.954948
460 0.565435
465 0.399544
470 0.286447
475 0.417352
480 0.413989
485 0.637356
490 0.541859
495 0.310784
500 0.922129
505 0.668436
510 0.295799
515 0.346406
520 0.720727
525 0.256815
530 0.422908
535 0.332818
540 0.383409
545 0.263369
550 0.331491
555 0.578064
560 0.458847
565 0.320525
570 0.552125
575 0.530161
580 0.315281
585 0.545473
590 0.644214
595 0.358339
600 1.01787
Ex : 293
200 0.420244
205 0.261913
210 0.270339
215 0.347976
220 0.483886
225 0.332239
230 0.346512
235 0.26859
240 0.643908
245 0.328394
250 0.113767
255 0.146439
260 0.210241
265 0.336537
270 0.277747
275 0.235162
280 0.202865
285 0.597433
290 0.363387
295 0.498562
300 0.327915
305 0.584132
310 0.550116
315 0.423436
320 0.215287
325 0.490123
330 0.382944
335 0.54098
340 0.319168
345 0.529807
350 0.512377
355 0.504946
360 0.400538
365 0.68803
370 0.528287
375 0.404438
380 0.525815
385 0.467357
390 0.731143
395 0.657488
400 0.579209
405 0.597255
410 0.407423
415 0.644808
420 0.588909
425 0.560454
430 0.386422
435 0.389291
440 0.709423
445 0.373434
450 0.869966
455 0.488109
460 0.832202
465 0.359033
470 0.339868
475 0.423076
480 0.632481
485 0.234217
490 0.304425
495 0.483684
500 0.533026
505 0.347947
510 0.407011
515 0.2655
520 0.500531
525 0.572559
530 0.231109
535 0.304592
540 0.300996
545 0.190669
550 0.371453
555 0.195822
560 0.446328
565 0.588961
570 0.263956
575 0.362482
580 0.352148
585 0.530726
590 0.540992
595 0.577967
600 1.7439
Ex : 298
200 0.193063
205 0.156693
210 0.464622
215 0.176689
220 0.145362
225 0.388295
230 0.235004
235 0.235768
240 0.237344
245 0.25194
250 0.209368
255 0.544033
260 0.321496
265 0.200242
270 0.313834
275 0.297546
280 0.341997
285 0.279077
290 0.355325
295 0.275608
300 0.308405
305 0.635308
310 0.200004
315 0.485464
320 0.227675
325 0.612998
330 0.451045
335 0.341087
340 0.418675
345 0.346154
350 0.420188
355 0.399007
360 0.553322
365 0.513606
370 0.350976
375 0.520683
380 0.428093
385 0.361348
390 0.431685
395 0.482616
400 0.62726
405 0.744731
410 0.903983
415 0.553976
420 0.600608
425 0.413483
430 0.85258
435 0.680147
440 0.349075
445 0.413399
450 0.471382
455 0.432146
460 0.608148
465 0.535307
470 0.49664
475 0.300478
480 0.637971
485 0.248121
490 0.597263
495 0.335019
500 0.310394
505 0.480062
510 0.392564
515 0.432797
520 0.338194
525 0.306034
530 0.277266
535 0.445581
540 0.415757
545 0.481135
550 0.620378
555 0.547878
560 0.273934
565 0.524464
570 0.246294
575 0.183789
580 0.355385
585 0.237421
590 0.218994
595 0.403609
600 0.410837
Ex : 303
200 0.411045
205 0.447364
210 0.16292
215 0.419907
220 0.350347
225 0.201318
230 0.299468
235 0.285117
240 0.100341
245 0.338692
250 0.305709
255 0.253425
260 0.293299
265 0.194665
270 0.282091
275 0.216727
280 0.192494
285 0.496467
290 0.221082
295 0.206203
300 0.317683
305 0.179956
310 0.159901
315 0.356706
320 0.262847
325 0.224113
330 0.346788
335 0.197575
340 0.335344
345 0.44965
350 0.228126
355 0.198643
360 0.719313
365 0.526365
370 0.336837
375 0.395421
380 0.45694
385 0.428167
390 0.357152
395 0.501049
400 0.39956
405 0.69091
410 0.635011
415 0.539386
420 0.616233
425 0.406861
430 0.411583
435 0.654227
440 0.307068
445 0.276988
450 0.306659
455 0.298887
460 0.346749
465 0.204136
470 0.532477
475 0.523346
480 0.333188
485 0.213607
490 0.404008
495 0.349634
500 0.217171
505 0.21683
510 0.114426
515 0.39996
520 0.190344
525 0.22824
530 0.349395
535 0.406987
540 0.226148
545 0.261308
550 0.513668
555 0.294775
560 0.453697
565 0.317419
570 0.376025
575 0.167827
580 0.19109
585 0.243827
590 0.347862
595 0.45042
600 0.0512561
Ex : 308
200 0.306435
205 0.357464
210 0.21414
215 0.130886
220 0.101511
225 0.113025
230 0.184465
235 0.427297
240 0.393345
245 0.183366
250 0.241874
255 0.21857
260 0.167061
265 0.213679
270 0.252757
275 0.171111
280 0.257672
285 0.21856
290 0.276746
295 0.364202
300 0.279282
305 0.461007
310 0.383475
315 0.250758
320 0.19017
325 0.272711
330 0.304404
335 0.70625
340 0.308445
345 0.29901
350 0.302881
355 0.551342
360 0.264922
365 0.372039
370 0.388457
375 0.418339
380 0.43927
385 0.460765
390 0.392212
395 0.536968
400 0.428193
405 0.484082
410 0.584467
415 0.439421
420 0.35976
425 0.497273
430 0.476008
435 0.439097
440 0.425467
445 0.375058
450 0.486401
455 0.597334
460 0.434839
465 0.178458
470 0.324555
475 0.170764
480 0.369713
485 0.269865
490 0.20648
495 0.377606
500 0.395897
505 0.436314
510 0.148908
515 0.477107
520 0.414352
525 0.310098
530 0.257692
535 0.198023
540 0.259735
545 0.186891
550 0.323761
555 0.514101
560 0.217958
565 0.313356
570 0.359482
575 0.334868
580 0.176336
585 0.371385
590 0.492129
595 0.197313
600 0.0224534
Ex : 313
200 0.122498
205 0.0787907
210 0.278213
215 0.174181
220 0.325782
225 0.0987241
230 0.102378
235 0.040281
240 0.212559
245 0.230183
250 0.302657
255 0.167875
260 0.241329
265 0.351413
270 0.241068
275 0.253455
280 0.178316
285 0.161574
290 0.182986
295 0.361816
300 0.233886
305 0.242976
310 0.321332
315 0.243581
320 0.185709
325 0.345268
330 0.243461
335 0.430968
340 0.511023
345 0.36621
350 0.408537
355 0.42211
360 0.555172
365 0.390634
370 0.282889
375 0.750881
380 0.787138
385 0.759623
390 0.930279
395 0.954609
400 0.85239
405 0.737258
410 0.881023
415 0.878381
420 0.731451
425 0.742743
430 0.539806
435 0.788369
440 0.714569
445 0.720368
450 0.685762
455 0.513689
460 0.685263
465 0.575778
470 0.483158
475 0.694415
480 0.487418
485 0.505987
490 0.62755
495 0.389758
500 0.27392
505 0.320828
510 0.360617
515 0.432224
520 0.31378
525 0.458619
530 0.260356
535 0.274933
540 0.251755
545 0.17626
550 0.294242
555 0.29578
560 0.150059
565 0.160924
570 0.218055
575 0.139442
580 0.104354
585 0.186791
590 0.120296
595 0.270087
600 0.0307349
Ex : 318
200 0.200802
205 0.154361
210 0.0594468
215 0.156519
220 0.172933
225 0.223283
230 0.191211
235 0.336731
240 0.135345
245 0.122032
250 0.093055
255 0.14358
260 0.258662
265 0.132476
270 0.22393
275 0.201434
280 0.0627706
285 0.137177
290 0.157873
295 0.163633
300 0.154076
305 0.0949802
310 0.398149
315 0.974404
320 0.616499
325 0.455337
330 0.734906
335 0.980556
340 0.880485
345 1.5939
350 1.79931
355 2.43416
360 3.19224
365 4.04236
370 4.95216
375 5.94279
380 6.39622
385 7.86178
390 7.98667
395 8.91272
400 9.02752
405 9.46547
410 9.4241
415 9.16399
420 9.33554
425 8.66502
430 8.45431
435 7.60931
440 7.24783
445 7.01096
450 6.33755
455 6.16159
460 5.80257
465 5.56243
470 5.17884
475 4.76574
480 3.80167
485 3.79857
490 3.43061
495 3.08932
500 2.47748
505 2.21758
510 1.92864
515 1.6034
520 1.4576
525 1.14774
530 0.881836
535 0.877415
540 0.894242
545 0.472944
550 0.411949
555 0.352474
560 0.544133
565 0.362832
570 0.242787
575 0.351732
580 0.514053
585 0.183549
590 0.214819
595 0.118641
600 0.0135009
Ex : 323
200 0.172208
205 0.119132
210 0.13863
215 0.169583
220 0.0970128
225 0.141861
230 0.184914
235 0.171731
240 0.180846
245 0.133862
250 0.112609
255 0.0708524
260 0.167707
265 0.236564
270 0.150372
275 0.328412
280 0.319868
285 0.171952
290 0.219891
295 0.139738
300 0.172767
305 0.153391
310 0.24783
315 7.83557
320 36.6441
325 15.2846
330 3.45245
335 3.09236
340 3.71662
345 6.2324
350 8.96439
355 12.2156
360 14.346
365 17.1081
370 20.653
375 24.3536
380 27.8658
385 30.8597
390 33.523
395 34.4158
400 36.2748
405 37.1192
410 36.659
415 36.6726
420 35.9019
425 34.694
430 32.7541
435 31.2175
440 30.2807
445 28.0197
450 26.4679
455 25.4179
460 23.5452
465 21.5814
470 20.5114
475 17.9568
480 16.4036
485 15.4196
490 13.9181
495 12.2726
500 10.6654
505 9.10674
510 8.4712
515 6.88352
520 5.74555
525 5.28759
530 4.37407
535 3.7432
540 3.065
545 2.7204
550 1.99967
555 1.66967
560 1.5503
565 1.19719
570 1.03671
575 1.0483
580 0.605275
585 0.514855
590 0.406312
595 0.305535
600 0.0347687
Ex : 328
200 0.156921
205 0.0647624
210 0.106007
215 0.0817559
220 0.200258
225 0.141928
230 0.176354
235 0.19992
240 0.0488206
245 0.244571
250 0.145075
255 0.0634032
260 0.163785
265 0.144164
270 0.247423
275 0.250948
280 0.278625
285 0.172352
290 0.124437
295 0.112628
300 0.27414
305 0.162023
310 0.0889027
315 2.01685
320 85.9816
325 207.738
330 61.1933
335 10.343
340 6.23736
345 6.81589
350 9.04205
355 13.8271
360 18.8869
365 21.1321
370 23.881
375 25.6011
380 29.6825
385 32.4492
390 36.2966
395 38.8665
400 38.9979
405 39.5028
410 40.6853
415 39.6492
420 38.0022
425 36.5273
430 35.4664
435 33.5912
440 33.2171
445 30.0662
450 28.6233
455 25.9991
460 24.9793
465 22.6636
470 20.3755
475 19.4858
480 17.4235
485 15.855
490 14.6138
495 12.9938
500 11.4237
505 10.1834
510 8.73302
515 7.48972
520 6.29643
525 5.60817
530 4.3892
535 4.03798
540 3.4826
545 2.90303
550 2.3487
555 2.32477
560 1.73028
565 1.4714
570 1.09336
575 0.88129
580 0.732081
585 0.596282
590 0.468811
595 0.449471
600 0.0511481
Ex : 333
200 0.208632
205 0.0664794
210 0.142599
215 0.14263
220 0.122833
225 0.103172
230 0.115064
235 0.174901
240 0.177746
245 0.123744
250 0.155132
255 0.141513
260 0.218595
265 0.161787
270 0.0715276
275 0.166273
280 0.229615
285 0.123031
290 0.0800626
295 0.142789
300 0.149587
305 0.159818
310 0.294831
315 0.31304
320 11.7805
325 243.107
330 407.405
335 103.678
340 15.6788
345 6.25487
350 6.2369
355 6.57579
360 9.85919
365 14.7584
370 15.5607
375 15.908
380 16.7768
385 19.3275
390 21.7553
395 22.8801
400 23.129
405 24.0612
410 24.3097
415 24.2561
420 23.0023
425 21.6335
430 20.4717
435 19.1614
440 18.6183
445 17.0165
450 16.7186
455 15.5965
460 14.1378
465 13.1386
470 11.7538
475 10.9425
480 10.1979
485 9.27167
490 8.41789
495 6.95413
500 6.22052
505 5.90801
510 4.58325
515 4.39511
520 3.85397
525 3.28345
530 2.8605
535 2.49029
540 2.21169
545 1.9829
550 1.48927
555 1.42685
560 1.42425
565 1.04411
570 0.812396
575 0.711439
580 0.510924
585 0.402709
590 0.599011
595 0.409969
600 0.754187
Ex : 338
200 0.0909573
205 0.169747
210 0.144813
215 0.173887
220 0.156163
225 0.106249
230 0.155217
235 0.0858692
240 0.117334
245 0.124088
250 0.0824963
255 0.0896946
260 0.254252
265 0.149528
270 0.101915
275 0.193282
280 0.185064
285 0.174853
290 0.146498
295 0.218674
300 0.185382
305 0.128193
310 0.19389
315 0.252386
320 0.266765
325 22.8993
330 367.278
335 535.939
340 132.523
345 18.2394
350 5.45979
355 4.22783
360 4.03379
365 6.02428
370 10.1374
375 10.9825
380 10.1612
385 10.0618
390 12.4366
395 14.665
400 13.8884
405 14.1037
410 14.735
415 15.6687
420 14.6678
425 13.0092
430 12.3068
435 11.6652
440 11.6351
445 10.703
450 9.44864
455 8.56352
460 7.87017
465 7.57417
470 6.52871
475 6.34299
480 5.87318
485 5.20738
490 4.57167
495 4.1278
500 3.75867
505 3.62969
510 2.93335
515 2.28748
520 2.05872
525 1.95785
530 1.83783
535 1.55828
540 1.43406
545 1.24568
550 1.11509
555 0.933277
560 0.94408
565 0.7963
570 0.848164
575 0.557249
580 0.436071
585 0.320122
590 0.408615
595 0.338656
600 0.879128
Ex : 343
200 0.0854989
205 0.121117
210 0.156919
215 0.114714
220 0.110338
225 0.1432
230 0.146381
235 0.0776853
240 0.176745
245 0.0854
250 0.170702
255 0.213175
260 0.146608
265 0.110727
270 0.141296
275 0.13284
280 0.157452
285 0.126005
290 0.138525
295 0.101725
300 0.191496
305 0.143201
310 0.241151
315 0.162421
320 0.270737
325 0.503412
330 26.1534
335 415.825
340 609.676
345 145.444
350 19.3365
355 4.97748
360 3.15996
365 2.52808
370 3.64804
375 6.94824
380 9.68855
385 9.69896
390 11.0143
395 11.6342
400 10.3833
405 10.3246
410 11.9613
415 13.1585
420 12.3709
425 11.0114
430 10.5
435 10.0457
440 9.7844
445 8.59361
450 7.80881
455 7.44537
460 6.85673
465 6.60406
470 6.24861
475 5.40769
480 4.7421
485 4.66976
490 4.46783
495 3.66006
500 3.20965
505 3.03612
510 2.72971
515 2.34719
520 1.84398
525 1.84555
530 1.43129
535 1.27916
540 1.2198
545 1.06537
550 1.17371
555 1.05657
560 0.765492
565 0.705891
570 0.611071
575 0.503576
580 0.472695
585 0.430161
590 0.450213
595 0.274436
600 0.664232
Ex : 348
200 0.118549
205 0.116815
210 0.103784
215 0.0988893
220 0.0765107
225 0.0927625
230 0.13672
235 0.132612
240 0.170708
245 0.204387
250 0.0836035
255 0.104173
260 0.0783001
265 0.0892456
270 0.0871076
275 0.134086
280 0.0902065
285 0.121668
290 0.0767868
295 0.127305
300 0.0926465
305 0.110323
310 0.136894
315 0.150156
320 0.168894
325 0.287349
330 0.555108
335 27.6383
340 427.401
345 651.56
350 166.394
355 21.5574
360 4.57845
365 2.70908
370 1.93174
375 2.61189
380 6.8937
385 12.7544
390 13.8224
395 13.1846
400 12.181
405 12.8015
410 14.0899
415 14.7694
420 14.4443
425 12.4128
430 11.4398
435 11.4302
440 10.811
445 10.1006
450 9.16471
455 8.00596
460 7.42469
465 6.72433
470 6.29765
475 6.06818
480 5.47782
485 4.88914
490 4.72734
495 4.03063
500 3.57639
505 3.04752
510 2.83791
515 2.58307
520 2.32072
525 2.0251
530 1.61213
535 1.56947
540 1.351
545 1.27197
550 1.04641
555 0.976433
560 0.800735
565 0.629938
570 0.719046
575 0.549182
580 0.491384
585 0.395712
590 0.314362
595 0.320369
600 0.824798
Ex : 353
200 0.11836
205 0.117032
210 0.0976833
215 0.144518
220 0.123149
225 0.0651973
230 0.153833
235 0.144386
240 0.166067
245 0.0988275
250 0.143392
255 0.215929
260 0.189743
265 0.092542
270 0.14202
275 0.103707
280 0.176004
285 0.125696
290 0.100248
295 0.0575668
300 0.138642
305 0.186478
310 0.147122
315 0.0767924
320 0.147907
325 0.198529
330 0.244973
335 0.770805
340 29.1267
345 452.148
350 654.091
355 160.804
360 20.48
365 4.25464
370 2.83917
375 2.00713
380 3.29069
385 8.96628
390 16.4004
395 17.114
400 14.5252
405 13.6664
410 15.1646
415 17.4711
420 16.5781
425 14.1436
430 12.1525
435 11.8921
440 12.1674
445 11.4092
450 10.0282
455 8.83541
460 7.79619
465 7.40459
470 7.10928
475 6.67079
480 5.7819
485 5.15451
490 4.81963
495 4.18933
500 3.74047
505 3.38506
510 3.04625
515 2.70505
520 2.25085
525 1.95774
530 1.69501
535 1.54777
540 1.44477
545 1.01418
550 1.17868
555 1.21572
560 0.960453
565 0.919348
570 0.711239
575 0.691117
580 0.434962
585 0.399034
590 0.454473
595 0.296827
600 0.481915
Ex : 358
200 0.190849
205 0.0865344
210 0.140018
215 0.084878
220 0.114145
225 0.0908836
230 0.0991676
235 0.111771
240 0.0983706
245 0.17478
250 0.131617
255 0.0818565
260 0.0802836
265 0.11208
270 0.0599204
275 0.0781695
280 0.0893566
285 0.108296
290 0.102778
295 0.0703065
300 0.118494
305 0.150418
310 0.0847635
315 0.111926
320 0.159873
325 0.190128
330 0.182029
335 0.371305
340 0.796814
345 27.7948
350 438.4
355 668.351
360 167.858
365 21.1176
370 4.48758
375 2.54162
380 3.49747
385 5.92099
390 11.7278
395 16.9664
400 15.1753
405 13.1216
410 14.0458
415 15.4691
420 14.9141
425 12.9503
430 11.6015
435 11.3477
440 11.1446
445 11.1559
450 9.87877
455 9.00467
460 8.18092
465 7.76301
470 6.9841
475 6.29189
480 5.87977
485 5.42326
490 5.02253
495 4.35979
500 4.16045
505 3.43668
510 3.09979
515 2.83959
520 2.77001
525 2.37512
530 1.80451
535 1.61832
540 1.50485
545 1.42244
550 1.27863
555 0.996367
560 0.876456
565 0.681309
570 0.722042
575 0.641754
580 0.40393
585 0.426792
590 0.278357
595 0.24744
600 0.131314
Ex : 363
200 0.113368
205 0.0476581
210 0.05975
215 0.123597
220 0.135837
225 0.129367
230 0.0977161
235 0.0647229
240 0.121521
245 0.0771591
250 0.106575
255 0.101181
260 0.0721318
265 0.0907666
270 0.0940489
275 0.112827
280 0.0518188
285 0.0777597
290 0.07626
295 0.082925
300 0.0896063
305 0.153908
310 0.103937
315 0.187081
320 0.19736
325 0.124331
330 0.226287
335 0.270756
340 0.383659
345 0.583179
350 26.1218
355 431.006
360 679.013
365 175.851
370 22.103
375 4.57481
380 4.61445
385 7.92749
390 11.5278
395 13.4795
400 15.803
405 17.1717
410 17.4973
415 18.255
420 16.4953
425 14.2151
430 13.016
435 12.8435
440 12.5565
445 12.1361
450 10.888
455 9.42453
460 8.57057
465 8.17558
470 7.57153
475 7.03277
480 6.61411
485 5.80806
490 4.87661
495 4.71666
500 4.24249
505 4.13536
510 3.6809
515 3.0879
520 2.47843
525 2.36505
530 2.25729
535 1.93756
540 1.70699
545 1.45879
550 1.32101
555 1.21077
560 0.95588
565 0.752431
570 0.778652
575 0.594675
580 0.433853
585 0.34288
590 0.263157
595 0.327113
600 0.389942
Ex : 368
200 0.102275
205 0.0613876
210 0.106774
215 0.0667451
220 0.0642815
225 0.0787478
230 0.118728
235 0.0722161
240 0.101715
245 0.104034
250 0.0797644
255 0.102894
260 0.0804337
265 0.102765
270 0.114048
275 0.0855109
280 0.100295
285 0.112549
290 0.0773285
295 0.0780005
300 0.0830741
305 0.131672
310 0.137436
315 0.0833983
320 0.103612
325 0.153928
330 0.171548
335 0.146683
340 0.218568
345 0.35788
350 0.72781
355 20.9932
360 421.869
365 698.445
370 184.498
375 23.603
380 6.81834
385 9.71808
390 15.0247
395 17.1621
400 15.6711
405 18.6199
410 23.3806
415 23.6213
420 21.9509
425 18.1311
430 15.9325
435 15.8407
440 15.8159
445 14.2564
450 12.9874
455 11.104
460 10.2571
465 9.47545
470 9.0177
475 8.17626
480 7.5828
485 7.01944
490 6.05666
495 5.36859
500 4.90286
505 4.3807
510 3.87938
515 3.53416
520 2.9281
525 2.473
530 2.39741
535 2.10369
540 1.91945
545 1.67901
550 1.49765
555 1.33126
560 0.967711
565 0.832458
570 0.712469
575 0.589575
580 0.375096
585 0.322523
590 0.373946
595 0.238288
600 0.0271162
Ex : 373
200 0.102516
205 0.0564698
210 0.057165
215 0.0484744
220 0.0990905
225 0.0836345
230 0.0975005
235 0.0791503
240 0.0564555
245 0.0587347
250 0.115636
255 0.131444
260 0.0875488
265 0.134044
270 0.105694
275 0.0898542
280 0.0955016
285 0.0945209
290 0.0737833
295 0.155215
300 0.0895598
305 0.0584585
310 0.0829229
315 0.142604
320 0.123675
325 0.107598
330 0.158045
335 0.187605
340 0.282242
345 0.246142
350 0.456993
355 0.772982
360 25.6942
365 428.131
370 701.391
375 185.074
380 24.5875
385 9.6341
390 14.7331
395 18.3402
400 15.8303
405 15.3614
410 19.1795
415 24.8857
420 23.4007
425 19.3749
430 16.4451
435 15.013
440 14.8258
445 14.4906
450 13.6257
455 11.5226
460 9.90807
465 9.29794
470 8.64621
475 8.12965
480 7.50022
485 6.75844
490 6.01554
495 5.20447
500 4.82821
505 4.33392
510 4.10497
515 3.57287
520 3.06863
525 2.81578
530 2.28938
535 1.91688
540 1.82397
545 1.54453
550 1.39261
555 1.36454
560 1.18514
565 1.06617
570 0.774806
575 0.693326
580 0.452532
585 0.385793
590 0.299702
595 0.340172
600 0.64506
Ex : 378
200 0.057283
205 0.0827144
210 0.0511173
215 0.0869271
220 0.0739378
225 0.0756522
230 0.0537151
235 0.0510426
240 0.122247
245 0.066253
250 0.108202
255 0.0687198
260 0.0869454
265 0.062455
270 0.0919808
275 0.0664147
280 0.0993309
285 0.0790534
290 0.156594
295 0.0634145
300 0.0507857
305 0.11217
310 0.102165
315 0.116082
320 0.131136
325 0.112245
330 0.211307
335 0.16413
340 0.158085
345 0.204203
350 0.288201
355 0.333085
360 0.59166
365 24.3926
370 438.64
375 715.354
380 191.1
385 28.1925
390 12.9394
395 13.1934
400 11.8811
405 11.1194
410 13.7689
415 16.4242
420 18.917
425 16.2119
430 13.6917
435 12.2805
440 12.2866
445 11.2658
450 10.3293
455 8.83922
460 8.45774
465 7.93898
470 7.74022
475 7.18078
480 6.40231
485 5.74536
490 5.12574
495 5.06354
500 4.54822
505 4.03057
510 3.70262
515 3.19678
520 3.03566
525 2.54104
530 2.16737
535 1.94524
540 1.98371
545 1.68915
550 1.49788
555 1.18608
560 1.10319
565 0.891578
570 0.716061
575 0.539129
580 0.403968
585 0.381934
590 0.278031
595 0.231505
600 0.277435
Ex : 383
200 0.0639098
205 0.049589
210 0.0509088
215 0.081854
220 0.0450582
225 0.0443088
230 0.0645189
235 0.0898284
240 0.0869112
245 0.0870131
250 0.066643
255 0.0869905
260 0.102459
265 0.0386789
270 0.056285
275 0.0942195
280 0.103488
285 0.0874516
290 0.0657285
295 0.0996475
300 0.0846251
305 0.0496445
310 0.0874541
315 0.0915948
320 0.0817654
325 0.0961314
330 0.0870272
335 0.112187
340 0.116532
345 0.148496
350 0.246074
355 0.223147
360 0.341166
365 0.717577
370 22.6673
375 434.901
380 748.135
385 207.174
390 33.5448
395 14.2619
400 11.3724
405 11.9955
410 13.5971
415 15.2753
420 15.0688
425 15.0765
430 14.8835
435 13.1846
440 12.8923
445 11.2794
450 10.2073
455 9.12566
460 8.45098
465 7.83293
470 7.67395
475 7.11262
480 6.44606
485 6.05611
490 5.25408
495 5.2762
500 4.6864
505 4.27257
510 3.8015
515 3.48457
520 3.03562
525 2.69242
530 2.57874
535 1.97804
540 1.86469
545 1.61629
550 1.29791
555 1.27569
560 1.08926
565 0.917278
570 0.735558
575 0.595134
580 0.390133
585 0.393509
590 0.300671
595 0.286425
600 0.712947
Ex : 388
200 0.0541127
205 0.0796435
210 0.106046
215 0.0653536
220 0.0768874
225 0.0723039
230 0.0949438
235 0.0947009
240 0.0632996
245 0.0476257
250 0.0661074
255 0.0705578
260 0.0542363
265 0.118763
270 0.0847857
275 0.079541
280 0.0855041
285 0.0725985
290 0.0493669
295 0.0760365
300 0.1159
305 0.0645854
310 0.0748714
315 0.0759135
320 0.0806326
325 0.129878
330 0.098278
335 0.142841
340 0.121857
345 0.133875
350 0.176208
355 0.269684
360 0.327171
365 0.426331
370 0.736405
375 24.954
380 447.61
385 751.475
390 209.432
395 37.4849
400 16.1311
405 14.4864
410 16.7662
415 19.2377
420 18.1814
425 15.8225
430 16.227
435 17.0473
440 16.0323
445 14.3898
450 12.37
455 10.5152
460 9.78046
465 9.26268
470 8.57593
475 8.15606
480 7.12566
485 6.73414
490 6.01265
495 5.249
500 5.18518
505 4.47767
510 4.03027
515 3.76484
520 3.14251
525 2.79857
530 2.38846
535 2.05903
540 1.73983
545 1.49842
550 1.45133
555 1.2307
560 1.13592
565 1.16898
570 0.803747
575 0.53542
580 0.520749
585 0.435759
590 0.324597
595 0.284965
600 0.120372
Ex : 393
200 0.0768242
205 0.114285
210 0.0937843
215 0.0599527
220 0.0769111
225 0.0661284
230 0.0584705
235 0.0731133
240 0.0445509
245 0.0477052
250 0.0870951
255 0.0697247
260 0.0736919
265 0.0548592
270 0.0656406
275 0.0424957
280 0.0684419
285 0.0690196
290 0.0904761
295 0.102771
300 0.105826
305 0.100243
310 0.131548
315 0.188299
320 0.0656156
325 0.102245
330 0.111938
335 0.135731
340 0.145521
345 0.155379
350 0.129174
355 0.151533
360 0.201614
365 0.218356
370 0.366013
375 0.844253
380 22.5248
385 447.076
390 778.678
395 223.023
400 39.2438
405 16.0723
410 16.3068
415 19.9326
420 19.529
425 16.5374
430 14.0818
435 14.7023
440 16.8335
445 16.0415
450 13.5514
455 10.7042
460 9.42087
465 8.76925
470 8.39947
475 7.98119
480 6.92707
485 6.37212
490 5.84471
495 5.14935
500 4.69843
505 4.23922
510 3.88179
515 3.53778
520 3.12339
525 2.80392
530 2.5984
535 2.28589
540 1.9247
545 1.6278
550 1.40849
555 1.22715
560 1.14613
565 0.894152
570 0.726924
575 0.580231
580 0.511692
585 0.354522
590 0.310535
595 0.227811
600 0.569081
Ex : 398
200 0.0440159
205 0.125081
210 0.0961245
215 0.0708964
220 0.111646
225 0.100576
230 0.117345
235 0.0695064
240 0.108606
245 0.070786
250 0.0436913
255 0.0450893
260 0.0448659
265 0.0772965
270 0.0706142
275 0.0695282
280 0.0540805
285 0.0668669
290 0.10123
295 0.0735198
300 0.104429
305 0.0765283
310 0.0831844
315 0.131813
320 0.0983262
325 0.0839562
330 0.0897141
335 0.113904
340 0.122987
345 0.123029
350 0.157039
355 0.146024
360 0.182686
365 0.169234
370 0.318807
375 0.446162
380 1.06651
385 24.6077
390 458.652
395 788.688
400 217.728
405 32.5684
410 12.1032
415 12.46
420 12.7124
425 10.8306
430 8.88496
435 8.34717
440 9.72888
445 11.9325
450 10.5259
455 8.68331
460 7.61897
465 6.61429
470 6.25429
475 5.91243
480 5.56411
485 5.04301
490 4.69174
495 4.24438
500 4.09453
505 3.64638
510 3.35104
515 3.09557
520 2.87656
525 2.45517
530 2.22174
535 2.03766
540 1.82612
545 1.47912
550 1.35079
555 1.25523
560 1.06174
565 0.97634
570 0.73136
575 0.645529
580 0.59102
585 0.374516
590 0.311527
595 0.260295
600 0.0386635
Ex : 403
200 0.0436195
205 0.148413
210 0.0656734
215 0.0477819
220 0.0695897
225 0.0578389
230 0.0547554
235 0.105037
240 0.0900572
245 0.146166
250 0.0786375
255 0.0352399
260 0.0484472
265 0.0586255
270 0.110182
275 0.0416026
280 0.156307
285 0.0672706
290 0.0788634
295 0.0827456
300 0.0996128
305 0.084435
310 0.05299
315 0.0835483
320 0.0914698
325 0.0878357
330 0.0679727
335 0.114678
340 0.0958372
345 0.102858
350 0.150549
355 0.108377
360 0.143982
365 0.143985
370 0.191057
375 0.225368
380 0.527282
385 1.3092
390 27.0184
395 472.834
400 780.943
405 214.264
410 29.1858
415 8.97531
420 6.52149
425 5.78719
430 5.14982
435 4.98297
440 5.3342
445 6.03932
450 7.82192
455 7.97974
460 6.26509
465 5.58136
470 5.23064
475 4.83929
480 4.58598
485 4.4426
490 3.78
495 3.79144
500 3.4902
505 3.22864
510 3.17768
515 2.94905
520 2.52234
525 2.32376
530 2.02163
535 1.77426
540 1.75341
545 1.45963
550 1.34042
555 1.04459
560 1.05553
565 0.969049
570 0.735487
575 0.604112
580 0.508003
585 0.336686
590 0.267009
595 0.225472
600 0.113671
Ex : 408
200 0.057827
205 0.0765267
210 0.11471
215 0.114255
220 0.068024
225 0.113371
230 0.0599453
235 0.0748075
240 0.050644
245 0.075422
250 0.0784256
255 0.0556279
260 0.0653187
265 0.0859227
270 0.0754654
275 0.0952336
280 0.0808007
285 0.0485897
290 0.111141
295 0.0584606
300 0.127353
305 0.0596089
310 0.0818902
315 0.0511685
320 0.0740091
325 0.0739211
330 0.0855529
335 0.0785028
340 0.0999821
345 0.0776882
350 0.110408
355 0.108479
360 0.21554
365 0.126323
370 0.156932
375 0.180071
380 0.307451
385 0.511337
390 1.03408
395 25.2493
400 484.335
405 798.895
410 211.991
415 29.1447
420 7.88606
425 5.27067
430 5.03065
435 4.96382
440 5.02705
445 5.24741
450 5.36527
455 6.50124
460 7.4628
465 6.51578
470 5.80425
475 5.2694
480 4.52225
485 4.17022
490 4.01822
495 3.60429
500 3.56488
505 3.36897
510 3.07726
515 2.79093
520 2.45226
525 2.33233
530 2.08706
535 1.96363
540 1.65112
545 1.42266
550 1.31233
555 1.16538
560 1.04693
565 0.91483
570 0.678747
575 0.632941
580 0.460495
585 0.363323
590 0.285977
595 0.184617
600 0.367653
Ex : 413
200 0.0297595
205 0.0538566
210 0.0561874
215 0.0415332
220 0.0656116
225 0.0739744
230 0.0810025
235 0.0700412
240 0.0975411
245 0.0689156
250 0.0575786
255 0.0503338
260 0.0598623
265 0.052736
270 0.0676716
275 0.124116
280 0.0601892
285 0.0828096
290 0.0820712
295 0.0432174
300 0.109413
305 0.0567539
310 0.0864209
315 0.0412741
320 0.109883
325 0.128583
330 0.0725079
335 0.0653911
340 0.0893419
345 0.0856697
350 0.0978369
355 0.0751113
360 0.137032
365 0.109573
370 0.185077
375 0.174071
380 0.192876
385 0.268683
390 0.488389
395 0.956485
400 28.9529
405 498.476
410 806.4
415 210.231
420 28.5798
425 7.05761
430 4.45898
435 4.76189
440 4.84121
445 4.80041
450 4.68001
455 4.37567
460 5.22185
465 6.74837
470 6.35086
475 5.37154
480 4.83869
485 4.13389
490 3.74982
495 3.48242
500 3.49247
505 2.98681
510 2.86714
515 2.76851
520 2.33735
525 2.16939
530 1.94776
535 1.87079
540 1.53882
545 1.38736
550 1.22626
555 1.13353
560 0.951103
565 0.839655
570 0.666229
575 0.580408
580 0.490583
585 0.326811
590 0.272459
595 0.228844
600 0.0260416
Ex : 418
200 0.0674856
205 0.0571929
210 0.07544
215 0.0773984
220 0.0406511
225 0.0645957
230 0.0618473
235 0.0651865
240 0.0978541
245 0.0586707
250 0.123155
255 0.0562048
260 0.0549176
265 0.0507529
270 0.0964611
275 0.0804266
280 0.098866
285 0.0872029
290 0.110702
295 0.0597509
300 0.0610126
305 0.0821023
310 0.0542407
315 0.0523523
320 0.0955214
325 0.0514065
330 0.0768761
335 0.0735787
340 0.118112
345 0.0851847
350 0.121031
355 0.117678
360 0.0935282
365 0.0884099
370 0.0953213
375 0.173319
380 0.168621
385 0.229756
390 0.308653
395 0.560772
400 0.857379
405 26.2729
410 494.518
415 813.074
420 216.62
425 27.8151
430 5.71721
435 3.16828
440 3.45373
445 3.26518
450 3.24493
455 2.88529
460 2.89017
465 3.58003
470 5.26493
475 5.45843
480 4.14664
485 3.87471
490 3.32447
495 2.95128
500 2.74128
505 2.64983
510 2.47719
515 2.30681
520 2.02508
525 2.01662
530 1.793
535 1.57704
540 1.53716
545 1.3358
550 1.25419
555 1.04933
560 0.905881
565 0.854149
570 0.724098
575 0.606129
580 0.501125
585 0.297159
590 0.248727
595 0.238968
600 0.203846
Ex : 423
200 0.0664436
205 0.0311429
210 0.0461701
215 0.0690907
220 0.0876567
225 0.0684749
230 0.0538524
235 0.0788409
240 0.0475386
245 0.0746639
250 0.0838307
255 0.0771214
260 0.0554697
265 0.0366507
270 0.122788
275 0.0662211
280 0.0639628
285 0.0663775
290 0.0525912
295 0.0589141
300 0.0461158
305 0.0946327
310 0.0459169
315 0.075143
320 0.0790073
325 0.0949725
330 0.121067
335 0.0887885
340 0.0778042
345 0.0814399
350 0.0935252
355 0.0593468
360 0.0717729
365 0.0657537
370 0.0906873
375 0.132367
380 0.182016
385 0.1885
390 0.190231
395 0.300926
400 0.475083
405 0.958398
410 27.09
415 514.221
420 806.7
425 203.171
430 25.5704
435 4.82426
440 2.41112
445 2.38379
450 2.12714
455 2.03252
460 1.89086
465 1.91935
470 2.49082
475 4.19309
480 4.71644
485 3.6207
490 2.96394
495 3.00511
500 2.44943
505 2.21344
510 2.17907
515 1.93768
520 1.98639
525 1.85261
530 1.55111
535 1.47051
540 1.43888
545 1.27951
550 1.1612
555 0.982684
560 0.929555
565 0.769584
570 0.746348
575 0.609363
580 0.378276
585 0.330178
590 0.282255
595 0.261276
600 0.0412789
Ex : 428
200 0.0267864
205 0.100749
210 0.0833173
215 0.106128
220 0.0536719
225 0.0842147
230 0.0686588
235 0.0516909
240 0.0591888
245 0.067642
250 0.0681636
255 0.0310295
260 0.0783975
265 0.0715786
270 0.060409
275 0.043313
280 0.0529735
285 0.0717069
290 0.097119
295 0.0904493
300 0.0671071
305 0.0434621
310 0.057984
315 0.0779629
320 0.0725715
325 0.0898805
330 0.0775365
335 0.094072
340 0.0894803
345 0.100802
350 0.157955
355 0.139743
360 0.1047
365 0.0845726
370 0.113634
375 0.0973045
380 0.113341
385 0.149237
390 0.149687
395 0.221651
400 0.287141
405 0.561665
410 0.987525
415 29.9993
420 517.335
425 827.841
430 216.298
435 26.7312
440 4.54103
445 1.98096
450 1.78665
455 1.94587
460 1.57346
465 1.53907
470 1.52698
475 1.90784
480 3.0667
485 4.43412
490 3.42008
495 2.68521
500 2.43789
505 2.11781
510 2.05628
515 1.80854
520 1.67113
525 1.66706
530 1.49119
535 1.41424
540 1.20831
545 1.14717
550 1.09516
555 1.08554
560 0.877679
565 0.618469
570 0.612703
575 0.59501
580 0.456572
585 0.300285
590 0.279728
595 0.214996
600 0.0946601
Ex : 433
200 0.0815634
205 0.0590411
210 0.0636904
215 0.0515507
220 0.056758
225 0.0472605
230 0.0670555
235 0.0540708
240 0.0975408
245 0.0616217
250 0.0529895
255 0.0660632
260 0.0473983
265 0.0592025
270 0.0687333
275 0.0519708
280 0.0866336
285 0.0533397
290 0.0696152
295 0.0635062
300 0.0390323
305 0.0909842
310 0.103175
315 0.0577868
320 0.0389483
325 0.0650194
330 0.0650126
335 0.104411
340 0.067376
345 0.0932934
350 0.0652454
355 0.082163
360 0.0981929
365 0.0899731
370 0.07959
375 0.122999
380 0.106095
385 0.150489
390 0.172806
395 0.163949
400 0.236131
405 0.281534
410 0.588231
415 0.962768
420 32.3577
425 556.844
430 842.046
435 209.156
440 25.6164
445 4.20974
450 1.7234
455 1.75452
460 1.68258
465 1.56032
470 1.56005
475 1.49163
480 1.62503
485 2.54028
490 4.11244
495 3.72179
500 2.76042
505 2.36883
510 1.93347
515 1.77838
520 1.72376
525 1.57559
530 1.39703
535 1.31266
540 1.37709
545 1.09065
550 0.981735
555 0.883403
560 0.818559
565 0.709713
570 0.713176
575 0.443151
580 0.354223
585 0.352352
590 0.269154
595 0.21439
600 0.637578
Ex : 438
200 0.0551125
205 0.0715969
210 0.0616082
215 0.0590742
220 0.0981988
225 0.0617122
230 0.0987037
235 0.0629668
240 0.0438967
245 0.0523578
250 0.0381298
255 0.0860612
260 0.0579575
265 0.0610406
270 0.027769
275 0.042964
280 0.0907101
285 0.0618509
290 0.0537253
295 0.047377
300 0.0691607
305 0.106845
310 0.0898609
315 0.0576013
320 0.0674671
325 0.084613
330 0.0820372
335 0.0791259
340 0.0806424
345 0.0941543
350 0.0921623
355 0.0850473
360 0.0833806
365 0.100964
370 0.115001
375 0.116761
380 0.102853
385 0.114801
390 0.138249
395 0.167983
400 0.172546
405 0.283055
410 0.427937
415 0.502254
420 0.810303
425 31.9145
430 555.998
435 892.55
440 223.81
445 27.3315
450 4.57365
455 1.6373
460 1.51001
465 1.83304
470 1.63212
475 1.46169
480 1.50869
485 1.52395
490 1.96329
495 3.67828
500 3.83807
505 2.72494
510 2.22604
515 2.05444
520 1.71619
525 1.47504
530 1.30101
535 1.34237
540 1.15509
545 1.04304
550 0.839555
555 0.85909
560 0.788564
565 0.6566
570 0.514847
575 0.501654
580 0.411976
585 0.396871
590 0.338203
595 0.257303
600 0.300146
Ex : 443
200 0.0797728
205 0.0699306
210 0.0893337
215 0.112503
220 0.0483794
225 0.0715632
230 0.066421
235 0.0577895
240 0.08392
245 0.0790167
250 0.0916956
255 0.115694
260 0.083723
265 0.0792689
270 0.0947477
275 0.0731121
280 0.0737453
285 0.0972623
290 0.101957
295 0.0648515
300 0.0584237
305 0.0979957
310 0.0524332
315 0.0794836
320 0.0492364
325 0.109144
330 0.0739751
335 0.104671
340 0.0468459
345 0.0625375
350 0.0530985
355 0.0756142
360 0.0642104
365 0.0647831
370 0.0940319
375 0.156751
380 0.143653
385 0.118965
390 0.127395
395 0.122671
400 0.139754
405 0.128641
410 0.270592
415 0.314144
420 0.569477
425 0.861912
430 36.1514
435 595.574
440 905.815
445 225.576
450 27.5473
455 4.69393
460 1.72822
465 1.68256
470 1.70948
475 1.53046
480 1.26775
485 1.30524
490 1.48336
495 1.62476
500 2.78528
505 3.67697
510 2.75374
515 2.00017
520 1.92173
525 1.44794
530 1.3253
535 1.20343
540 1.15526
545 0.952709
550 0.955357
555 0.891541
560 0.82495
565 0.683324
570 0.637878
575 0.47678
580 0.457654
585 0.384334
590 0.295274
595 0.270508
600 0.389414
Ex : 448
200 0.0327594
205 0.0387791
210 0.0671354
215 0.0869373
220 0.0892258
225 0.0617569
230 0.0424931
235 0.111254
240 0.0547587
245 0.0364388
250 0.0692856
255 0.0544142
260 0.069599
265 0.0695981
270 0.130584
275 0.0828983
280 0.105968
285 0.0693227
290 0.0924204
295 0.104765
300 0.114081
305 0.079908
310 0.0585124
315 0.0552742
320 0.156426
325 0.132395
330 0.12066
335 0.116773
340 0.0781656
345 0.0787128
350 0.0796808
355 0.09818
360 0.0810084
365 0.125395
370 0.0905312
375 0.139769
380 0.146321
385 0.127756
390 0.147565
395 0.166303
400 0.174471
405 0.170117
410 0.182612
415 0.229337
420 0.294603
425 0.54897
430 1.04269
435 35.992
440 623.038
445 950.539
450 236.377
455 28.7701
460 4.70144
465 2.0049
470 1.57239
475 1.86134
480 1.55284
485 1.34993
490 1.30876
495 1.24916
500 1.45334
505 2.09799
510 3.4929
515 2.90765
520 2.10314
525 1.92906
530 1.71121
535 1.1613
540 1.20721
545 1.10003
550 0.962519
555 0.88377
560 0.768557
565 0.732126
570 0.595472
575 0.445213
580 0.356
585 0.371929
590 0.252417
595 0.220018
600 0.12052
Ex : 453
200 0.0810525
205 0.0818532
210 0.0530398
215 0.0711662
220 0.0796044
225 0.0780117
230 0.0708403
235 0.0943947
240 0.108596
245 0.0506692
250 0.06135
255 0.0441732
260 0.0836839
265 0.0570377
270 0.0717694
275 0.0486109
280 0.0668607
285 0.0483589
290 0.0689853
295 0.0699717
300 0.116475
305 0.0624207
310 0.0509147
315 0.0725773
320 0.0571308
325 0.0709549
330 0.0509911
335 0.0529411
340 0.0981827
345 0.062278
350 0.0510848
355 0.0677522
360 0.119815
365 0.0645186
370 0.0753876
375 0.0679543
380 0.0982836
385 0.142191
390 0.0938152
395 0.113036
400 0.147187
405 0.161193
410 0.207332
415 0.219336
420 0.244586
425 0.330805
430 0.49211
435 0.952554
440 38.5988
445 683.636
450 998.971
455 234.637
460 28.7753
465 4.86883
470 1.74313
475 1.39988
480 1.70598
485 1.6134
490 1.28975
495 1.21424
500 1.25025
505 1.26578
510 1.66194
515 3.07228
520 3.11639
525 2.11289
530 1.83029
535 1.54173
540 1.24974
545 1.07634
550 0.881877
555 0.884561
560 0.800964
565 0.717588
570 0.590689
575 0.484652
580 0.432818
585 0.330009
590 0.328969
595 0.236649
600 0.263066
Ex : 458
200 0.0324459
205 0.0475781
210 0.104321
215 0.0640744
220 0.0591438
225 0.103151
230 0.0629124
235 0.0396237
240 0.082024
245 0.104173
250 0.122846
255 0.10152
260 0.0811789
265 0.0386672
270 0.0597966
275 0.0790856
280 0.0407364
285 0.0660219
290 0.07604
295 0.0552844
300 0.0831926
305 0.0769674
310 0.075911
315 0.0712468
320 0.100717
325 0.0586931
330 0.0919661
335 0.0549493
340 0.120257
345 0.0770745
350 0.103248
355 0.0794917
360 0.0778664
365 0.119472
370 0.104209
375 0.103372
380 0.112915
385 0.111678
390 0.0837322
395 0.0957336
400 0.188065
405 0.176869
410 0.101226
415 0.196869
420 0.155313
425 0.217595
430 0.330016
435 0.58096
440 0.989558
445 43.7374
450 714.087
455 1057.64
460 256.217
465 31.4147
470 5.18708
475 1.83177
480 1.63395
485 1.5603
490 1.45828
495 1.24208
500 1.08196
505 1.15439
510 1.18947
515 1.48433
520 2.34367
525 2.91658
530 2.22269
535 1.58742
540 1.56901
545 1.17544
550 0.932966
555 0.896393
560 0.742691
565 0.689826
570 0.626957
575 0.599627
580 0.439143
585 0.341043
590 0.289068
595 0.23603
600 0.471404
Ex : 463
200 0.0730166
205 0.0614192
210 0.0333289
215 0.0464895
220 0.0382018
225 0.114895
230 0.0653232
235 0.114735
240 0.10199
245 0.131687
250 0.100058
255 0.0603639
260 0.054047
265 0.049232
270 0.0729716
275 0.0769031
280 0.092836
285 0.0735634
290 0.0754005
295 0.103877
300 0.120572
305 0.0836568
310 0.0643332
315 0.0479993
320 0.0606668
325 0.102461
330 0.13855
335 0.0634008
340 0.0399915
345 0.0882667
350 0.0773725
355 0.15187
360 0.0650259
365 0.128626
370 0.102322
375 0.0887305
380 0.134792
385 0.0922252
390 0.0853644
395 0.119805
400 0.183454
405 0.151141
410 0.146437
415 0.196972
420 0.165508
425 0.191376
430 0.336284
435 0.367006
440 0.601157
445 1.14335
450 43.0249
455 747.045
460 1144.7
465 277.85
470 33.8787
475 5.44916
480 1.85624
485 1.35421
490 1.61649
495 1.5353
500 1.19242
505 1.0682
510 1.07476
515 1.16795
520 1.3504
525 1.97254
530 3.0116
535 2.52074
540 1.58656
545 1.45375
550 1.40443
555 1.00333
560 0.781706
565 0.760312
570 0.583243
575 0.54407
580 0.423605
585 0.421264
590 0.350062
595 0.296918
600 0.0768862
Ex : 468
200 0.0463443
205 0.051342
210 0.0717963
215 0.0578176
220 0.045835
225 0.0391134
230 0.111098
235 0.0740918
240 0.0831219
245 0.10056
250 0.0678772
255 0.0569416
260 0.0823084
265 0.0912502
270 0.0971516
275 0.0707522
280 0.0977722
285 0.0588207
290 0.0556698
295 0.0693446
300 0.103302
305 0.111294
310 0.0561425
315 0.0718105
320 0.0549975
325 0.0453116
330 0.0841359
335 0.0765036
340 0.0739078
345 0.0752532
350 0.056728
355 0.0942962
360 0.106442
365 0.0724169
370 0.106856
375 0.0866155
380 0.0705022
385 0.127037
390 0.11985
395 0.0901067
400 0.0819841
405 0.134243
410 0.123835
415 0.11254
420 0.149056
425 0.213182
430 0.184395
435 0.276094
440 0.335011
445 0.533173
450 1.01583
455 47.5376
460 771.011
465 1218.99
470 294.11
475 35.5421
480 5.4717
485 1.85006
490 1.31659
495 1.41684
500 1.50214
505 1.30489
510 1.08635
515 1.11869
520 1.17164
525 1.13209
530 1.5475
535 2.59863
540 2.75747
545 1.801
550 1.47378
555 1.26019
560 1.00557
565 0.654681
570 0.712263
575 0.632655
580 0.474782
585 0.388308
590 0.367659
595 0.31152
600 0.362328
Ex : 473
200 0.0829563
205 0.0502954
210 0.0594681
215 0.0523585
220 0.0907009
225 0.0548685
230 0.0728841
235 0.0597553
240 0.0570779
245 0.133419
250 0.131727
255 0.0625784
260 0.0406336
265 0.0596399
270 0.0548104
275 0.0584175
280 0.0978917
285 0.0796169
290 0.0834742
295 0.0788961
300 0.139128
305 0.101842
310 0.0589093
315 0.0639971
320 0.0854157
325 0.0897138
330 0.0642739
335 0.054742
340 0.0873508
345 0.134458
350 0.0727043
355 0.0989906
360 0.0588532
365 0.0930547
370 0.121173
375 0.0953751
380 0.0883053
385 0.0909091
390 0.082145
395 0.113791
400 0.110091
405 0.0931422
410 0.179096
415 0.142624
420 0.135853
425 0.151978
430 0.144418
435 0.229244
440 0.28649
445 0.331408
450 0.618986
455 1.25862
460 57.2764
465 867.525
470 1210.2
475 280.264
480 33.9525
485 5.31491
490 1.72231
495 1.34136
500 1.29386
505 1.33493
510 1.08649
515 1.0735
520 1.1374
525 1.05988
530 1.08506
535 1.3592
540 2.28017
545 2.66307
550 1.70306
555 1.38577
560 1.21519
565 1.02005
570 0.778383
575 0.497401
580 0.515038
585 0.480334
590 0.341237
595 0.398973
600 0.324581
Ex : 478
200 0.0741601
205 0.0886382
210 0.0981914
215 0.0847567
220 0.0764495
225 0.0841149
230 0.0581618
235 0.0445966
240 0.0735088
245 0.0728988
250 0.106812
255 0.075904
260 0.122972
265 0.090048
270 0.120147
275 0.0915559
280 0.0565635
285 0.0894649
290 0.100678
295 0.0704328
300 0.106375
305 0.0794786
310 0.0678354
315 0.101208
320 0.0668398
325 0.0738629
330 0.105809
335 0.118463
340 0.163206
345 0.0864953
350 0.0881554
355 0.106793
360 0.132785
365 0.0792534
370 0.120548
375 0.101218
380 0.119358
385 0.108749
390 0.1299
395 0.11301
400 0.123106
405 0.12485
410 0.138254
415 0.132771
420 0.157716
425 0.180121
430 0.184255
435 0.177418
440 0.258161
445 0.417522
450 0.47373
455 0.796323
460 1.48197
465 63.3035
470 904.689
475 1250.79
480 302.212
485 36.5448
490 5.6758
495 1.84551
500 1.23262
505 1.14873
510 1.4004
515 1.20601
520 1.04245
525 0.945835
530 1.0722
535 1.11702
540 1.11944
545 1.69217
550 2.50247
555 2.04158
560 1.30495
565 1.06512
570 0.830809
575 0.663118
580 0.429257
585 0.336521
590 0.215968
595 0.209774
600 0.159736
Ex : 483
200 0.0639516
205 0.0645716
210 0.0765047
215 0.0814299
220 0.047935
225 0.0558982
230 0.110585
235 0.0519169
240 0.074123
245 0.074213
250 0.0860645
255 0.081318
260 0.0376916
265 0.075521
270 0.0777142
275 0.164385
280 0.104974
285 0.0607642
290 0.076544
295 0.0938825
300 0.11337
305 0.0626761
310 0.0756931
315 0.07204
320 0.113341
325 0.0999805
330 0.109548
335 0.148907
340 0.096515
345 0.110083
350 0.0996776
355 0.120715
360 0.158477
365 0.123009
370 0.181802
375 0.132308
380 0.103064
385 0.117149
390 0.0843605
395 0.0849744
400 0.119547
405 0.160588
410 0.134432
415 0.134388
420 0.0989697
425 0.155787
430 0.175155
435 0.106844
440 0.246205
445 0.260197
450 0.347043
455 0.512672
460 0.766877
465 1.44712
470 49.7523
475 884.992
480 1351.79
485 324.831
490 39.1183
495 5.78472
500 1.88812
505 1.00516
510 1.20215
515 1.22471
520 1.20684
525 1.12016
530 1.08628
535 0.906404
540 0.880966
545 0.954418
550 1.13231
555 2.04267
560 2.15627
565 1.21706
570 0.897037
575 0.859628
580 0.639768
585 0.406202
590 0.374273
595 0.364064
600 0.161021
Ex : 488
200 0.0935449
205 0.194921
210 0.1109
215 0.0644989
220 0.106951
225 0.0956936
230 0.102642
235 0.0856056
240 0.0797287
245 0.0819708
250 0.178444
255 0.111955
260 0.123148
265 0.0923599
270 0.0659286
275 0.0513723
280 0.0858189
285 0.0718868
290 0.0867556
295 0.101532
300 0.0936959
305 0.120133
310 0.0802174
315 0.0638223
320 0.114072
325 0.120064
330 0.160071
335 0.0968317
340 0.088885
345 0.129577
350 0.124896
355 0.134411
360 0.126946
365 0.121535
370 0.109771
375 0.108067
380 0.113548
385 0.107647
390 0.141256
395 0.135035
400 0.118137
405 0.101876
410 0.0921496
415 0.120398
420 0.144779
425 0.135225
430 0.185124
435 0.145792
440 0.191565
445 0.223699
450 0.242071
455 0.353605
460 0.565234
465 0.860826
470 1.51561
475 61.8229
480 982.911
485 1369.5
490 322.551
495 38.6333
500 5.87932
505 1.77015
510 1.221
515 1.27247
520 1.3622
525 1.28459
530 1.31713
535 0.961298
540 0.994132
545 0.958879
550 0.734696
555 0.930797
560 1.53914
565 1.94878
570 1.33459
575 0.830605
580 0.667424
585 0.542459
590 0.447512
595 0.32563
600 0.0370555
Ex : 493
200 0.0638087
205 0.129057
210 0.0758204
215 0.0880569
220 0.1794
225 0.18981
230 0.122402
235 0.0761909
240 0.128753
245 0.0883747
250 0.113573
255 0.136592
260 0.0818456
265 0.0792304
270 0.143903
275 0.121362
280 0.0807363
285 0.0660627
290 0.0987398
295 0.0876719
300 0.117607
305 0.116192
310 0.155641
315 0.0979451
320 0.116531
325 0.120443
330 0.145468
335 0.105488
340 0.0993537
345 0.0832779
350 0.120723
355 0.0754447
360 0.113615
365 0.0790911
370 0.133618
375 0.0759813
380 0.124469
385 0.188893
390 0.153921
395 0.135409
400 0.120742
405 0.106231
410 0.171897
415 0.145552
420 0.184095
425 0.199748
430 0.200408
435 0.152824
440 0.204987
445 0.197591
450 0.205608
455 0.254476
460 0.399313
465 0.558129
470 0.821397
475 1.45544
480 58.4222
485 987.36
490 1476.61
495 338.263
500 40.4346
505 6.02786
510 1.83741
515 1.23975
520 1.3487
525 1.371
530 1.23907
535 1.25562
540 0.935587
545 0.87828
550 0.786041
555 0.852796
560 0.752826
565 1.05506
570 1.67485
575 1.50923
580 0.714489
585 0.582389
590 0.494797
595 0.424771
600 0.25805
Ex : 498
200 0.0962779
205 0.0871475
210 0.106521
215 0.0592147
220 0.067492
225 0.148196
230 0.0915061
235 0.115274
240 0.093084
245 0.16131
250 0.0904396
255 0.111254
260 0.0833533
265 0.12726
270 0.104039
275 0.0923627
280 0.152819
285 0.117779
290 0.0829386
295 0.115843
300 0.116732
305 0.0675575
310 0.0556267
315 0.0997083
320 0.0544701
325 0.103267
330 0.112363
335 0.0948292
340 0.112946
345 0.129617
350 0.116926
355 0.174458
360 0.149571
365 0.124067
370 0.0957961
375 0.0906747
380 0.0846158
385 0.110308
390 0.166362
395 0.128754
400 0.20707
405 0.152024
410 0.167554
415 0.172911
420 0.192209
425 0.174581
430 0.120889
435 0.164086
440 0.1771
445 0.224308
450 0.256929
455 0.226123
460 0.355482
465 0.406499
470 0.662536
475 0.890392
480 1.62058
485 72.7183
490 1065.55
495 1457.56
500 339.569
505 40.8628
510 6.05253
515 1.92213
520 1.19195
525 1.24453
530 1.41642
535 1.24908
540 1.16234
545 0.932313
550 0.784139
555 0.767477
560 0.761674
565 0.617758
570 0.898168
575 1.27137
580 1.23282
585 0.83766
590 0.491553
595 0.421101
600 0.380246
Ex : 503
200 0.129968
205 0.140409
210 0.111937
215 0.105414
220 0.120445
225 0.181807
230 0.0907644
235 0.115836
240 0.0690241
245 0.133452
250 0.107919
255 0.156889
260 0.105901
265 0.0794868
270 0.10077
275 0.0839748
280 0.0723712
285 0.0617142
290 0.116401
295 0.0965933
300 0.114179
305 0.139687
310 0.115343
315 0.14549
320 0.129327
325 0.105323
330 0.0970677
335 0.0758513
340 0.139176
345 0.0748741
350 0.175376
355 0.10429
360 0.131013
365 0.112553
370 0.122997
375 0.138765
380 0.129807
385 0.122053
390 0.135034
395 0.103799
400 0.119783
405 0.136527
410 0.162752
415 0.147718
420 0.222426
425 0.217932
430 0.218279
435 0.218679
440 0.223444
445 0.211162
450 0.289288
455 0.25047
460 0.252568
465 0.341795
470 0.429026
475 0.621218
480 0.785591
485 1.51822
490 64.6951
495 1061.14
500 1501.7
505 347.529
510 42.0172
515 6.13542
520 2.05327
525 1.29122
530 1.10484
535 1.2021
540 1.20992
545 1.0316
550 0.96196
555 0.676026
560 0.712899
565 0.65842
570 0.570876
575 0.563312
580 0.687015
585 1.04611
590 0.699731
595 0.476458
600 0.703047
Ex : 508
200 0.0700499
205 0.0907743
210 0.176146
215 0.0936274
220 0.0966984
225 0.0940794
230 0.164948
235 0.187987
240 0.134673
245 0.140441
250 0.117723
255 0.123249
260 0.166179
265 0.160979
270 0.117765
275 0.12961
280 0.12256
285 0.0815945
290 0.0469568
295 0.102036
300 0.147285
305 0.111638
310 0.151189
315 0.115262
320 0.12052
325 0.135132
330 0.160542
335 0.185501
340 0.125414
345 0.140268
350 0.170034
355 0.107728
360 0.27017
365 0.150491
370 0.159331
375 0.0943461
380 0.101676
385 0.153123
390 0.209515
395 0.179349
400 0.136133
405 0.132528
410 0.128838
415 0.127463
420 0.120026
425 0.173345
430 0.131125
435 0.102697
440 0.149618
445 0.148679
450 0.192016
455 0.292794
460 0.29844
465 0.258719
470 0.424309
475 0.443076
480 0.60499
485 0.739995
490 1.52393
495 70.3316
500 1084.24
505 1532.74
510 370.723
515 44.5623
520 6.5
525 1.95176
530 1.24292
535 1.06571
540 1.07205
545 1.16302
550 0.945533
555 0.763389
560 0.742565
565 0.596558
570 0.599725
575 0.521441
580 0.467698
585 0.485166
590 0.729915
595 0.729029
600 0.793557
Ex : 513
200 0.0694076
205 0.108662
210 0.120789
215 0.0989055
220 0.140362
225 0.0984704
230 0.0692308
235 0.0988092
240 0.114199
245 0.161641
250 0.113508
255 0.15496
260 0.129254
265 0.139111
270 0.077095
275 0.138998
280 0.0739226
285 0.0958684
290 0.0897228
295 0.103734
300 0.116064
305 0.107633
310 0.141837
315 0.114652
320 0.139052
325 0.115175
330 0.147471
335 0.121575
340 0.136039
345 0.16432
350 0.147134
355 0.0925443
360 0.119438
365 0.100398
370 0.0784454
375 0.0922188
380 0.234029
385 0.115352
390 0.126032
395 0.172745
400 0.0978463
405 0.185235
410 0.143976
415 0.0995218
420 0.21358
425 0.121304
430 0.1438
435 0.172384
440 0.166219
445 0.24335
450 0.276056
455 0.219201
460 0.227249
465 0.271767
470 0.266117
475 0.345153
480 0.454279
485 0.678264
490 1.02762
495 1.41864
500 67.9507
505 1099.38
510 1590.01
515 388.664
520 46.6152
525 6.78247
530 2.11934
535 1.31701
540 1.14578
545 1.11959
550 0.899421
555 1.08435
560 0.725927
565 0.681914
570 0.543466
575 0.506142
580 0.535847
585 0.450618
590 0.484851
595 0.464061
600 0.651932
Ex : 518
200 0.12755
205 0.132232
210 0.130059
215 0.0666226
220 0.112795
225 0.102807
230 0.131529
235 0.117241
240 0.0574115
245 0.106397
250 0.124202
255 0.133694
260 0.163085
265 0.0709175
270 0.0893038
275 0.233552
280 0.121638
285 0.0877858
290 0.0980164
295 0.0842619
300 0.151095
305 0.104244
310 0.0665741
315 0.0844114
320 0.181591
325 0.107946
330 0.0827434
335 0.152715
340 0.168163
345 0.156408
350 0.0997098
355 0.134825
360 0.211957
365 0.115224
370 0.200338
375 0.169766
380 0.0989843
385 0.13072
390 0.172666
395 0.162525
400 0.175413
405 0.16479
410 0.137512
415 0.150369
420 0.143204
425 0.259869
430 0.235903
435 0.182869
440 0.158876
445 0.160289
450 0.169524
455 0.206507
460 0.225938
465 0.227989
470 0.26206
475 0.214575
480 0.340948
485 0.387596
490 0.522877
495 0.864378
500 1.60079
505 68.2741
510 1069.35
515 1576.9
520 385.106
525 46.2372
530 6.62151
535 2.00956
540 1.34703
545 0.950378
550 0.872443
555 0.930691
560 0.832274
565 0.695803
570 0.604394
575 0.573625
580 0.54029
585 0.467001
590 0.397141
595 0.268251
600 0.420625
Ex : 523
200 0.0745899
205 0.0702116
210 0.0938504
215 0.133087
220 0.0886969
225 0.110225
230 0.221199
235 0.123287
240 0.203719
245 0.115755
250 0.131227
255 0.186231
260 0.153046
265 0.16131
270 0.101738
275 0.0981526
280 0.122829
285 0.0989127
290 0.232254
295 0.126646
300 0.0964482
305 0.098169
310 0.157383
315 0.0926408
320 0.0972748
325 0.1161
330 0.143761
335 0.107442
340 0.106235
345 0.210165
350 0.18746
355 0.119506
360 0.172578
365 0.206639
370 0.168195
375 0.117327
380 0.202838
385 0.169976
390 0.175138
395 0.14701
400 0.164273
405 0.0963789
410 0.133206
415 0.108016
420 0.131262
425 0.146021
430 0.248437
435 0.201865
440 0.16286
445 0.118433
450 0.240281
455 0.198761
460 0.301524
465 0.265308
470 0.182927
475 0.360375
480 0.278449
485 0.312
490 0.554781
495 0.595212
500 0.860988
505 1.61852
510 63.0134
515 1040.69
520 1573.63
525 401.719
530 48.0285
535 6.67998
540 1.70487
545 1.00548
550 0.84045
555 0.799083
560 0.783207
565 0.709194
570 0.579773
575 0.479258
580 0.39443
585 0.398548
590 0.330977
595 0.322097
600 0.783845
Ex : 528
200 0.0956775
205 0.139934
210 0.0684438
215 0.0840072
220 0.14724
225 0.149875
230 0.0991559
235 0.114103
240 0.125589
245 0.10749
250 0.156357
255 0.178083
260 0.106277
265 0.0884495
270 0.0810177
275 0.140485
280 0.0969155
285 0.0560346
290 0.148421
295 0.158222
300 0.0909178
305 0.100249
310 0.241838
315 0.120913
320 0.0948074
325 0.112231
330 0.105159
335 0.10481
340 0.136749
345 0.143196
350 0.143807
355 0.129821
360 0.107032
365 0.138516
370 0.113301
375 0.167825
380 0.111993
385 0.155271
390 0.157247
395 0.180495
400 0.230384
405 0.0989366
410 0.144709
415 0.14142
420 0.146542
425 0.152681
430 0.141125
435 0.149624
440 0.243948
445 0.165322
450 0.172422
455 0.165036
460 0.225782
465 0.271945
470 0.210106
475 0.164743
480 0.315378
485 0.310701
490 0.284419
495 0.449065
500 0.702003
505 0.950343
510 1.68795
515 59.7339
520 1032.15
525 1574.32
530 395.265
535 47.4727
540 6.69453
545 1.66634
550 0.966932
555 0.830169
560 0.745957
565 0.803115
570 0.566571
575 0.558927
580 0.4276
585 0.366369
590 0.393703
595 0.360418
600 0.186443
Ex : 533
200 0.128535
205 0.138776
210 0.146041
215 0.108094
220 0.133325
225 0.0906222
230 0.133443
235 0.121579
240 0.0849455
245 0.0995533
250 0.120843
255 0.112431
260 0.140556
265 0.100161
270 0.134246
275 0.135173
280 0.0649782
285 0.129892
290 0.103368
295 0.0847562
300 0.13105
305 0.19321
310 0.0969653
315 0.113591
320 0.103566
325 0.11358
330 0.123799
335 0.0932471
340 0.131432
345 0.0791528
350 0.109233
355 0.156709
360 0.164363
365 0.19151
370 0.178162
375 0.105862
380 0.179359
385 0.166974
390 0.167629
395 0.168795
400 0.137984
405 0.153593
410 0.157598
415 0.15758
420 0.117753
425 0.103228
430 0.157957
435 0.177321
440 0.158303
445 0.239256
450 0.185653
455 0.245404
460 0.191206
465 0.281086
470 0.213085
475 0.188768
480 0.227351
485 0.380106
490 0.269156
495 0.364313
500 0.4591
505 0.692261
510 0.812381
515 1.65494
520 58.7184
525 1006.51
530 1559.39
535 397.356
540 47.4413
545 6.67666
550 1.65367
555 0.827987
560 0.627613
565 0.44779
570 0.528436
575 0.464195
580 0.668022
585 0.529493
590 0.355132
595 0.413657
600 0.196328
Ex : 538
200 0.0752881
205 0.130122
210 0.147391
215 0.126701
220 0.172131
225 0.107347
230 0.0687646
235 0.107393
240 0.133764
245 0.0683663
250 0.0998814
255 0.16123
260 0.272973
265 0.178975
270 0.135129
275 0.105443
280 0.116836
285 0.133496
290 0.0949034
295 0.216261
300 0.20376
305 0.173893
310 0.190631
315 0.205931
320 0.141772
325 0.135008
330 0.132699
335 0.0926667
340 0.185346
345 0.176764
350 0.187856
355 0.154198
360 0.183089
365 0.131885
370 0.177585
375 0.192953
380 0.163335
385 0.167485
390 0.208613
395 0.149632
400 0.229914
405 0.166594
410 0.105791
415 0.0927504
420 0.137962
425 0.137444
430 0.1041
435 0.114123
440 0.242044
445 0.180691
450 0.190113
455 0.201875
460 0.144604
465 0.162205
470 0.210664
475 0.164003
480 0.182672
485 0.249563
490 0.323189
495 0.369696
500 0.393782
505 0.600642
510 0.474056
515 0.837245
520 1.40093
525 48.9264
530 960.566
535 1562.73
540 419.329
545 49.9612
550 6.80898
555 1.75904
560 0.767683
565 0.504193
570 0.489774
575 0.575727
580 0.546037
585 0.442548
590 0.384463
595 0.367649
600 0.470411
Ex : 543
200 0.191795
205 0.179714
210 0.11209
215 0.145639
220 0.11168
225 0.187665
230 0.161464
235 0.0984098
240 0.204679
245 0.161309
250 0.164659
255 0.0835932
260 0.0759602
265 0.115632
270 0.0857361
275 0.0748716
280 0.141883
285 0.129928
290 0.109618
295 0.142301
300 0.231419
305 0.122032
310 0.113115
315 0.186526
320 0.122375
325 0.193929
330 0.167543
335 0.0906424
340 0.100046
345 0.114888
350 0.18648
355 0.116928
360 0.12466
365 0.135538
370 0.125948
375 0.146914
380 0.145631
385 0.217247
390 0.19678
395 0.209478
400 0.155534
405 0.147174
410 0.159076
415 0.150027
420 0.138917
425 0.13251
430 0.0972722
435 0.138111
440 0.137935
445 0.143494
450 0.225013
455 0.228751
460 0.12891
465 0.216761
470 0.173821
475 0.26379
480 0.164138
485 0.168091
490 0.235808
495 0.244388
500 0.2801
505 0.312058
510 0.427746
515 0.614141
520 0.798177
525 1.4706
530 45.2989
535 911.212
540 1551.57
545 428.806
550 51.388
555 6.85984
560 1.56857
565 0.900423
570 0.615995
575 0.520688
580 0.544952
585 0.532311
590 0.351596
595 0.467776
600 0.284629
Ex : 548
200 0.1017
205 0.0959966
210 0.179477
215 0.336838
220 0.116002
225 0.192883
230 0.158373
235 0.120356
240 0.14432
245 0.173214
250 0.109159
255 0.101078
260 0.102345
265 0.129604
270 0.12209
275 0.102477
280 0.107382
285 0.156136
290 0.182258
295 0.145494
300 0.240201
305 0.166178
310 0.107543
315 0.187025
320 0.126173
325 0.109887
330 0.170498
335 0.154201
340 0.13431
345 0.159465
350 0.156722
355 0.161911
360 0.13304
365 0.116789
370 0.10449
375 0.155721
380 0.14883
385 0.166158
390 0.151657
395 0.136576
400 0.206289
405 0.163645
410 0.228752
415 0.183363
420 0.166881
425 0.235837
430 0.11076
435 0.134161
440 0.180593
445 0.162056
450 0.145111
455 0.202006
460 0.225562
465 0.20726
470 0.255843
475 0.206015
480 0.140821
485 0.228041
490 0.196556
495 0.205958
500 0.189927
505 0.258816
510 0.445565
515 0.575947
520 0.56007
525 0.802601
530 1.47887
535 50.7651
540 930.195
545 1524.71
550 422.459
555 50.2527
560 6.83508
565 1.53352
570 0.83296
575 0.531787
580 0.396035
585 0.352307
590 0.396515
595 0.468444
600 0.204365
Ex : 553
200 0.138547
205 0.214342
210 0.127727
215 0.110968
220 0.19946
225 0.187776
230 0.16017
235 0.126496
240 0.131053
245 0.104648
250 0.221756
255 0.127552
260 0.115595
265 0.167336
270 0.110053
275 0.152826
280 0.17012
285 0.0752705
290 0.119876
295 0.165201
300 0.234214
305 0.130787
310 0.135281
315 0.162384
320 0.205689
325 0.103187
330 0.112958
335 0.165157
340 0.107502
345 0.166693
350 0.16284
355 0.130134
360 0.124645
365 0.173506
370 0.143302
375 0.228871
380 0.150275
385 0.167513
390 0.205387
395 0.154226
400 0.156759
405 0.188311
410 0.198146
415 0.188891
420 0.167457
425 0.149402
430 0.131371
435 0.127364
440 0.138575
445 0.208995
450 0.31885
455 0.292165
460 0.20222
465 0.204564
470 0.375137
475 0.245153
480 0.368948
485 0.244126
490 0.246052
495 0.234802
500 0.338024
505 0.347363
510 0.310313
515 0.288621
520 0.404409
525 0.535247
530 0.721324
535 1.25212
540 44.6432
545 881.863
550 1500.47
555 420.452
560 50.2002
565 6.68326
570 1.61545
575 0.700355
580 0.454611
585 0.363443
590 0.328985
595 0.332211
600 0.374665
Ex : 558
200 0.118166
205 0.125792
210 0.136138
215 0.131443
220 0.163456
225 0.0982957
230 0.0957039
235 0.124636
240 0.180193
245 0.1045
250 0.0721128
255 0.10204
260 0.121777
265 0.120704
270 0.111178
275 0.133533
280 0.206189
285 0.140387
290 0.145149
295 0.218233
300 0.152652
305 0.139371
310 0.138549
315 0.244159
320 0.13174
325 0.149541
330 0.154579
335 0.166868
340 0.134755
345 0.142138
350 0.105671
355 0.112218
360 0.0894357
365 0.159383
370 0.120287
375 0.179287
380 0.17191
385 0.133112
390 0.181011
395 0.162923
400 0.131384
405 0.210245
410 0.137541
415 0.129254
420 0.145219
425 0.220516
430 0.139926
435 0.154396
440 0.242435
445 0.148752
450 0.197072
455 0.149578
460 0.230367
465 0.195348
470 0.141885
475 0.175367
480 0.174926
485 0.23682
490 0.209531
495 0.203858
500 0.292772
505 0.28008
510 0.458774
515 0.281079
520 0.340499
525 0.450301
530 0.593987
535 0.781046
540 1.22955
545 42.1407
550 834.294
555 1471.37
560 420.128
565 50.2301
570 6.61095
575 1.26308
580 0.633604
585 0.376593
590 0.352683
595 0.318204
600 0.0362104
Ex : 563
200 0.137926
205 0.128388
210 0.145154
215 0.211392
220 0.110192
225 0.152241
230 0.151048
235 0.119016
240 0.0877833
245 0.127028
250 0.11307
255 0.0960239
260 0.191391
265 0.0809573
270 0.101839
275 0.170802
280 0.169742
285 0.176434
290 0.202531
295 0.13734
300 0.13221
305 0.133845
310 0.153946
315 0.195026
320 0.210954
325 0.25191
330 0.119897
335 0.157655
340 0.163065
345 0.0986004
350 0.0993085
355 0.257387
360 0.189737
365 0.182671
370 0.105889
375 0.121279
380 0.158971
385 0.191161
390 0.194138
395 0.126758
400 0.0859376
405 0.154085
410 0.23253
415 0.214145
420 0.167031
425 0.232777
430 0.213751
435 0.152928
440 0.225146
445 0.176723
450 0.226762
455 0.271365
460 0.17647
465 0.188106
470 0.18128
475 0.201476
480 0.199017
485 0.212891
490 0.237188
495 0.162581
500 0.265535
505 0.352
510 0.300642
515 0.312218
520 0.280179
525 0.369283
530 0.554362
535 0.602617
540 0.526925
545 1.19445
550 41.2501
555 809.338
560 1401.78
565 407.603
570 48.3243
575 6.27748
580 1.21788
585 0.588974
590 0.327144
595 0.325297
600 0.359771
Ex : 568
200 0.113996
205 0.108782
210 0.217983
215 0.205425
220 0.114763
225 0.144385
230 0.144773
235 0.106976
240 0.0925759
245 0.167632
250 0.164256
255 0.151148
260 0.256558
265 0.138474
270 0.0967697
275 0.133675
280 0.0995142
285 0.117927
290 0.116226
295 0.0535706
300 0.137436
305 0.169917
310 0.112374
315 0.137597
320 0.0902613
325 0.185122
330 0.265119
335 0.193656
340 0.151919
345 0.201043
350 0.105475
355 0.165167
360 0.137752
365 0.143335
370 0.207107
375 0.137802
380 0.129774
385 0.159566
390 0.204792
395 0.243067
400 0.162867
405 0.161898
410 0.204819
415 0.122614
420 0.177753
425 0.214894
430 0.204729
435 0.139673
440 0.153138
445 0.122651
450 0.155507
455 0.152035
460 0.206409
465 0.259268
470 0.216232
475 0.20643
480 0.219983
485 0.218342
490 0.177133
495 0.251627
500 0.195268
505 0.250644
510 0.222894
515 0.319389
520 0.2167
525 0.244831
530 0.305818
535 0.422266
540 0.606928
545 0.746767
550 1.32473
555 30.8088
560 729.84
565 1368.35
570 411.05
575 49.2512
580 6.08473
585 1.21384
590 0.573972
595 0.428546
600 0.882841
Ex : 573
200 0.139903
205 0.154394
210 0.199492
215 0.101079
220 0.157417
225 0.13536
230 0.110308
235 0.207189
240 0.100583
245 0.170867
250 0.0994955
255 0.147324
260 0.108412
265 0.066992
270 0.0635305
275 0.0821399
280 0.122974
285 0.0996367
290 0.166622
295 0.116843
300 0.0696731
305 0.106005
310 0.177818
315 0.126789
320 0.16844
325 0.163664
330 0.217731
335 0.11839
340 0.164483
345 0.0758783
350 0.273152
355 0.146853
360 0.187232
365 0.143522
370 0.11223
375 0.0998762
380 0.153786
385 0.17193
390 0.19568
395 0.129776
400 0.172785
405 0.105315
410 0.190207
415 0.148951
420 0.160198
425 0.272929
430 0.283056
435 0.208494
440 0.202007
445 0.199068
450 0.082795
455 0.137978
460 0.250181
465 0.18306
470 0.180484
475 0.301774
480 0.272203
485 0.162302
490 0.146527
495 0.165012
500 0.194522
505 0.237123
510 0.275572
515 0.214527
520 0.249462
525 0.250329
530 0.332597
535 0.2837
540 0.380183
545 0.455185
550 0.601939
555 1.03493
560 27.3441
565 641.178
570 1282.67
575 394.68
580 47.1279
585 6.04545
590 1.09328
595 0.498243
600 0.288657
Ex : 578
200 0.126037
205 0.216446
210 0.127375
215 0.195141
220 0.0939937
225 0.126649
230 0.136071
235 0.058139
240 0.0803088
245 0.106065
250 0.129668
255 0.288137
260 0.187686
265 0.104146
270 0.138806
275 0.160919
280 0.189761
285 0.161742
290 0.114168
295 0.0833926
300 0.127524
305 0.182282
310 0.306217
315 0.26046
320 0.19826
325 0.129989
330 0.208842
335 0.177391
340 0.131617
345 0.342117
350 0.190869
355 0.165327
360 0.165038
365 0.259181
370 0.174097
375 0.159348
380 0.0619501
385 0.128948
390 0.158379
395 0.147379
400 0.227986
405 0.1577
410 0.173249
415 0.291254
420 0.137634
425 0.250775
430 0.149039
435 0.155784
440 0.159712
445 0.225736
450 0.129819
455 0.17106
460 0.21773
465 0.206909
470 0.314611
475 0.156186
480 0.272619
485 0.192947
490 0.215273
495 0.185967
500 0.216194
505 0.210773
510 0.175552
515 0.250003
520 0.264441
525 0.243749
530 0.18454
535 0.262943
540 0.300513
545 0.373253
550 0.531744
555 0.636448
560 0.976356
565 23.5705
570 584.979
575 1141.82
580 342.364
585 40.7213
590 5.22027
595 1.02238
600 0.670974
Ex : 583
200 0.0555556
205 0.178568
210 0.131301
215 0.298134
220 0.182301
225 0.131671
230 0.114691
235 0.25699
240 0.152988
245 0.273533
250 0.170991
255 0.193309
260 0.170692
265 0.111414
270 0.114835
275 0.110157
280 0.105379
285 0.10219
290 0.146795
295 0.120444
300 0.0876061
305 0.172303
310 0.198195
315 0.154192
320 0.199615
325 0.134426
330 0.138971
335 0.156111
340 0.147519
345 0.162697
350 0.183116
355 0.148487
360 0.149269
365 0.219759
370 0.0950534
375 0.142372
380 0.209082
385 0.131732
390 0.119625
395 0.200432
400 0.0936627
405 0.173382
410 0.176586
415 0.190661
420 0.121056
425 0.251673
430 0.152152
435 0.164144
440 0.132596
445 0.152747
450 0.18589
455 0.184311
460 0.218108
465 0.281118
470 0.207564
475 0.209377
480 0.0992955
485 0.182712
490 0.157085
495 0.317351
500 0.17972
505 0.242189
510 0.169383
515 0.211241
520 0.181403
525 0.21499
530 0.274432
535 0.202301
540 0.211527
545 0.321567
550 0.406019
555 0.399076
560 0.556278
565 1.0633
570 19.1762
575 517.466
580 965.644
585 279.66
590 33.3503
595 4.44052
600 0.605168
Ex : 588
200 0.107503
205 0.0777924
210 0.109128
215 0.0964589
220 0.167366
225 0.150541
230 0.128896
235 0.131685
240 0.0779455
245 0.121996
250 0.123519
255 0.17552
260 0.200856
265 0.181515
270 0.179619
275 0.130191
280 0.091636
285 0.105752
290 0.14461
295 0.253147
300 0.111295
305 0.118147
310 0.0874738
315 0.133782
320 0.159983
325 0.169137
330 0.16912
335 0.144705
340 0.137713
345 0.236025
350 0.210546
355 0.140622
360 0.0923356
365 0.214398
370 0.14537
375 0.131576
380 0.112995
385 0.199549
390 0.221938
395 0.197252
400 0.121907
405 0.181261
410 0.107483
415 0.123971
420 0.296755
425 0.202894
430 0.19098
435 0.159659
440 0.215086
445 0.147191
450 0.118566
455 0.120804
460 0.209497
465 0.208768
470 0.124437
475 0.182646
480 0.283397
485 0.152439
490 0.192618
495 0.123402
500 0.248803
505 0.490224
510 0.215376
515 0.220876
520 0.204711
525 0.162093
530 0.345666
535 0.23557
540 0.324363
545 0.279736
550 0.397103
555 0.362852
560 0.367133
565 0.545491
570 0.744113
575 16.9286
580 428.597
585 830.951
590 249.993
595 29.7731
600 4.12126
Ex : 593
200 0.201296
205 0.0992313
210 0.225437
215 0.10364
220 0.133567
225 0.136593
230 0.0762002
235 0.153587
240 0.142791
245 0.0774713
250 0.16115
255 0.144042
260 0.127448
265 0.109896
270 0.147109
275 0.106727
280 0.125876
285 0.189954
290 0.120011
295 0.0849311
300 0.123363
305 0.116861
310 0.101067
315 0.170915
320 0.134748
325 0.111546
330 0.235575
335 0.123721
340 0.0815548
345 0.161385
350 0.111379
355 0.212387
360 0.111191
365 0.13204
370 0.178756
375 0.158092
380 0.18112
385 0.279455
390 0.210076
395 0.194787
400 0.225644
405 0.233808
410 0.206119
415 0.140358
420 0.10619
425 0.125264
430 0.278031
435 0.263938
440 0.124377
445 0.20394
450 0.109395
455 0.0753697
460 0.197745
465 0.0866273
470 0.189407
475 0.235243
480 0.138329
485 0.147483
490 0.144922
495 0.0916099
500 0.118483
505 0.235639
510 0.20128
515 0.161669
520 0.14145
525 0.116783
530 0.231259
535 0.278368
540 0.226155
545 0.312533
550 0.315139
555 0.313427
560 0.300964
565 0.348843
570 0.448801
575 0.682856
580 15.5242
585 385.224
590 707.904
595 213.517
600 30.0873
Ex : 598
200 0.0968045
205 0.066563
210 0.136876
215 0.0837455
220 0.128399
225 0.304101
230 0.119593
235 0.175076
240 0.0975774
245 0.154391
250 0.128218
255 0.0427135
260 0.155859
265 0.221586
270 0.18906
275 0.157931
280 0.141806
285 0.127525
290 0.194015
295 0.102581
300 0.0941383
305 0.143753
310 0.0782569
315 0.241213
320 0.236912
325 0.155055
330 0.103417
335 0.164626
340 0.142981
345 0.116151
350 0.238355
355 0.205946
360 0.0972158
365 0.118609
370 0.12984
375 0.13512
380 0.113133
385 0.230226
390 0.140952
395 0.13988
400 0.164378
405 0.222489
410 0.154069
415 0.279754
420 0.283659
425 0.130126
430 0.0926955
435 0.100998
440 0.313716
445 0.223179
450 0.258262
455 0.151111
460 0.153198
465 0.240667
470 0.301584
475 0.144968
480 0.150044
485 0.180851
490 0.258043
495 0.192546
500 0.142519
505 0.239712
510 0.24356
515 0.156986
520 0.20888
525 0.240679
530 0.130071
535 0.185499
540 0.224458
545 0.166745
550 0.204558
555 0.242226
560 0.204772
565 0.320617
570 0.380574
575 0.428841
580 0.645491
585 15.0033
590 345.306
595 621.387
600 396
Ex : 603
200 0.168305
205 0.0747491
210 0.112488
215 0.155838
220 0.200916
225 0.145879
230 0.194408
235 0.16421
240 0.253518
245 0.228886
250 0.184272
255 0.251498
260 0.139021
265 0.175288
270 0.122708
275 0.203023
280 0.142491
285 0.178249
290 0.120549
295 0.108342
300 0.227389
305 0.179664
310 0.167736
315 0.130961
320 0.266324
325 0.125263
330 0.213495
335 0.214333
340 0.125751
345 0.107234
350 0.079106
355 0.286817
360 0.131749
365 0.145949
370 0.161159
375 0.24488
380 0.116891
385 0.190612
390 0.168483
395 0.15278
400 0.24232
405 0.153676
410 0.216264
415 0.172165
420 0.201937
425 0.329702
430 0.174117
435 0.102032
440 0.104176
445 0.140616
450 0.0673478
455 0.158937
460 0.215686
465 0.119117
470 0.192346
475 0.195276
480 0.30573
485 0.114697
490 0.194433
495 0.238127
500 0.190078
505 0.220542
510 0.154926
515 0.210856
520 0.129847
525 0.161951
530 0.144325
535 0.202441
540 0.159133
545 0.205214
550 0.272379
555 0.278986
560 0.240597
565 0.305289
570 0.330259
575 0.435839
580 0.352272
585 0.583954
590 12.7301
595 296.976
600 593.039
