File format V 1.0
ven. 6. janv. 04:21:48 2017
Operator : 
Comments : 

=============================================
SpectroFluorometer parameters
Mode : 3D measurement
Data : Fluorescence
Phospho. : Ordinary
Spectrum : Fluorescence

Scan speed : 2400 nm/mn
Response : 100 ms
PM Voltage : 700 V
Shutter : On

Lambda Ex. Start : 203
Lambda Ex. End : 603
Lambda Ex. Step : 5
Ex. Slit : 5 nm

Lambda Em. Start : 200
Lambda Em. End : 600
Lambda Em. Step : 5
Em. Slit : 5 nm

Repetition : 1
Decal lambda em : 10
=============================================
DATA
Ex : 203
200 2
205 1.52545
210 2.27154
215 3.46754
220 6.75754
225 4.22786
230 5.79834
235 2.50609
240 2.69473
245 3.13142
250 1.18311
255 1.28401
260 2.89948
265 4.03302
270 2.8394
275 4.55383
280 3.76762
285 3.44989
290 3.37985
295 3.8773
300 3.03441
305 3.32886
310 3.20053
315 3.73055
320 5.44055
325 5.25865
330 6.1132
335 3.23183
340 4.39802
345 4.50233
350 3.62672
355 5.71289
360 2.06683
365 4.86862
370 3.96563
375 1.68969
380 2.44544
385 1.88215
390 2.04603
395 5.25673
400 5.11248
405 5.12985
410 3.10138
415 3.6829
420 3.42567
425 3.79955
430 5.4826
435 3.94118
440 7.66394
445 3.22225
450 4.81958
455 1.94976
460 2.22571
465 2.76234
470 3.58648
475 2.97284
480 2.62621
485 5.44841
490 3.70197
495 5.68345
500 7.67441
505 2.41576
510 4.85851
515 4.10341
520 1.25987
525 1.79392
530 3.24094
535 4.81687
540 4.01443
545 1.92846
550 3.14139
555 3.81248
560 3.9842
565 2.24376
570 6.2039
575 4.13703
580 6.92138
585 4.83235
590 2.37805
595 4.39207
600 65.6358
Ex : 208
200 3.62805
205 4.72534
210 5.98705
215 2.71219
220 1.41935
225 3.1434
230 4.13421
235 8.67538
240 2.24413
245 4.14193
250 2.1198
255 6.82705
260 4.05222
265 2.04726
270 2.47356
275 4.55611
280 2.11152
285 5.65662
290 7.34853
295 1.82511
300 5.50695
305 5.2493
310 5.34018
315 4.18533
320 6.04431
325 4.65801
330 3.74871
335 5.353
340 1.81439
345 4.50427
350 6.70433
355 5.08047
360 5.09615
365 1.77764
370 2.21436
375 4.72788
380 3.03711
385 5.26296
390 3.65398
395 4.2465
400 1.27469
405 3.36038
410 4.28869
415 2.02451
420 3.05412
425 5.36512
430 4.75183
435 2.11375
440 5.92428
445 4.73732
450 3.16528
455 7.5464
460 8.12901
465 5.66481
470 4.72233
475 5.24362
480 6.71325
485 2.9521
490 3.13512
495 3.61619
500 4.229
505 1.92776
510 3.07554
515 3.47811
520 2.80431
525 5.63084
530 6.56798
535 7.45075
540 6.61645
545 5.57199
550 2.54459
555 1.78437
560 3.56278
565 7.20158
570 1.97798
575 3.11719
580 6.19795
585 2.27362
590 2.57649
595 4.25716
600 0.484449
Ex : 213
200 1.02286
205 5.63813
210 3.67685
215 2.53209
220 2.61099
225 6.94926
230 2.25198
235 3.34439
240 6.37818
245 3.71884
250 2.92118
255 3.02796
260 4.31033
265 3.88472
270 3.93624
275 4.5381
280 7.85529
285 4.74835
290 3.82645
295 2.20784
300 3.41548
305 2.75188
310 4.68808
315 2.30589
320 2.41989
325 3.74727
330 3.73634
335 2.07626
340 1.951
345 2.77058
350 5.73992
355 6.61442
360 3.56085
365 3.56031
370 2.1486
375 2.88082
380 3.09649
385 7.62252
390 4.46336
395 3.8931
400 2.34836
405 7.14275
410 2.26391
415 5.96256
420 3.67082
425 3.89965
430 5.93269
435 5.33215
440 1.51025
445 2.15501
450 2.84292
455 3.10188
460 8.48294
465 5.16593
470 5.37109
475 7.26342
480 1.89571
485 2.04757
490 1.39313
495 2.64719
500 3.21055
505 3.7126
510 3.1424
515 4.44263
520 2.38001
525 4.11303
530 4.39187
535 3.41971
540 2.42627
545 3.69506
550 5.49954
555 4.48863
560 3.68681
565 2.18037
570 5.58185
575 6.33067
580 4.14337
585 4.52272
590 3.60017
595 1.23572
600 0.583722
Ex : 218
200 4.6474
205 3.29894
210 2.36116
215 2.59768
220 5.98713
225 2.51503
230 4.58724
235 4.4922
240 2.06877
245 7.65327
250 4.23521
255 2.70931
260 3.14717
265 3.29632
270 4.63335
275 2.33659
280 4.39444
285 3.88526
290 3.06123
295 2.92065
300 2.46245
305 3.15423
310 5.6447
315 3.89713
320 3.52639
325 1.85094
330 2.85795
335 4.88946
340 4.14317
345 2.27841
350 3.74641
355 6.22243
360 6.7494
365 5.69259
370 3.48919
375 3.76573
380 4.23029
385 2.64373
390 2.85269
395 2.05581
400 2.67238
405 2.92289
410 2.63674
415 2.91032
420 4.62084
425 2.91305
430 3.43586
435 4.39617
440 1.87942
445 4.43263
450 3.18464
455 7.57408
460 5.36998
465 4.46204
470 4.38891
475 3.63106
480 1.65083
485 3.70549
490 5.67634
495 3.63613
500 2.87601
505 3.04198
510 2.06213
515 1.7609
520 2.93479
525 3.25958
530 5.15963
535 6.66397
540 3.48432
545 4.21442
550 3.67913
555 6.0926
560 2.82237
565 5.01
570 2.91184
575 2.2703
580 3.83018
585 4.42899
590 3.83
595 7.61937
600 42.0755
Ex : 223
200 4.38418
205 2.34141
210 4.03561
215 6.30141
220 3.76437
225 4.3544
230 3.34211
235 4.92211
240 5.49133
245 1.52105
250 3.71278
255 2.23161
260 7.28987
265 4.54624
270 1.88936
275 5.0283
280 2.69236
285 3.1174
290 3.07519
295 2.85738
300 0.924806
305 1.61124
310 5.3077
315 2.96377
320 3.70904
325 6.33709
330 3.35256
335 2.97466
340 5.08722
345 3.12605
350 3.61226
355 6.57285
360 2.55562
365 2.42974
370 3.63446
375 3.28468
380 4.94232
385 2.3853
390 1.49206
395 2.54546
400 4.31283
405 3.67791
410 4.23413
415 2.7946
420 4.49509
425 3.72057
430 3.16121
435 5.94689
440 2.12092
445 4.88704
450 4.27196
455 3.4085
460 2.63222
465 3.10405
470 1.97622
475 2.68185
480 2.02983
485 7.51015
490 2.56258
495 2.48919
500 2.97815
505 5.7629
510 9.02928
515 4.76739
520 4.60737
525 4.35062
530 2.12869
535 3.94253
540 2.68188
545 8.23179
550 5.17083
555 3.75919
560 2.89374
565 2.09115
570 4.685
575 3.90577
580 5.00867
585 1.02362
590 3.51
595 1.43842
600 0.163687
Ex : 228
200 3.96721
205 4.98473
210 2.26661
215 2.21497
220 1.27268
225 1.8648
230 5.94865
235 2.94055
240 1.7557
245 5.8301
250 2.66308
255 1.33695
260 2.05831
265 1.7044
270 3.21007
275 5.4524
280 3.48001
285 4.81707
290 2.97249
295 2.50164
300 2.43385
305 2.1746
310 2.30074
315 4.93263
320 2.93507
325 2.15592
330 6.5028
335 6.24184
340 5.30442
345 2.14733
350 3.12081
355 2.63698
360 3.27175
365 3.66033
370 2.66941
375 3.77927
380 2.89949
385 3.08024
390 2.08827
395 4.17864
400 2.98901
405 5.61491
410 2.04169
415 1.20087
420 3.55178
425 3.03732
430 4.13546
435 3.49804
440 4.08799
445 3.11869
450 2.75376
455 4.1084
460 3.1454
465 4.42664
470 1.68534
475 2.74444
480 4.11106
485 5.75413
490 1.13161
495 0.640592
500 3.93281
505 2.37324
510 3.42871
515 5.08184
520 3.38883
525 4.86172
530 2.44453
535 1.32401
540 2.82919
545 4.60285
550 4.4341
555 3.11341
560 2.49161
565 2.60582
570 4.23466
575 4.45033
580 7.61768
585 5.88341
590 4.33727
595 2.57816
600 12.2571
Ex : 233
200 3.4555
205 4.23636
210 3.57661
215 4.01376
220 3.09718
225 2.72929
230 3.35291
235 2.6568
240 4.07341
245 2.33709
250 3.22965
255 3.10543
260 3.8573
265 2.72944
270 2.68013
275 2.1618
280 4.90933
285 1.66091
290 2.06296
295 3.48568
300 3.77356
305 2.85604
310 3.63538
315 1.04348
320 1.64264
325 3.36899
330 1.63339
335 3.13376
340 1.93879
345 2.01725
350 4.7127
355 4.25544
360 4.72818
365 3.13979
370 4.52767
375 4.45174
380 2.94598
385 4.5525
390 3.58452
395 3.79497
400 5.73099
405 3.40406
410 3.05062
415 1.44548
420 1.64298
425 2.78854
430 4.51859
435 4.72605
440 1.88796
445 1.94954
450 4.21221
455 3.74721
460 3.92409
465 2.11154
470 2.13863
475 2.93871
480 3.05334
485 3.46508
490 2.43868
495 7.0593
500 3.40626
505 2.6936
510 4.25213
515 2.91642
520 2.38122
525 3.16018
530 3.5945
535 4.41889
540 6.71618
545 4.1673
550 5.33062
555 3.63409
560 5.0542
565 2.72338
570 2.5016
575 2.33083
580 2.27276
585 1.6015
590 2.35837
595 2.39894
600 0.27299
Ex : 238
200 2.75234
205 3.91067
210 2.04747
215 2.31365
220 2.56906
225 2.45956
230 2.77392
235 2.12817
240 2.21199
245 4.93715
250 1.13745
255 3.74532
260 3.06351
265 1.88556
270 3.27866
275 2.85531
280 1.97425
285 2.22959
290 1.83802
295 1.45673
300 2.61417
305 1.82935
310 2.38593
315 2.47482
320 1.1186
325 1.86277
330 1.43156
335 3.26462
340 2.96316
345 2.23124
350 2.12343
355 1.65878
360 2.02774
365 3.26072
370 2.22327
375 2.5693
380 1.72201
385 2.35829
390 5.82577
395 5.83387
400 3.93507
405 4.76551
410 6.00068
415 2.93475
420 4.57841
425 4.32952
430 1.93946
435 3.86931
440 5.79625
445 2.55615
450 1.92563
455 5.55254
460 4.55955
465 2.77199
470 2.93018
475 5.28037
480 2.05772
485 2.80573
490 3.32275
495 1.90222
500 2.63903
505 2.03362
510 2.24955
515 1.6595
520 2.25941
525 5.96426
530 3.32003
535 2.65146
540 2.2403
545 1.71964
550 1.9681
555 1.51405
560 0.384656
565 2.18275
570 3.40496
575 2.18058
580 2.29775
585 2.90858
590 3.79856
595 3.03317
600 0.345163
Ex : 243
200 3.63415
205 1.6849
210 2.64748
215 2.15254
220 1.31438
225 1.64813
230 2.19869
235 1.45239
240 2.8275
245 2.60419
250 1.97585
255 2.18944
260 0.977103
265 1.42108
270 2.57705
275 3.11691
280 3.16039
285 1.18749
290 1.66366
295 2.16898
300 3.49047
305 2.06535
310 4.48282
315 1.65007
320 3.66063
325 1.77357
330 2.75574
335 5.0091
340 2.17561
345 1.77863
350 3.25035
355 2.41327
360 2.46232
365 2.10978
370 2.16078
375 4.51168
380 2.67489
385 1.78998
390 0.864714
395 2.02095
400 4.04344
405 2.75254
410 5.05639
415 2.37663
420 2.40735
425 2.78846
430 2.40571
435 1.7825
440 2.16201
445 2.20909
450 1.51895
455 2.11726
460 1.57757
465 1.92711
470 2.35149
475 3.87274
480 2.31038
485 2.43613
490 1.39811
495 2.52106
500 1.74041
505 3.28308
510 3.19265
515 1.67985
520 3.42837
525 2.96346
530 2.00877
535 5.88805
540 1.46726
545 2.63407
550 3.46584
555 2.65876
560 1.66621
565 1.84236
570 1.00468
575 1.57273
580 1.63488
585 3.51021
590 1.77324
595 2.19938
600 0.503482
Ex : 248
200 1.53041
205 1.33786
210 1.40408
215 1.84237
220 1.15937
225 1.84215
230 2.07331
235 4.35192
240 3.84544
245 0.723281
250 1.58108
255 2.70361
260 3.11032
265 3.5843
270 1.57026
275 1.55824
280 1.33324
285 2.29104
290 1.15914
295 1.96218
300 2.64869
305 1.04866
310 1.96015
315 0.905243
320 1.22513
325 1.3
330 2.28802
335 2.66458
340 1.66022
345 4.36546
350 3.96183
355 1.47483
360 0.939274
365 3.75315
370 2.13064
375 1.89794
380 4.59627
385 2.28001
390 1.96009
395 1.61474
400 1.4038
405 3.7346
410 2.37887
415 2.3244
420 1.17832
425 2.51652
430 2.01878
435 2.82394
440 0.711526
445 2.34977
450 2.15463
455 2.57813
460 2.7943
465 2.7411
470 1.37598
475 2.73682
480 2.37825
485 2.52828
490 3.0404
495 2.6525
500 1.65399
505 2.58402
510 1.38877
515 2.26396
520 2.18231
525 3.00986
530 0.959261
535 2.57512
540 4.68825
545 3.57542
550 2.66526
555 1.11176
560 0.980224
565 0.844956
570 2.29085
575 1.59874
580 1.81635
585 2.04633
590 1.99928
595 1.82584
600 0.207774
Ex : 253
200 2.08152
205 1.28877
210 0.795741
215 0.834062
220 1.0793
225 0.906868
230 1.19391
235 1.76678
240 1.26892
245 1.33093
250 1.43067
255 1.44261
260 2.24935
265 0.989628
270 2.72718
275 1.28288
280 2.59522
285 1.25372
290 2.10033
295 0.815901
300 1.55055
305 2.22985
310 0.870663
315 1.10837
320 1.01964
325 1.91333
330 1.79177
335 1.81383
340 1.68592
345 2.59188
350 1.42553
355 1.58399
360 1.37554
365 1.27696
370 2.5555
375 2.52028
380 1.74236
385 2.4591
390 1.8042
395 2.43854
400 2.17579
405 2.04192
410 1.13071
415 4.07354
420 1.60085
425 2.1087
430 1.19856
435 1.36777
440 1.8986
445 2.04088
450 1.47543
455 1.91315
460 2.82253
465 1.56188
470 1.67671
475 1.19797
480 2.53339
485 3.52831
490 2.00349
495 1.81226
500 1.36247
505 2.84279
510 1.25727
515 2.83043
520 2.39396
525 2.45516
530 1.52453
535 2.01573
540 1.96562
545 1.54314
550 1.77462
555 1.44661
560 1.96464
565 2.25677
570 2.51351
575 1.04741
580 1.23732
585 1.35775
590 0.914111
595 3.17088
600 1.93631
Ex : 258
200 1.4069
205 1.32926
210 0.860228
215 0.984094
220 1.09209
225 0.841866
230 0.983944
235 1.19599
240 1.14637
245 0.81951
250 1.70825
255 0.850183
260 0.7915
265 0.691283
270 1.01665
275 0.883471
280 1.18537
285 0.509899
290 1.55623
295 2.34315
300 1.07407
305 0.915457
310 0.725514
315 1.51774
320 1.50103
325 0.797498
330 1.13718
335 1.66152
340 1.79715
345 1.50892
350 1.20178
355 1.8696
360 1.728
365 1.46403
370 2.12675
375 1.49796
380 1.0683
385 1.0952
390 1.91441
395 1.95896
400 1.36736
405 1.35607
410 2.12015
415 2.44592
420 1.88821
425 1.03034
430 1.07779
435 1.30231
440 1.82214
445 2.41176
450 1.51874
455 1.27356
460 2.22751
465 1.59281
470 2.01724
475 1.85691
480 2.85632
485 0.749637
490 0.721061
495 0.992482
500 1.56172
505 1.83197
510 1.49059
515 1.45617
520 0.803461
525 0.941948
530 2.00592
535 0.840553
540 0.961669
545 1.94925
550 2.19027
555 2.5557
560 1.10582
565 1.7818
570 1.09295
575 1.52406
580 1.97372
585 1.23218
590 1.12103
595 1.0827
600 1.96946
Ex : 263
200 0.715517
205 0.8631
210 1.07457
215 0.604685
220 0.880531
225 1.24242
230 1.33821
235 1.44542
240 1.142
245 0.827898
250 0.35441
255 0.480387
260 1.04381
265 1.43365
270 0.760499
275 0.925051
280 0.655858
285 0.425713
290 1.48758
295 0.830899
300 0.839456
305 0.856409
310 1.11501
315 0.624321
320 0.839089
325 0.689871
330 0.817765
335 1.62068
340 1.12659
345 0.927033
350 0.915168
355 0.601768
360 0.837919
365 1.1682
370 2.18808
375 0.976293
380 1.98435
385 0.971202
390 1.01013
395 1.1174
400 1.92885
405 1.36698
410 1.40241
415 2.32687
420 1.9005
425 1.61866
430 1.86829
435 1.36946
440 0.859368
445 1.08045
450 1.2643
455 0.881871
460 1.43954
465 1.18963
470 1.13617
475 1.22375
480 1.34425
485 1.46381
490 0.931446
495 2.2434
500 1.61775
505 0.524822
510 0.469573
515 0.795016
520 0.998176
525 1.37083
530 1.83195
535 1.42141
540 0.92641
545 0.990087
550 2.02212
555 1.40452
560 1.13964
565 0.883251
570 0.810077
575 1.2287
580 1.20781
585 1.19907
590 1.76949
595 1.57873
600 0.179654
Ex : 268
200 1.03342
205 0.833287
210 0.660307
215 1.09805
220 0.488035
225 1.01787
230 0.45594
235 1.2402
240 0.596048
245 0.736389
250 0.784321
255 0.732693
260 1.19503
265 0.476837
270 0.406825
275 0.541421
280 0.655595
285 1.05901
290 1.28982
295 0.347683
300 0.442059
305 0.454221
310 0.348305
315 0.689197
320 0.761866
325 0.54204
330 1.14968
335 0.797274
340 0.876198
345 0.591642
350 1.31965
355 0.795453
360 1.41922
365 0.988945
370 0.891724
375 0.693473
380 0.492396
385 0.924394
390 1.28479
395 1.3888
400 0.710417
405 0.750042
410 0.553603
415 0.728868
420 0.7006
425 1.15832
430 1.05327
435 1.20625
440 1.18138
445 0.989207
450 1.5525
455 0.931221
460 1.40644
465 0.44651
470 1.15826
475 1.42138
480 1.47531
485 0.98827
490 0.271833
495 1.22015
500 0.949299
505 0.51695
510 0.759292
515 0.522911
520 0.65839
525 1.19331
530 1.24056
535 1.07319
540 1.01072
545 1.85385
550 1.21339
555 1.02308
560 0.706821
565 0.268633
570 0.726448
575 1.37734
580 1.11521
585 0.696437
590 0.738285
595 0.592649
600 0.0674412
Ex : 273
200 0.988159
205 0.568741
210 0.298136
215 0.84644
220 0.591525
225 0.191557
230 0.577536
235 0.474516
240 0.726944
245 0.419171
250 0.382861
255 0.960167
260 0.619825
265 0.680771
270 1.08831
275 1.29799
280 0.303523
285 0.274081
290 0.237552
295 0.443558
300 0.897013
305 0.523119
310 0.7332
315 0.801953
320 0.59711
325 0.865724
330 0.728187
335 0.551689
340 0.293837
345 1.27997
350 0.870031
355 0.841011
360 0.893094
365 0.809625
370 0.763792
375 0.403071
380 0.4121
385 0.515837
390 1.07054
395 0.979098
400 0.878752
405 0.990043
410 0.759457
415 0.681692
420 1.26565
425 0.85902
430 1.16635
435 0.963421
440 0.953082
445 1.32075
450 0.812009
455 0.65697
460 0.66814
465 0.771094
470 0.618485
475 0.210102
480 0.934116
485 0.685104
490 0.799585
495 0.659516
500 0.690952
505 0.778467
510 0.706244
515 0.642615
520 0.766048
525 1.1046
530 0.612185
535 0.71083
540 0.998847
545 0.65556
550 0.535659
555 1.00901
560 1.11301
565 1.09161
570 0.474218
575 0.78562
580 0.887571
585 0.417987
590 0.666934
595 0.404805
600 0.368321
Ex : 278
200 0.339334
205 0.532616
210 0.59441
215 0.275235
220 0.339393
225 0.784523
230 0.44712
235 0.64513
240 0.437333
245 0.256942
250 0.360871
255 0.52247
260 0.749519
265 0.496147
270 0.879987
275 0.692534
280 0.752323
285 0.293291
290 0.826754
295 0.378591
300 0.823955
305 0.597127
310 0.331352
315 0.32811
320 0.497467
325 0.747896
330 0.818298
335 0.637872
340 0.296521
345 0.414676
350 0.869865
355 0.655533
360 0.675211
365 0.459295
370 0.581483
375 0.289919
380 0.680086
385 0.920905
390 1.10744
395 0.851752
400 0.534509
405 0.742154
410 0.611301
415 1.10903
420 0.928803
425 1.00315
430 0.536694
435 0.627106
440 0.853353
445 0.734092
450 0.885416
455 1.69401
460 0.97096
465 0.624015
470 0.632325
475 0.830763
480 0.539197
485 0.742203
490 0.570956
495 0.678559
500 0.804379
505 0.713081
510 0.518211
515 0.479996
520 0.56407
525 0.474557
530 0.603895
535 0.44244
540 0.451212
545 0.698315
550 0.32866
555 0.817354
560 0.492719
565 0.966868
570 0.737983
575 0.734179
580 0.739181
585 1.02521
590 0.73204
595 0.378967
600 0.0431251
Ex : 283
200 0.543847
205 0.273948
210 0.381977
215 0.475208
220 0.246077
225 0.361793
230 0.669963
235 0.174271
240 0.708298
245 0.336688
250 0.674379
255 0.236506
260 0.450636
265 0.431738
270 0.379832
275 0.269836
280 0.368061
285 0.327272
290 0.429065
295 0.251574
300 0.267793
305 0.351363
310 0.299297
315 0.354185
320 0.307489
325 0.910784
330 0.467972
335 0.673531
340 0.311306
345 0.446153
350 0.571188
355 0.40186
360 0.378549
365 0.734263
370 0.46958
375 0.442998
380 0.876356
385 0.730031
390 0.682071
395 0.801035
400 0.601034
405 0.663539
410 0.844287
415 0.521821
420 0.880086
425 0.419342
430 0.812929
435 0.800948
440 0.788529
445 0.802435
450 0.820823
455 0.494669
460 0.741145
465 0.496984
470 0.566056
475 0.640973
480 0.384117
485 0.958502
490 0.730473
495 0.423973
500 0.481934
505 1.01609
510 0.941694
515 0.420205
520 0.592669
525 0.522008
530 0.592305
535 0.453161
540 0.475745
545 0.612946
550 0.59642
555 0.621584
560 0.645234
565 0.621903
570 0.558643
575 0.29802
580 0.268787
585 0.554047
590 0.435019
595 0.808172
600 0.306804
Ex : 288
200 0.29748
205 0.284798
210 0.413144
215 0.432933
220 0.20781
225 0.208661
230 0.484218
235 0.358434
240 0.406722
245 0.464128
250 0.310928
255 0.325313
260 0.172314
265 0.271794
270 0.641918
275 0.347115
280 0.304225
285 0.308597
290 0.327564
295 0.285698
300 0.441487
305 0.573387
310 0.341127
315 0.279516
320 0.633431
325 0.490945
330 0.272215
335 0.326013
340 0.709877
345 0.337613
350 0.501812
355 0.381459
360 0.224678
365 0.474417
370 0.422783
375 1.04831
380 0.760669
385 0.885678
390 0.73673
395 0.759635
400 0.724991
405 0.524512
410 0.567586
415 0.603295
420 0.543172
425 0.629918
430 0.570241
435 0.484012
440 0.681786
445 0.434221
450 0.500442
455 0.403413
460 0.425395
465 0.359777
470 0.458941
475 0.538313
480 0.979539
485 0.631192
490 0.531866
495 0.786243
500 0.41735
505 0.290582
510 0.307796
515 0.371304
520 0.365502
525 0.424594
530 0.299326
535 0.598357
540 0.50275
545 0.16547
550 0.286651
555 0.50772
560 0.727437
565 0.433546
570 0.292221
575 0.584502
580 0.496007
585 0.385405
590 0.412792
595 0.312561
600 0.813698
Ex : 293
200 0.28
205 0.624963
210 0.519559
215 0.399288
220 0.406329
225 0.580357
230 0.316451
235 0.190355
240 0.31222
245 0.611422
250 0.543982
255 0.403566
260 0.306572
265 0.277255
270 0.299571
275 0.094313
280 0.181915
285 0.259348
290 0.281185
295 0.173069
300 0.207454
305 0.127184
310 0.434254
315 0.455301
320 0.198204
325 0.612895
330 0.366865
335 0.404454
340 0.243888
345 0.564988
350 0.369403
355 0.279866
360 0.296146
365 0.408153
370 0.38879
375 0.619416
380 0.457415
385 0.644556
390 0.371359
395 0.597998
400 0.436796
405 0.335608
410 0.578902
415 0.670988
420 0.690672
425 0.398523
430 0.641869
435 0.453697
440 0.434086
445 0.621669
450 0.462247
455 0.384348
460 0.45612
465 0.410727
470 0.728078
475 0.32446
480 0.368037
485 0.463084
490 0.313865
495 0.412874
500 0.43632
505 0.402376
510 0.344441
515 0.48276
520 0.361752
525 0.186875
530 0.330396
535 0.475841
540 0.469703
545 0.532056
550 0.297673
555 0.384082
560 0.287378
565 0.401763
570 0.40735
575 0.277559
580 0.359277
585 0.378752
590 0.239315
595 0.442641
600 0.0503709
Ex : 298
200 0.368587
205 0.269278
210 0.119627
215 0.248114
220 0.229917
225 0.438089
230 0.290739
235 0.297785
240 0.299183
245 0.181142
250 0.356856
255 0.257416
260 0.109709
265 0.118973
270 0.496518
275 0.283422
280 0.342464
285 0.187207
290 0.30082
295 0.303071
300 0.220039
305 0.240517
310 0.315447
315 0.123512
320 0.316015
325 0.286009
330 0.434083
335 0.249662
340 0.39506
345 0.390841
350 0.286168
355 0.3474
360 0.423823
365 0.387379
370 0.334025
375 0.371246
380 0.396164
385 0.469529
390 0.62798
395 0.320731
400 0.582223
405 0.510359
410 0.592066
415 0.578646
420 0.644331
425 1.00706
430 0.402585
435 0.409847
440 0.580371
445 0.291137
450 0.352725
455 0.360336
460 0.298277
465 0.279469
470 0.251845
475 0.390227
480 0.241919
485 0.50103
490 0.30143
495 0.18368
500 0.16102
505 0.343371
510 0.497234
515 0.232373
520 0.420356
525 0.299146
530 0.181273
535 0.445183
540 0.413971
545 0.282199
550 0.391656
555 0.31607
560 0.416114
565 0.463795
570 0.180017
575 0.158481
580 0.332637
585 0.310932
590 0.431183
595 0.416781
600 0.0474281
Ex : 303
200 0.17576
205 0.080829
210 0.0645423
215 0.178512
220 0.237548
225 0.288192
230 0.314085
235 0.193645
240 0.232805
245 0.230225
250 0.137761
255 0.393386
260 0.120696
265 0.223788
270 0.21231
275 0.493592
280 0.267929
285 0.318168
290 0.113672
295 0.192891
300 0.190999
305 0.17232
310 0.179914
315 0.183182
320 0.466907
325 0.440673
330 0.264624
335 0.263891
340 0.431564
345 0.430404
350 0.660442
355 0.454315
360 0.44859
365 0.709939
370 0.348945
375 0.35478
380 0.316551
385 0.448775
390 0.343216
395 0.524557
400 0.449787
405 0.410009
410 0.498944
415 0.388365
420 0.359924
425 0.59575
430 0.661831
435 0.789056
440 0.353173
445 0.542683
450 0.583914
455 0.388261
460 0.306284
465 0.296798
470 0.29967
475 0.226936
480 0.435429
485 0.320915
490 0.271613
495 0.301693
500 0.168191
505 0.166609
510 0.40374
515 0.258095
520 0.153682
525 0.29145
530 0.254454
535 0.22589
540 0.299376
545 0.408422
550 0.159027
555 0.163074
560 0.304496
565 0.173403
570 0.401336
575 0.336133
580 0.278027
585 0.145405
590 0.592094
595 0.29172
600 0.210437
Ex : 308
200 0.0639535
205 0.115917
210 0.122416
215 0.0854133
220 0.125391
225 0.235593
230 0.246133
235 0.343056
240 0.101537
245 0.124706
250 0.143798
255 0.120088
260 0.0954548
265 0.171715
270 0.113805
275 0.297573
280 0.293816
285 0.139087
290 0.208016
295 0.115137
300 0.209254
305 0.330143
310 0.212249
315 0.259757
320 0.121955
325 0.131978
330 0.376766
335 0.26632
340 0.171071
345 0.377069
350 0.229191
355 0.440674
360 0.217824
365 0.295623
370 0.520065
375 0.404373
380 0.235939
385 0.644125
390 0.620357
395 0.425803
400 0.385341
405 0.538919
410 0.466527
415 0.441483
420 0.514587
425 0.423143
430 0.572277
435 0.510977
440 0.393124
445 0.382395
450 0.272817
455 0.292143
460 0.446646
465 0.623399
470 0.410921
475 0.433902
480 0.2678
485 0.183499
490 0.201573
495 0.232604
500 0.328807
505 0.303826
510 0.485755
515 0.305653
520 0.291684
525 0.268839
530 0.175267
535 0.342201
540 0.257294
545 0.208899
550 0.3279
555 0.162209
560 0.20691
565 0.0997322
570 0.0969727
575 0.205553
580 0.120702
585 0.259188
590 0.204347
595 0.391723
600 0.0445766
Ex : 313
200 0.0808561
205 0.125036
210 0.143344
215 0.291277
220 0.167998
225 0.096864
230 0.26185
235 0.246822
240 0.203163
245 0.0743893
250 0.0758469
255 0.114462
260 0.205275
265 0.150563
270 0.219604
275 0.112592
280 0.131648
285 0.255132
290 0.0635778
295 0.120701
300 0.044919
305 0.246586
310 0.183213
315 0.175663
320 0.197922
325 0.236149
330 0.245865
335 0.317144
340 0.398459
345 0.324348
350 0.390748
355 0.538485
360 0.463176
365 0.529261
370 0.735229
375 0.671973
380 0.605714
385 0.798712
390 0.903266
395 0.762541
400 0.905789
405 0.788885
410 0.809332
415 0.831043
420 0.971207
425 1.10935
430 0.769751
435 0.635153
440 1.09783
445 0.925243
450 0.748039
455 0.615733
460 0.45969
465 0.635889
470 0.5517
475 0.464417
480 0.460678
485 0.366582
490 0.492917
495 0.517872
500 0.424684
505 0.387304
510 0.339564
515 0.308748
520 0.31665
525 0.253274
530 0.114008
535 0.223949
540 0.150787
545 0.357297
550 0.273281
555 0.109332
560 0.261604
565 0.163205
570 0.179651
575 0.202756
580 0.270588
585 0.123254
590 0.134266
595 0.203737
600 0.0231845
Ex : 318
200 0.173648
205 0.288279
210 0.223178
215 0.0838461
220 0.0787909
225 0.0558577
230 0.216042
235 0.161124
240 0.195481
245 0.165748
250 0.152963
255 0.282536
260 0.20963
265 0.0929161
270 0.130107
275 0.18945
280 0.184089
285 0.158545
290 0.253687
295 0.202169
300 0.0964193
305 0.0562733
310 0.310778
315 0.715475
320 0.405957
325 0.435585
330 0.510753
335 0.649632
340 0.952827
345 1.39678
350 2.15113
355 2.7939
360 3.12213
365 4.1848
370 5.13792
375 6.1833
380 7.18495
385 8.25122
390 9.29133
395 9.56408
400 9.8663
405 9.76831
410 10.2318
415 10.4158
420 9.07744
425 9.90938
430 8.93118
435 7.82604
440 8.22722
445 7.54541
450 7.27747
455 6.97281
460 6.25299
465 5.68924
470 5.34408
475 4.81702
480 4.30307
485 3.63193
490 3.63827
495 3.11544
500 2.54868
505 2.22754
510 2.10695
515 1.35135
520 1.33963
525 1.00479
530 0.881134
535 1.0207
540 0.607042
545 0.56165
550 0.643944
555 0.433262
560 0.517803
565 0.36758
570 0.263911
575 0.263144
580 0.233238
585 0.248507
590 0.104314
595 0.321935
600 0.036635
Ex : 323
200 0.234962
205 0.185236
210 0.211922
215 0.159102
220 0.2073
225 0.212336
230 0.242406
235 0.0889842
240 0.184571
245 0.110128
250 0.10605
255 0.0538682
260 0.203602
265 0.114867
270 0.0854703
275 0.157917
280 0.114843
285 0.143923
290 0.199428
295 0.139183
300 0.129395
305 0.125184
310 0.204948
315 6.77611
320 34.3978
325 15.0555
330 3.13547
335 2.68067
340 3.87728
345 6.18483
350 8.36013
355 12.0527
360 15.127
365 18.4498
370 20.4917
375 24.6405
380 27.3473
385 30.2858
390 33.5812
395 35.6898
400 37.9022
405 36.8145
410 37.6998
415 36.7189
420 36.2886
425 35.3906
430 33.7446
435 32.1075
440 30.4251
445 29.1551
450 27.1562
455 25.9139
460 24.5388
465 22.4045
470 20.2925
475 18.5788
480 17.6003
485 15.3804
490 14.0147
495 12.0245
500 11.0786
505 9.89684
510 8.33589
515 6.73161
520 5.92823
525 5.00507
530 4.42085
535 3.67658
540 3.39115
545 2.30451
550 2.11764
555 1.8514
560 1.54482
565 1.24058
570 0.982386
575 0.924637
580 0.624843
585 0.558664
590 0.312661
595 0.27769
600 0.0316001
Ex : 328
200 0.0874444
205 0.116638
210 0.128074
215 0.202933
220 0.0654733
225 0.118036
230 0.15095
235 0.183091
240 0.157044
245 0.0712545
250 0.14333
255 0.214844
260 0.211268
265 0.116327
270 0.0908113
275 0.0816594
280 0.172161
285 0.163839
290 0.154824
295 0.218597
300 0.131847
305 0.146391
310 0.126864
315 1.35748
320 75.4543
325 181.689
330 54.5431
335 9.55188
340 5.93498
345 7.11879
350 9.11033
355 13.5315
360 18.4196
365 20.8133
370 22.8783
375 24.8213
380 29.5719
385 32.1913
390 35.2757
395 37.225
400 39.3525
405 39.2416
410 40.576
415 40.2124
420 38.0311
425 36.8474
430 35.574
435 33.8093
440 31.8571
445 30.2022
450 28.8976
455 27.2187
460 25.0891
465 22.3954
470 20.7975
475 19.8461
480 17.6724
485 15.4595
490 14.0154
495 12.8909
500 11.331
505 9.28125
510 8.37545
515 7.55083
520 6.22316
525 5.42521
530 4.98669
535 4.1485
540 3.21761
545 2.53501
550 2.12068
555 2.38458
560 2.01728
565 1.51759
570 0.988966
575 0.885303
580 0.713746
585 0.456568
590 0.405269
595 0.369509
600 0.239862
Ex : 333
200 0.0974674
205 0.122297
210 0.117882
215 0.100707
220 0.21294
225 0.270485
230 0.19823
235 0.115118
240 0.150195
245 0.0917717
250 0.12081
255 0.0954593
260 0.0807718
265 0.0791188
270 0.176691
275 0.0910444
280 0.0896786
285 0.123649
290 0.130871
295 0.12468
300 0.221781
305 0.11603
310 0.141816
315 0.145986
320 11.1286
325 216.094
330 369.153
335 94.414
340 14.2028
345 5.75848
350 5.90386
355 6.53751
360 10.157
365 14.5358
370 15.2811
375 15.22
380 16.6737
385 19.1388
390 21.2585
395 22.6112
400 23.1529
405 22.3989
410 23.9458
415 23.9874
420 22.3341
425 21.1209
430 19.9987
435 18.6979
440 18.3561
445 17.0964
450 16.2358
455 14.5867
460 13.6509
465 12.1018
470 11.8401
475 10.0197
480 9.3546
485 8.2863
490 7.53019
495 6.8493
500 6.17204
505 5.21724
510 4.31874
515 4.27093
520 3.43407
525 3.05286
530 2.44352
535 2.23418
540 2.04427
545 1.34693
550 1.4837
555 1.10178
560 0.835927
565 0.877776
570 0.729924
575 0.766996
580 0.562131
585 0.347263
590 0.373282
595 0.322503
600 0.408333
Ex : 338
200 0.321329
205 0.0782586
210 0.119954
215 0.136565
220 0.0931711
225 0.0954801
230 0.108367
235 0.15147
240 0.110308
245 0.133916
250 0.0945657
255 0.0856074
260 0.0478881
265 0.112647
270 0.0939977
275 0.204944
280 0.117299
285 0.0808699
290 0.108085
295 0.136014
300 0.122507
305 0.178721
310 0.162479
315 0.226087
320 0.275203
325 19.6333
330 317.92
335 477.875
340 116.637
345 16.3324
350 5.22654
355 3.82707
360 3.8814
365 5.48262
370 10.04
375 10.6955
380 9.77699
385 9.82528
390 12.6741
395 13.698
400 12.9445
405 12.9326
410 14.2558
415 14.9513
420 13.7847
425 12.3669
430 11.5257
435 11.4187
440 10.7984
445 10.0564
450 9.2517
455 8.59163
460 7.36182
465 7.16906
470 6.78705
475 6.13332
480 5.53189
485 5.31388
490 4.53808
495 4.28181
500 3.19436
505 3.32452
510 3.09315
515 2.66912
520 2.03576
525 2.08677
530 1.86392
535 1.47997
540 1.49515
545 1.1903
550 0.988572
555 0.715401
560 0.739684
565 0.62682
570 0.620786
575 0.488102
580 0.476859
585 0.361736
590 0.229341
595 0.348794
600 0.0396914
Ex : 343
200 0.0767745
205 0.168908
210 0.174285
215 0.0836101
220 0.131632
225 0.154064
230 0.0879645
235 0.0853772
240 0.108009
245 0.167658
250 0.169473
255 0.054802
260 0.102671
265 0.166823
270 0.0877849
275 0.201748
280 0.0724054
285 0.143032
290 0.0814511
295 0.0944175
300 0.177896
305 0.147027
310 0.142054
315 0.188891
320 0.157451
325 0.285208
330 22.5679
335 350.348
340 519.8
345 129.132
350 17.1058
355 4.36861
360 2.68548
365 2.40257
370 3.33384
375 7.14465
380 9.14094
385 9.84664
390 10.7179
395 10.7571
400 9.92178
405 10.534
410 11.9572
415 12.41
420 11.7513
425 10.4021
430 9.40207
435 9.40083
440 8.9133
445 8.31387
450 7.67651
455 6.90188
460 6.34123
465 6.0192
470 5.73448
475 5.25146
480 4.6102
485 4.1336
490 3.94456
495 3.4153
500 3.42182
505 2.84357
510 2.34225
515 1.98435
520 1.84594
525 1.52255
530 1.4507
535 1.42623
540 1.35157
545 1.10342
550 0.95599
555 0.902708
560 0.718445
565 0.556682
570 0.58868
575 0.566504
580 0.436523
585 0.467583
590 0.360071
595 0.390068
600 0.454778
Ex : 348
200 0.121463
205 0.0610233
210 0.115882
215 0.0782671
220 0.127373
225 0.191605
230 0.0740411
235 0.0683785
240 0.0773157
245 0.119181
250 0.123946
255 0.0972961
260 0.0902908
265 0.126328
270 0.162688
275 0.10107
280 0.0602772
285 0.0807315
290 0.0754783
295 0.143021
300 0.0727247
305 0.0902125
310 0.237289
315 0.12258
320 0.125708
325 0.233951
330 0.487913
335 23.1229
340 373.753
345 554.742
350 145.022
355 18.6851
360 4.23248
365 2.38325
370 2.00575
375 2.51828
380 7.04159
385 11.9751
390 13.8707
395 12.9591
400 11.9545
405 12.4303
410 13.908
415 14.5127
420 13.8011
425 12.4906
430 11.446
435 11.0148
440 10.8463
445 9.84192
450 9.10751
455 7.72036
460 7.11688
465 6.83962
470 6.0962
475 5.50328
480 5.08982
485 4.63429
490 4.17315
495 3.70854
500 3.4674
505 2.79591
510 2.86153
515 2.57042
520 2.2859
525 1.81648
530 1.56851
535 1.5439
540 1.40368
545 1.18527
550 0.994006
555 0.819046
560 0.858592
565 0.636098
570 0.502414
575 0.494944
580 0.315463
585 0.356664
590 0.297809
595 0.273084
600 0.031076
Ex : 353
200 0.183267
205 0.0615469
210 0.0768296
215 0.0947351
220 0.0843389
225 0.0768979
230 0.12243
235 0.119186
240 0.0583561
245 0.109829
250 0.142133
255 0.133889
260 0.0839123
265 0.0684668
270 0.062644
275 0.06355
280 0.140948
285 0.106468
290 0.16006
295 0.159828
300 0.147466
305 0.0743141
310 0.120753
315 0.138605
320 0.0884601
325 0.161865
330 0.260501
335 0.462359
340 24.9052
345 392.732
350 562.122
355 138.328
360 17.6135
365 3.95911
370 2.19658
375 1.6771
380 3.23876
385 8.65285
390 15.8603
395 16.3245
400 14.1215
405 13.0351
410 14.4307
415 16.4459
420 15.4104
425 13.6839
430 11.845
435 11.2983
440 11.1739
445 11.0209
450 9.52112
455 8.40321
460 7.80969
465 7.46595
470 6.57527
475 6.53013
480 5.64699
485 4.93881
490 4.61192
495 4.08488
500 3.74071
505 3.50703
510 3.07923
515 2.3095
520 2.42809
525 1.95819
530 1.56945
535 1.53479
540 1.27988
545 1.09103
550 1.10732
555 0.899551
560 0.774197
565 0.774851
570 0.645403
575 0.404007
580 0.393719
585 0.293601
590 0.278675
595 0.236474
600 0.300367
Ex : 358
200 0.0955817
205 0.0727737
210 0.0651843
215 0.0675683
220 0.112142
225 0.0675317
230 0.169009
235 0.167046
240 0.0834359
245 0.0955798
250 0.131738
255 0.120726
260 0.0349025
265 0.0828556
270 0.09312
275 0.0806461
280 0.080992
285 0.100115
290 0.0914216
295 0.0784425
300 0.0744584
305 0.0875199
310 0.0450064
315 0.164447
320 0.166244
325 0.119298
330 0.158968
335 0.322383
340 0.525057
345 24.8326
350 378.911
355 588.367
360 146.08
365 18.2929
370 3.90554
375 2.53772
380 3.12965
385 5.74333
390 11.0356
395 16.4201
400 14.6509
405 13.4253
410 13.9805
415 14.9736
420 14.4247
425 12.2789
430 10.9902
435 10.8565
440 10.8451
445 10.4407
450 9.79891
455 8.38411
460 7.67167
465 7.07711
470 6.57857
475 6.32274
480 5.66524
485 5.25473
490 4.6182
495 4.00824
500 3.84026
505 3.43739
510 3.08584
515 2.52846
520 2.37269
525 2.16742
530 2.04024
535 1.55871
540 1.61043
545 1.3245
550 1.22536
555 1.0436
560 0.911411
565 0.692664
570 0.727978
575 0.550803
580 0.448736
585 0.27757
590 0.311446
595 0.254314
600 0.02894
Ex : 363
200 0.0728798
205 0.0860158
210 0.0703852
215 0.0899231
220 0.0618893
225 0.137267
230 0.097437
235 0.12679
240 0.0617416
245 0.0697176
250 0.106131
255 0.10991
260 0.0936719
265 0.136029
270 0.0978706
275 0.111625
280 0.110641
285 0.0541231
290 0.123786
295 0.0895728
300 0.106977
305 0.0804403
310 0.0718539
315 0.0604731
320 0.123637
325 0.16402
330 0.175384
335 0.204768
340 0.259139
345 0.501641
350 22.481
355 375.082
360 593.205
365 151.79
370 19.0766
375 4.04768
380 4.34519
385 7.73096
390 11.0382
395 13.0944
400 15.5238
405 16.597
410 17.1762
415 17.9406
420 15.6445
425 13.5269
430 12.3836
435 12.1288
440 12.2652
445 11.8704
450 9.60537
455 9.27245
460 8.50626
465 8.15883
470 7.19369
475 6.67077
480 6.25632
485 5.54203
490 5.14515
495 4.92429
500 4.23228
505 3.84178
510 3.4697
515 3.02486
520 2.69637
525 2.32678
530 2.05145
535 1.86775
540 1.50912
545 1.38786
550 1.19314
555 1.13592
560 1.06205
565 0.820274
570 0.601723
575 0.683384
580 0.436518
585 0.320778
590 0.28984
595 0.25271
600 0.161688
Ex : 368
200 0.0623694
205 0.0850999
210 0.0846386
215 0.0667711
220 0.058043
225 0.0675666
230 0.0657532
235 0.0807404
240 0.0550873
245 0.0809345
250 0.0644692
255 0.0768464
260 0.0657885
265 0.0644771
270 0.0667301
275 0.0569147
280 0.104287
285 0.130172
290 0.0546546
295 0.0552289
300 0.0774133
305 0.100676
310 0.0581452
315 0.0702175
320 0.0820457
325 0.114046
330 0.174034
335 0.189324
340 0.190163
345 0.334922
350 0.504634
355 18.7282
360 359.11
365 592.448
370 160.369
375 20.6052
380 6.35086
385 9.28125
390 14.1857
395 16.2517
400 14.9788
405 17.9966
410 22.3979
415 23.3148
420 20.9987
425 17.5463
430 14.9091
435 15.2525
440 15.2188
445 14.0539
450 12.2816
455 10.7201
460 9.80903
465 9.26958
470 8.1952
475 7.94714
480 7.49529
485 6.1549
490 5.62218
495 5.22554
500 4.55264
505 4.20836
510 3.77207
515 3.24296
520 2.75279
525 2.5773
530 2.24192
535 1.9884
540 1.64646
545 1.43066
550 1.31013
555 1.17251
560 1.05052
565 0.903457
570 0.739883
575 0.503164
580 0.381188
585 0.400391
590 0.312915
595 0.271752
600 0.329086
Ex : 373
200 0.0714584
205 0.047936
210 0.0530605
215 0.0371883
220 0.095134
225 0.0862395
230 0.0447979
235 0.0699059
240 0.04056
245 0.075948
250 0.123273
255 0.0361343
260 0.0359277
265 0.0445857
270 0.0548915
275 0.0923316
280 0.103635
285 0.141286
290 0.0523854
295 0.0775418
300 0.0736252
305 0.0845573
310 0.0474374
315 0.0663079
320 0.0926256
325 0.0721145
330 0.185185
335 0.150753
340 0.174684
345 0.173712
350 0.245366
355 0.593722
360 21.4898
365 370.982
370 590.375
375 154.91
380 20.879
385 9.05046
390 14.1014
395 17.2212
400 15.7373
405 14.5752
410 19.2409
415 24.8336
420 22.7621
425 18.4355
430 15.3816
435 14.1321
440 14.5813
445 14.4229
450 12.5167
455 10.6887
460 9.62787
465 9.0178
470 8.4853
475 8.09867
480 7.42542
485 6.21835
490 5.46767
495 5.10045
500 4.67539
505 4.30311
510 4.04513
515 3.51928
520 3.32726
525 2.72198
530 2.35331
535 1.97952
540 1.79289
545 1.57376
550 1.31035
555 1.1271
560 0.968658
565 0.806112
570 0.663984
575 0.496102
580 0.339928
585 0.319973
590 0.266141
595 0.222557
600 0.0253261
Ex : 378
200 0.0825616
205 0.106463
210 0.0437841
215 0.0553289
220 0.069364
225 0.0950177
230 0.0296232
235 0.0393303
240 0.054363
245 0.0863357
250 0.0909702
255 0.0605609
260 0.0515313
265 0.0314429
270 0.0541781
275 0.07657
280 0.0468259
285 0.0441258
290 0.129541
295 0.0692863
300 0.113192
305 0.0880749
310 0.0650652
315 0.0556396
320 0.0665871
325 0.0910857
330 0.170664
335 0.0883146
340 0.128462
345 0.122309
350 0.221709
355 0.293233
360 0.444036
365 20.3471
370 373.848
375 613.968
380 164.879
385 24.6185
390 12.2557
395 13.0902
400 11.5511
405 10.8589
410 12.4897
415 16.7222
420 18.3674
425 15.6731
430 12.6437
435 11.7001
440 11.4587
445 11.2601
450 9.86111
455 8.67499
460 7.84445
465 7.56365
470 7.1218
475 6.78736
480 6.29331
485 5.61496
490 5.09036
495 4.7631
500 4.63561
505 3.97072
510 3.54032
515 3.02694
520 2.63756
525 2.68843
530 2.12303
535 1.89604
540 1.71236
545 1.54557
550 1.37629
555 1.15148
560 1.02984
565 0.869
570 0.721952
575 0.617627
580 0.449548
585 0.370563
590 0.274676
595 0.279608
600 0.0318183
Ex : 383
200 0.0771668
205 0.129023
210 0.094564
215 0.0622466
220 0.0720157
225 0.0438235
230 0.0389295
235 0.0382642
240 0.0428886
245 0.0602369
250 0.0505962
255 0.103354
260 0.0844678
265 0.058897
270 0.108153
275 0.0537794
280 0.0524502
285 0.0582255
290 0.0675733
295 0.0470596
300 0.0456561
305 0.0801697
310 0.0750065
315 0.085919
320 0.0295541
325 0.0534671
330 0.134822
335 0.12916
340 0.0848972
345 0.157668
350 0.156038
355 0.206854
360 0.290895
365 0.492542
370 17.8821
375 362.2
380 628.476
385 171.079
390 29.686
395 13.7461
400 10.7879
405 11.3506
410 13.0682
415 14.5228
420 14.4188
425 14.7034
430 14.466
435 13.1022
440 12.4469
445 10.9994
450 9.5036
455 8.46018
460 7.88574
465 7.74648
470 7.2437
475 7.16895
480 6.27683
485 5.82025
490 5.18238
495 4.85728
500 4.64365
505 4.01414
510 3.57785
515 3.39296
520 2.79205
525 2.65365
530 2.3115
535 1.9891
540 1.81491
545 1.60095
550 1.22846
555 1.26729
560 1.06671
565 0.854014
570 0.697071
575 0.496622
580 0.465408
585 0.324012
590 0.33333
595 0.168054
600 0.0677783
Ex : 388
200 0.0810031
205 0.0523139
210 0.103729
215 0.0619603
220 0.0606574
225 0.0724697
230 0.0713551
235 0.0728735
240 0.0811955
245 0.102268
250 0.102991
255 0.106659
260 0.0792777
265 0.0702672
270 0.0748749
275 0.0452714
280 0.0474591
285 0.069336
290 0.0559262
295 0.110543
300 0.0725631
305 0.0775487
310 0.0859458
315 0.0856109
320 0.110108
325 0.0575108
330 0.0717602
335 0.0812742
340 0.129386
345 0.101015
350 0.124797
355 0.189227
360 0.217017
365 0.344594
370 0.605191
375 21.456
380 378.751
385 652.829
390 185.048
395 34.312
400 14.9743
405 14.148
410 16.5975
415 18.5147
420 17.4523
425 15.1603
430 15.2627
435 16.4991
440 15.5453
445 14.0212
450 12.227
455 10.2252
460 9.28118
465 8.49736
470 8.25187
475 7.69882
480 6.82926
485 6.15798
490 5.51549
495 5.21098
500 5.02957
505 4.23975
510 3.90424
515 3.5262
520 3.11856
525 2.85913
530 2.44233
535 2.13962
540 1.79257
545 1.5901
550 1.5576
555 1.26174
560 1.09638
565 1.03049
570 0.687598
575 0.589019
580 0.429937
585 0.30566
590 0.289812
595 0.21783
600 0.0684271
Ex : 393
200 0.0498456
205 0.0391645
210 0.0394675
215 0.0720979
220 0.0399525
225 0.0498141
230 0.0565663
235 0.0971892
240 0.0427372
245 0.0323354
250 0.0449287
255 0.0407479
260 0.0547277
265 0.0453116
270 0.0593384
275 0.0471978
280 0.0595707
285 0.0364644
290 0.0697175
295 0.0495519
300 0.0637018
305 0.0496769
310 0.0666251
315 0.0616934
320 0.056768
325 0.0832196
330 0.070313
335 0.0736347
340 0.0666883
345 0.0937147
350 0.125916
355 0.182837
360 0.160813
365 0.245164
370 0.383252
375 0.73462
380 18.1982
385 368.902
390 641.552
395 186.348
400 33.7998
405 15.1508
410 15.8339
415 19.1463
420 18.8755
425 15.6759
430 12.9365
435 13.9449
440 16.1836
445 15.137
450 12.7147
455 11.029
460 8.96184
465 8.40972
470 7.84725
475 7.67404
480 6.96796
485 6.2282
490 5.56048
495 5.14281
500 4.74161
505 4.33865
510 3.68908
515 3.36567
520 2.95033
525 2.65488
530 2.38235
535 2.1679
540 1.92644
545 1.58381
550 1.35321
555 1.3686
560 1.01173
565 0.899888
570 0.797006
575 0.634383
580 0.375767
585 0.363661
590 0.305347
595 0.267578
600 0.0367568
Ex : 398
200 0.0561998
205 0.0773756
210 0.0857154
215 0.0547577
220 0.104474
225 0.0299745
230 0.108092
235 0.0528122
240 0.0718524
245 0.0664633
250 0.0439598
255 0.0265625
260 0.0610826
265 0.0235101
270 0.0346999
275 0.0423598
280 0.0440789
285 0.0391397
290 0.0688514
295 0.0456965
300 0.0842016
305 0.0634843
310 0.0439839
315 0.079059
320 0.0553059
325 0.115913
330 0.0562419
335 0.070324
340 0.0994077
345 0.111718
350 0.131529
355 0.0704323
360 0.169616
365 0.161204
370 0.221902
375 0.342036
380 0.781001
385 19.9433
390 384.885
395 659.493
400 185.065
405 28.3696
410 11.4749
415 11.9283
420 12.3642
425 10.2505
430 8.40569
435 7.9544
440 9.2416
445 11.3164
450 10.3744
455 8.31868
460 7.12574
465 6.25026
470 6.10598
475 5.60593
480 5.40233
485 4.72955
490 4.53396
495 4.15216
500 3.77736
505 3.68404
510 3.45548
515 2.89599
520 2.73677
525 2.35474
530 2.12627
535 1.82515
540 1.64784
545 1.42178
550 1.31103
555 1.21899
560 1.10579
565 0.777084
570 0.655913
575 0.542201
580 0.506067
585 0.428187
590 0.299329
595 0.222312
600 0.11906
Ex : 403
200 0.0746777
205 0.0741936
210 0.0398898
215 0.0429588
220 0.0484065
225 0.0428246
230 0.0531956
235 0.0356495
240 0.0650817
245 0.0680074
250 0.0936021
255 0.0511692
260 0.0371916
265 0.0367395
270 0.0479512
275 0.0596408
280 0.0664373
285 0.0461005
290 0.0433146
295 0.0720393
300 0.0578602
305 0.0703804
310 0.0602288
315 0.080935
320 0.0862934
325 0.0738389
330 0.0765891
335 0.109187
340 0.114305
345 0.0558023
350 0.087412
355 0.0760785
360 0.0766364
365 0.105946
370 0.130154
375 0.273247
380 0.406458
385 0.887513
390 22.0083
395 387.101
400 644.894
405 177.202
410 24.453
415 7.62966
420 6.24436
425 5.39863
430 4.88769
435 4.67218
440 4.88829
445 5.5448
450 7.36676
455 7.53568
460 5.82052
465 5.26978
470 4.76025
475 4.5859
480 4.30853
485 4.1848
490 4.08715
495 3.95514
500 3.59831
505 3.46833
510 2.84426
515 2.65565
520 2.32099
525 2.09485
530 2.12554
535 1.73334
540 1.58084
545 1.54061
550 1.25001
555 1.17826
560 0.994207
565 0.812332
570 0.720341
575 0.625847
580 0.369794
585 0.379383
590 0.330111
595 0.209881
600 0.0238836
Ex : 408
200 0.0501697
205 0.0729194
210 0.0604148
215 0.0895253
220 0.0525877
225 0.0409403
230 0.112593
235 0.0739827
240 0.109608
245 0.0894427
250 0.049472
255 0.0682643
260 0.0380029
265 0.0629805
270 0.0439113
275 0.0461753
280 0.07117
285 0.0704072
290 0.0600393
295 0.0385855
300 0.0445647
305 0.0372797
310 0.0532379
315 0.061848
320 0.0721724
325 0.0712139
330 0.103827
335 0.0624096
340 0.0757383
345 0.0695761
350 0.0892445
355 0.149388
360 0.13215
365 0.0782302
370 0.106773
375 0.221259
380 0.228036
385 0.36512
390 0.852572
395 20.6485
400 407.617
405 665.121
410 174.008
415 24.1305
420 6.97738
425 4.68241
430 4.33637
435 4.45926
440 4.87666
445 4.64368
450 4.84189
455 6.12809
460 7.02022
465 6.34606
470 5.48474
475 4.95456
480 4.41556
485 4.23496
490 3.72889
495 3.51141
500 3.38082
505 3.35909
510 2.92346
515 2.68275
520 2.46678
525 2.19747
530 1.98179
535 1.85225
540 1.55181
545 1.37714
550 1.24843
555 1.10686
560 1.04597
565 0.852872
570 0.612164
575 0.496795
580 0.403337
585 0.272918
590 0.287828
595 0.186577
600 0.084532
Ex : 413
200 0.0775371
205 0.054827
210 0.0720048
215 0.0506264
220 0.0507874
225 0.0437191
230 0.0564371
235 0.0498089
240 0.0296463
245 0.0615619
250 0.14216
255 0.048855
260 0.056398
265 0.0456004
270 0.0523549
275 0.0345336
280 0.0294484
285 0.0308875
290 0.0249221
295 0.0768227
300 0.0657149
305 0.0585835
310 0.0525181
315 0.0564792
320 0.0557946
325 0.0655242
330 0.137719
335 0.0861767
340 0.0674074
345 0.0947403
350 0.112184
355 0.0753825
360 0.0634533
365 0.0781142
370 0.0824908
375 0.114911
380 0.170251
385 0.263363
390 0.454818
395 0.768234
400 23.1796
405 412.537
410 659.464
415 173.794
420 23.8444
425 6.00592
430 3.87861
435 4.04707
440 4.31345
445 4.24357
450 4.32833
455 4.07909
460 4.99677
465 6.48466
470 5.88567
475 4.99403
480 4.56065
485 3.82489
490 3.42472
495 3.14762
500 3.21085
505 2.89391
510 2.67654
515 2.49801
520 2.30751
525 2.01114
530 1.87969
535 1.85046
540 1.55859
545 1.49548
550 1.22589
555 1.19413
560 1.02957
565 0.86402
570 0.670076
575 0.606837
580 0.34603
585 0.315017
590 0.265413
595 0.160422
600 0.12269
Ex : 418
200 0.048481
205 0.0222697
210 0.0719027
215 0.0666673
220 0.0672619
225 0.0432681
230 0.0534829
235 0.0438282
240 0.077265
245 0.048489
250 0.0733629
255 0.102702
260 0.0654218
265 0.0460515
270 0.0819
275 0.0351065
280 0.0659634
285 0.042686
290 0.0618127
295 0.0550092
300 0.0469539
305 0.0747055
310 0.0524927
315 0.0725863
320 0.0880381
325 0.0538239
330 0.0339886
335 0.0760283
340 0.078287
345 0.0830169
350 0.0526218
355 0.0579498
360 0.0932201
365 0.147055
370 0.107493
375 0.0958881
380 0.140297
385 0.170118
390 0.239033
395 0.399729
400 0.778885
405 21.8409
410 397.56
415 682.292
420 183.36
425 23.5753
430 4.76547
435 2.93638
440 2.9704
445 3.00353
450 2.79289
455 2.54957
460 2.58877
465 3.33953
470 5.02568
475 5.18859
480 4.02999
485 3.64878
490 3.14408
495 2.74522
500 2.60845
505 2.49328
510 2.43512
515 2.36627
520 2.075
525 1.83905
530 1.7021
535 1.56246
540 1.4767
545 1.27746
550 1.02537
555 0.92392
560 0.968959
565 0.71361
570 0.72442
575 0.504495
580 0.323565
585 0.332222
590 0.240753
595 0.167955
600 0.270204
Ex : 423
200 0.03386
205 0.0833293
210 0.0354087
215 0.0153553
220 0.0513281
225 0.107272
230 0.0472678
235 0.0290608
240 0.0626199
245 0.0448974
250 0.0624599
255 0.0475223
260 0.128336
265 0.0831956
270 0.0787828
275 0.0611723
280 0.102682
285 0.0403079
290 0.0595625
295 0.0945189
300 0.0705933
305 0.0631053
310 0.0484209
315 0.0470401
320 0.0337636
325 0.0414943
330 0.0733126
335 0.0976096
340 0.102163
345 0.0968243
350 0.0722049
355 0.0905393
360 0.0970379
365 0.0717879
370 0.0731226
375 0.0623199
380 0.140502
385 0.147118
390 0.147304
395 0.198867
400 0.418174
405 0.707931
410 21.9264
415 414.613
420 652.941
425 167.51
430 20.8515
435 3.9581
440 2.06595
445 2.09909
450 1.99733
455 1.61891
460 1.67869
465 1.82459
470 2.31577
475 3.83706
480 4.51781
485 3.45955
490 2.99257
495 2.93816
500 2.32967
505 2.10995
510 1.97385
515 1.78167
520 1.71357
525 1.51477
530 1.53
535 1.40784
540 1.16558
545 1.22512
550 1.07777
555 1.03604
560 0.902387
565 0.717595
570 0.565088
575 0.511492
580 0.294573
585 0.31874
590 0.227015
595 0.200264
600 0.031506
Ex : 428
200 0.0178868
205 0.0288515
210 0.0685944
215 0.0825066
220 0.0637938
225 0.0332013
230 0.0763878
235 0.0313075
240 0.0382092
245 0.0367899
250 0.0716582
255 0.0522878
260 0.0562407
265 0.072945
270 0.101344
275 0.090289
280 0.0593743
285 0.0574352
290 0.0550718
295 0.07957
300 0.0586771
305 0.0439495
310 0.0945896
315 0.0861916
320 0.0574916
325 0.059658
330 0.0433246
335 0.0609271
340 0.0443666
345 0.0610292
350 0.0606156
355 0.0524454
360 0.111173
365 0.134692
370 0.0903646
375 0.0968075
380 0.16859
385 0.167684
390 0.187262
395 0.150256
400 0.166456
405 0.302645
410 0.68223
415 24.6715
420 415.653
425 661.379
430 172.681
435 21.3062
440 3.62045
445 1.65868
450 1.49735
455 1.65299
460 1.44999
465 1.25004
470 1.5291
475 1.81014
480 3.09689
485 4.31896
490 3.62574
495 2.70422
500 2.52623
505 2.06115
510 1.94466
515 1.76719
520 1.6999
525 1.43288
530 1.44056
535 1.3288
540 1.30384
545 1.20705
550 0.997421
555 0.824474
560 0.757822
565 0.634263
570 0.550017
575 0.438082
580 0.412412
585 0.301273
590 0.25472
595 0.245856
600 0.0633078
Ex : 433
200 0.0435751
205 0.0343635
210 0.0337897
215 0.0520379
220 0.0538995
225 0.0364012
230 0.0457155
235 0.0735637
240 0.0654726
245 0.0502047
250 0.0375961
255 0.0545705
260 0.0316764
265 0.0310997
270 0.0688556
275 0.0824692
280 0.0656108
285 0.0635021
290 0.0970918
295 0.0777729
300 0.0563459
305 0.116545
310 0.0722666
315 0.0302664
320 0.0733796
325 0.0812784
330 0.0710045
335 0.0339119
340 0.0650926
345 0.0398897
350 0.0613373
355 0.135087
360 0.0868878
365 0.101755
370 0.0872499
375 0.0918918
380 0.0705084
385 0.110341
390 0.114024
395 0.0853273
400 0.166816
405 0.209292
410 0.365131
415 0.651114
420 26.2813
425 448.196
430 673.851
435 168.458
440 20.7513
445 3.61074
450 1.46376
455 1.5823
460 1.66449
465 1.343
470 1.31973
475 1.41021
480 1.59714
485 2.33684
490 4.12394
495 3.5684
500 2.74423
505 2.50469
510 1.98555
515 1.67308
520 1.49947
525 1.49006
530 1.46918
535 1.19868
540 1.1404
545 1.10683
550 0.971439
555 0.948113
560 0.760565
565 0.622372
570 0.455993
575 0.492287
580 0.358881
585 0.294183
590 0.232876
595 0.207987
600 0.154517
Ex : 438
200 0.0577179
205 0.0521479
210 0.0345214
215 0.0232791
220 0.0501293
225 0.0236176
230 0.0694253
235 0.0523304
240 0.0653938
245 0.0682734
250 0.0897781
255 0.0358565
260 0.04657
265 0.0625218
270 0.0288921
275 0.12704
280 0.0782239
285 0.0426489
290 0.0548752
295 0.0357092
300 0.0670064
305 0.0791136
310 0.0682914
315 0.0468727
320 0.046469
325 0.130201
330 0.0585264
335 0.0772652
340 0.0490841
345 0.0589722
350 0.0402647
355 0.111615
360 0.0742884
365 0.0845149
370 0.119356
375 0.086973
380 0.0991256
385 0.0839591
390 0.123944
395 0.138024
400 0.1451
405 0.196133
410 0.19141
415 0.34606
420 0.715512
425 25.3399
430 440.092
435 706.696
440 177.633
445 21.8996
450 3.67738
455 1.54136
460 1.42524
465 1.5691
470 1.50193
475 1.3828
480 1.36168
485 1.44043
490 1.92548
495 3.40303
500 3.93764
505 2.67681
510 1.94694
515 2.05807
520 1.61548
525 1.27047
530 1.15317
535 1.10416
540 1.02462
545 0.99166
550 0.846157
555 0.843634
560 0.715098
565 0.664481
570 0.524965
575 0.415178
580 0.402096
585 0.278212
590 0.264519
595 0.257595
600 0.0293133
Ex : 443
200 0.0561941
205 0.0605666
210 0.0470386
215 0.0693795
220 0.0908056
225 0.0403741
230 0.0451932
235 0.0548798
240 0.0657545
245 0.0473934
250 0.0694312
255 0.0523436
260 0.11589
265 0.0565178
270 0.0342636
275 0.0327007
280 0.0357596
285 0.0549768
290 0.0389919
295 0.0353463
300 0.045668
305 0.0401222
310 0.0717748
315 0.0857707
320 0.0627202
325 0.0954571
330 0.0946432
335 0.0743858
340 0.053561
345 0.0721572
350 0.0318614
355 0.0696751
360 0.0908789
365 0.0761049
370 0.102204
375 0.0549088
380 0.113909
385 0.101081
390 0.0893337
395 0.0943348
400 0.100996
405 0.114905
410 0.169519
415 0.258972
420 0.349681
425 0.66309
430 27.873
435 474.2
440 730.599
445 181.584
450 22.2016
455 3.7699
460 1.52158
465 1.44728
470 1.62042
475 1.38559
480 1.33067
485 1.32906
490 1.38835
495 1.56187
500 2.84944
505 3.66155
510 2.40216
515 1.91887
520 1.91938
525 1.56116
530 1.37409
535 1.25165
540 1.11786
545 0.912681
550 0.955194
555 0.767635
560 0.660362
565 0.579531
570 0.540569
575 0.438153
580 0.418369
585 0.285216
590 0.195654
595 0.210582
600 0.278858
Ex : 448
200 0.044333
205 0.0265145
210 0.0362446
215 0.0417931
220 0.0799795
225 0.0575912
230 0.0347373
235 0.0616424
240 0.0351966
245 0.0763397
250 0.0934072
255 0.0875172
260 0.0627849
265 0.0571946
270 0.0516168
275 0.0450536
280 0.0235527
285 0.0504755
290 0.0494175
295 0.0539257
300 0.0416332
305 0.0486169
310 0.0902818
315 0.062508
320 0.0667935
325 0.0474415
330 0.0453578
335 0.0975485
340 0.0429493
345 0.036876
350 0.0901097
355 0.0959836
360 0.0916665
365 0.0643278
370 0.0562078
375 0.0805841
380 0.0604028
385 0.0883587
390 0.0572341
395 0.112786
400 0.0962111
405 0.0910092
410 0.17753
415 0.16737
420 0.173473
425 0.416056
430 0.665746
435 30.5555
440 495.701
445 783.078
450 195.052
455 23.7708
460 3.8949
465 1.48408
470 1.30616
475 1.51078
480 1.4815
485 1.38693
490 1.2653
495 1.32491
500 1.43161
505 2.367
510 3.36684
515 2.7194
520 1.94852
525 1.65567
530 1.45133
535 1.12879
540 0.935426
545 0.987475
550 0.943988
555 0.784304
560 0.672505
565 0.656293
570 0.632309
575 0.446955
580 0.385958
585 0.247615
590 0.255609
595 0.175743
600 0.398112
Ex : 453
200 0.0300339
205 0.0733423
210 0.0612438
215 0.047635
220 0.0440329
225 0.0501599
230 0.0436129
235 0.065773
240 0.0481184
245 0.0860884
250 0.057542
255 0.0354867
260 0.0379349
265 0.0493045
270 0.0610319
275 0.0595585
280 0.0502529
285 0.0858069
290 0.0935177
295 0.0463598
300 0.0415369
305 0.0726845
310 0.0533177
315 0.0236966
320 0.0608652
325 0.0848666
330 0.077728
335 0.0390894
340 0.0963071
345 0.0714681
350 0.0512613
355 0.0840925
360 0.0568965
365 0.0587582
370 0.0445196
375 0.0445052
380 0.106988
385 0.0825063
390 0.094514
395 0.0719469
400 0.0740795
405 0.110434
410 0.14153
415 0.11108
420 0.254606
425 0.238731
430 0.386925
435 0.681614
440 29.9208
445 538.449
450 813.884
455 191.109
460 23.4795
465 3.91183
470 1.55317
475 1.4372
480 1.4997
485 1.342
490 1.28131
495 1.20071
500 1.10091
505 1.11144
510 1.57061
515 2.8624
520 2.85188
525 2.03138
530 1.6304
535 1.67036
540 1.21563
545 1.0764
550 1.05233
555 0.872209
560 0.811809
565 0.625137
570 0.530403
575 0.431568
580 0.341657
585 0.318987
590 0.227851
595 0.197809
600 0.283323
Ex : 458
200 0.0493933
205 0.060535
210 0.0529396
215 0.0829982
220 0.0559019
225 0.0592453
230 0.0873632
235 0.0307967
240 0.112277
245 0.0399643
250 0.0387017
255 0.0501499
260 0.0623289
265 0.0278502
270 0.0779881
275 0.0534788
280 0.0665982
285 0.0546392
290 0.0632173
295 0.0546231
300 0.0271837
305 0.0527553
310 0.0430726
315 0.0330371
320 0.0264327
325 0.076945
330 0.0741552
335 0.0549636
340 0.0429108
345 0.0670002
350 0.0307451
355 0.0753512
360 0.0740857
365 0.0585905
370 0.0410304
375 0.0622553
380 0.0677748
385 0.0734447
390 0.0895367
395 0.0874971
400 0.123237
405 0.128449
410 0.126299
415 0.115762
420 0.149014
425 0.167989
430 0.202748
435 0.348672
440 0.665376
445 33.269
450 580.026
455 871.029
460 207.249
465 25.4069
470 4.16751
475 1.45691
480 1.27143
485 1.59488
490 1.41024
495 1.25519
500 0.961673
505 1.00829
510 1.08962
515 1.19011
520 2.45499
525 2.94295
530 2.04023
535 1.45904
540 1.31064
545 1.18178
550 0.978154
555 0.765873
560 0.791835
565 0.711804
570 0.583268
575 0.449344
580 0.390823
585 0.33326
590 0.264051
595 0.270213
600 0.149102
Ex : 463
200 0.0487327
205 0.0464033
210 0.0518035
215 0.0290443
220 0.0396532
225 0.097526
230 0.0622064
235 0.0725577
240 0.0772127
245 0.081998
250 0.0696329
255 0.0660197
260 0.0459701
265 0.124372
270 0.0490114
275 0.0861767
280 0.0478099
285 0.0588686
290 0.0960685
295 0.0867627
300 0.0554819
305 0.0537819
310 0.0366139
315 0.053299
320 0.0518131
325 0.0433916
330 0.0507917
335 0.0567835
340 0.0595454
345 0.0423302
350 0.0428991
355 0.0749703
360 0.0486985
365 0.0808388
370 0.0718692
375 0.0643815
380 0.108928
385 0.0843166
390 0.0882808
395 0.084941
400 0.112172
405 0.10132
410 0.0679465
415 0.12452
420 0.162366
425 0.142821
430 0.229963
435 0.234378
440 0.358559
445 0.754628
450 33.8998
455 585.172
460 900.086
465 222.73
470 27.1451
475 4.44394
480 1.58906
485 1.17528
490 1.47995
495 1.54039
500 1.17672
505 0.914932
510 0.905301
515 0.984377
520 1.19618
525 1.79292
530 2.71064
535 2.36204
540 1.51646
545 1.39977
550 1.14273
555 1.04184
560 0.742973
565 0.608451
570 0.541453
575 0.505823
580 0.534
585 0.349092
590 0.324607
595 0.277246
600 0.772297
Ex : 468
200 0.044581
205 0.0575765
210 0.0467943
215 0.0866302
220 0.0557003
225 0.054471
230 0.0654545
235 0.0611525
240 0.0239565
245 0.0421939
250 0.0453027
255 0.0617858
260 0.0458905
265 0.0324793
270 0.0471323
275 0.0273698
280 0.0463341
285 0.0705007
290 0.036761
295 0.0503082
300 0.0360787
305 0.0433777
310 0.0688687
315 0.0560167
320 0.0844646
325 0.0649452
330 0.0453155
335 0.0681584
340 0.0534332
345 0.0571964
350 0.082587
355 0.0945586
360 0.0879173
365 0.0732884
370 0.0463367
375 0.0362834
380 0.0703535
385 0.0779618
390 0.109517
395 0.101413
400 0.0704743
405 0.0756169
410 0.0730614
415 0.095181
420 0.110698
425 0.17482
430 0.152754
435 0.21083
440 0.308948
445 0.439767
450 0.765315
455 38.5835
460 602.903
465 928.006
470 223.856
475 26.9872
480 4.39587
485 1.53978
490 1.1596
495 1.23154
500 1.37421
505 1.17039
510 1.09783
515 0.901812
520 0.998363
525 1.13263
530 1.35955
535 2.45984
540 2.75116
545 1.69814
550 1.20414
555 1.18108
560 0.914566
565 0.702652
570 0.691645
575 0.477414
580 0.418622
585 0.386395
590 0.337592
595 0.277285
600 0.299588
Ex : 473
200 0.0671729
205 0.0511775
210 0.0217715
215 0.0391158
220 0.0731207
225 0.0702618
230 0.0639378
235 0.0636478
240 0.048048
245 0.0477995
250 0.0703509
255 0.0777518
260 0.0578868
265 0.0482628
270 0.0452352
275 0.0360332
280 0.039753
285 0.0693544
290 0.0947196
295 0.0884123
300 0.0411192
305 0.0733577
310 0.0649062
315 0.0690388
320 0.0489117
325 0.069546
330 0.0707868
335 0.0493596
340 0.0737344
345 0.059644
350 0.0675148
355 0.130316
360 0.0700443
365 0.106177
370 0.0819426
375 0.0889437
380 0.0883683
385 0.0722273
390 0.12303
395 0.094726
400 0.0560335
405 0.129644
410 0.107694
415 0.083758
420 0.0837911
425 0.132481
430 0.14498
435 0.133471
440 0.166669
445 0.203531
450 0.511306
455 0.927762
460 43.7434
465 663.697
470 932.377
475 220.075
480 26.6137
485 4.23292
490 1.57953
495 1.10618
500 1.27279
505 1.31911
510 1.1041
515 0.919544
520 0.93074
525 0.889117
530 1.0976
535 1.17398
540 2.15182
545 2.68035
550 1.85511
555 1.30962
560 1.14455
565 0.88439
570 0.657896
575 0.578926
580 0.428576
585 0.299102
590 0.321657
595 0.238509
600 0.178695
Ex : 478
200 0.0445982
205 0.0556495
210 0.0392981
215 0.0308879
220 0.0385937
225 0.058986
230 0.0475596
235 0.0281964
240 0.0665036
245 0.0391807
250 0.0562672
255 0.0712453
260 0.0558718
265 0.0669347
270 0.0561475
275 0.0648547
280 0.0713369
285 0.0619789
290 0.0759915
295 0.0795646
300 0.0671879
305 0.0651866
310 0.0531431
315 0.0414154
320 0.0528535
325 0.061113
330 0.090742
335 0.0792836
340 0.0667098
345 0.126519
350 0.0546692
355 0.0796054
360 0.107971
365 0.0836213
370 0.0550292
375 0.0818709
380 0.0816689
385 0.0566503
390 0.0928637
395 0.0710917
400 0.114988
405 0.0894988
410 0.148395
415 0.0982371
420 0.060056
425 0.0935175
430 0.178233
435 0.175875
440 0.20218
445 0.193937
450 0.272896
455 0.547895
460 1.15248
465 48.5524
470 697.991
475 984.576
480 234.85
485 28.2789
490 4.45104
495 1.3623
500 1.01537
505 1.08334
510 1.24731
515 1.09686
520 1.08724
525 0.999358
530 0.939475
535 0.946937
540 1.04587
545 1.64547
550 2.17719
555 1.77421
560 1.10182
565 0.919677
570 0.800549
575 0.548627
580 0.417567
585 0.395187
590 0.356025
595 0.25994
600 0.350985
Ex : 483
200 0.0387988
205 0.0230705
210 0.0251953
215 0.0351693
220 0.0486897
225 0.0411777
230 0.046164
235 0.0611173
240 0.0584955
245 0.0948068
250 0.0791574
255 0.0541793
260 0.0830534
265 0.0526608
270 0.0888374
275 0.0460375
280 0.083886
285 0.0794977
290 0.0555724
295 0.0498848
300 0.0996871
305 0.0511043
310 0.0596773
315 0.0658713
320 0.0666451
325 0.061215
330 0.0503856
335 0.0772148
340 0.0893507
345 0.116595
350 0.0563459
355 0.0958236
360 0.0762831
365 0.0637815
370 0.0363369
375 0.0613452
380 0.0848256
385 0.0914914
390 0.102281
395 0.0726444
400 0.0868246
405 0.118686
410 0.113058
415 0.105979
420 0.109468
425 0.105877
430 0.112688
435 0.107406
440 0.115773
445 0.138268
450 0.245843
455 0.396317
460 0.584602
465 1.15296
470 39.5089
475 721.001
480 1080.58
485 262.931
490 31.5844
495 4.73013
500 1.51376
505 0.921058
510 0.936573
515 1.16933
520 1.10589
525 0.965721
530 0.901669
535 0.991753
540 0.996783
545 0.907721
550 1.07086
555 1.9867
560 1.99054
565 1.2154
570 0.784174
575 0.702688
580 0.601354
585 0.383633
590 0.387422
595 0.311999
600 0.244747
Ex : 488
200 0.0834693
205 0.0422
210 0.0614478
215 0.0930333
220 0.0441378
225 0.0932686
230 0.035768
235 0.0234555
240 0.0616789
245 0.08256
250 0.0839075
255 0.068868
260 0.0657976
265 0.0530111
270 0.0686678
275 0.0867088
280 0.0662982
285 0.0709259
290 0.0726214
295 0.0455358
300 0.108697
305 0.102677
310 0.0390758
315 0.13867
320 0.0470876
325 0.0700282
330 0.0749504
335 0.119019
340 0.0747713
345 0.107708
350 0.0579281
355 0.0732
360 0.106426
365 0.0733744
370 0.117529
375 0.114729
380 0.108982
385 0.110534
390 0.0783471
395 0.121232
400 0.102538
405 0.123146
410 0.104729
415 0.0811498
420 0.117151
425 0.158936
430 0.145849
435 0.0924971
440 0.111203
445 0.233737
450 0.20579
455 0.233128
460 0.256775
465 0.625884
470 1.05557
475 49.0262
480 784.48
485 1080.66
490 258.199
495 31.0064
500 4.62194
505 1.4466
510 1.00855
515 1.03283
520 1.17833
525 1.14009
530 1.09537
535 0.979142
540 0.926743
545 0.895483
550 0.812415
555 0.919617
560 1.43428
565 1.75988
570 1.39649
575 0.716605
580 0.619995
585 0.547463
590 0.388701
595 0.283657
600 0.0322791
Ex : 493
200 0.0699622
205 0.0766819
210 0.0555678
215 0.0396043
220 0.0588215
225 0.108976
230 0.0870974
235 0.0902409
240 0.0623466
245 0.0934305
250 0.126578
255 0.121483
260 0.0623923
265 0.0869149
270 0.0480876
275 0.082142
280 0.0789088
285 0.0371476
290 0.0847399
295 0.0407464
300 0.0498039
305 0.0563008
310 0.101188
315 0.108933
320 0.0662498
325 0.0751029
330 0.0640047
335 0.0873937
340 0.124825
345 0.0544939
350 0.0671087
355 0.075046
360 0.040009
365 0.0771528
370 0.0777854
375 0.0550431
380 0.0784403
385 0.0985296
390 0.11139
395 0.0772118
400 0.0756199
405 0.11909
410 0.0649237
415 0.113404
420 0.120715
425 0.146944
430 0.0777165
435 0.104706
440 0.157065
445 0.170361
450 0.202325
455 0.192104
460 0.246288
465 0.457064
470 0.653997
475 1.06022
480 44.9001
485 770.05
490 1137.09
495 258.556
500 31.0601
505 4.67359
510 1.41877
515 0.901291
520 1.09885
525 1.2049
530 1.12038
535 1.02463
540 0.80821
545 0.816442
550 0.642843
555 0.68487
560 0.840688
565 1.07089
570 1.53327
575 1.32284
580 0.717521
585 0.558313
590 0.490717
595 0.313655
600 0.680205
Ex : 498
200 0.0576598
205 0.0323165
210 0.0996511
215 0.108939
220 0.0555938
225 0.0652466
230 0.0528666
235 0.0564583
240 0.0694346
245 0.096691
250 0.0717703
255 0.0788297
260 0.104136
265 0.0773075
270 0.0732549
275 0.078767
280 0.0583442
285 0.0712142
290 0.0531214
295 0.120993
300 0.0760811
305 0.0666593
310 0.104811
315 0.106709
320 0.0709623
325 0.0424892
330 0.120082
335 0.112191
340 0.0614174
345 0.0870109
350 0.200617
355 0.116543
360 0.0861872
365 0.0614755
370 0.0859292
375 0.065266
380 0.065772
385 0.0474357
390 0.0725279
395 0.0911907
400 0.130603
405 0.10817
410 0.0947613
415 0.0840725
420 0.0849394
425 0.0902137
430 0.105347
435 0.154526
440 0.141983
445 0.095349
450 0.122289
455 0.173784
460 0.244224
465 0.405678
470 0.422531
475 0.657597
480 1.15946
485 54.2689
490 814.577
495 1121.91
500 258.316
505 30.9283
510 4.74255
515 1.50717
520 0.986636
525 1.10462
530 1.21945
535 1.30368
540 1.04928
545 0.715116
550 0.717102
555 0.684903
560 0.551632
565 0.607952
570 0.739185
575 1.25137
580 1.08496
585 0.595176
590 0.407718
595 0.367759
600 0.345903
Ex : 503
200 0.0467114
205 0.0937107
210 0.103409
215 0.0927315
220 0.145967
225 0.0584525
230 0.0735154
235 0.0939703
240 0.0915069
245 0.0529524
250 0.0603403
255 0.067432
260 0.0648903
265 0.0544908
270 0.0684448
275 0.0928726
280 0.0614201
285 0.126683
290 0.0590132
295 0.0392979
300 0.103835
305 0.109187
310 0.0884497
315 0.13688
320 0.065149
325 0.122985
330 0.154696
335 0.0955262
340 0.0663577
345 0.0558965
350 0.123834
355 0.0908187
360 0.0630873
365 0.0758386
370 0.120959
375 0.158545
380 0.106185
385 0.099929
390 0.136782
395 0.101063
400 0.088574
405 0.0965588
410 0.0722061
415 0.117716
420 0.107557
425 0.105218
430 0.108782
435 0.106474
440 0.177535
445 0.14962
450 0.169609
455 0.128668
460 0.197733
465 0.272269
470 0.207069
475 0.490377
480 0.551526
485 1.15445
490 49.4362
495 824.643
500 1176.2
505 268.09
510 32.2823
515 4.92557
520 1.58969
525 0.926457
530 1.04215
535 1.3038
540 1.01209
545 0.933933
550 0.769341
555 0.581349
560 0.55723
565 0.661671
570 0.550071
575 0.439142
580 0.671711
585 1.0191
590 0.656393
595 0.360603
600 0.507665
Ex : 508
200 0.0655915
205 0.0522531
210 0.0714617
215 0.0831342
220 0.114389
225 0.114129
230 0.0843459
235 0.131522
240 0.104538
245 0.115353
250 0.102493
255 0.100449
260 0.0798999
265 0.0697247
270 0.0439637
275 0.128393
280 0.137716
285 0.0625689
290 0.0562135
295 0.0734411
300 0.0829412
305 0.0839264
310 0.0937853
315 0.0804828
320 0.0522387
325 0.0781249
330 0.0564355
335 0.100088
340 0.122614
345 0.108441
350 0.0918651
355 0.155539
360 0.0764177
365 0.0718644
370 0.053305
375 0.0740569
380 0.150656
385 0.0993602
390 0.118543
395 0.0657163
400 0.0787084
405 0.0618139
410 0.100539
415 0.123513
420 0.0942933
425 0.116725
430 0.097965
435 0.0935174
440 0.157549
445 0.106413
450 0.118679
455 0.173943
460 0.211579
465 0.302526
470 0.242951
475 0.241923
480 0.398184
485 0.605798
490 1.2547
495 53.6292
500 861.18
505 1204.8
510 293.425
515 35.2481
520 5.32775
525 1.80521
530 1.14195
535 0.867849
540 1.07695
545 0.93151
550 0.821644
555 0.745916
560 0.538197
565 0.56213
570 0.583029
575 0.484367
580 0.508855
585 0.508245
590 0.843845
595 0.763753
600 0.378267
Ex : 513
200 0.0507246
205 0.0669684
210 0.124321
215 0.0921522
220 0.103179
225 0.0939119
230 0.0840936
235 0.0929898
240 0.123495
245 0.0638624
250 0.0408251
255 0.0566052
260 0.0573407
265 0.0918751
270 0.11506
275 0.0973705
280 0.0883402
285 0.0735165
290 0.1807
295 0.0896514
300 0.095606
305 0.12015
310 0.137998
315 0.112628
320 0.0675881
325 0.0745727
330 0.0583325
335 0.0881269
340 0.123505
345 0.0886486
350 0.0896906
355 0.0765772
360 0.0927413
365 0.0938405
370 0.0883583
375 0.191929
380 0.141561
385 0.106155
390 0.086874
395 0.15008
400 0.150009
405 0.0786027
410 0.172756
415 0.220369
420 0.174834
425 0.132829
430 0.132303
435 0.162473
440 0.166256
445 0.121383
450 0.128493
455 0.168415
460 0.204851
465 0.211459
470 0.214772
475 0.167254
480 0.294948
485 0.380966
490 0.604598
495 1.10855
500 51.0591
505 817.22
510 1221.07
515 295.417
520 35.4656
525 5.22546
530 1.77517
535 0.911568
540 0.882993
545 0.932377
550 0.883059
555 0.800008
560 0.779358
565 0.521564
570 0.39225
575 0.430459
580 0.459839
585 0.363434
590 0.35502
595 0.566403
600 1.05783
Ex : 518
200 0.0675304
205 0.0393128
210 0.100694
215 0.0593642
220 0.0821857
225 0.0573879
230 0.116401
235 0.0920333
240 0.0784779
245 0.0825337
250 0.0711605
255 0.0616372
260 0.105015
265 0.11651
270 0.0969974
275 0.0825903
280 0.0689571
285 0.072821
290 0.0924832
295 0.0673008
300 0.0658022
305 0.079478
310 0.110059
315 0.0565529
320 0.108285
325 0.121699
330 0.0678088
335 0.0804875
340 0.0597322
345 0.111303
350 0.133684
355 0.0604189
360 0.0683818
365 0.112705
370 0.0892879
375 0.0718292
380 0.0898502
385 0.0875664
390 0.113652
395 0.202438
400 0.0912062
405 0.14165
410 0.20256
415 0.106903
420 0.127024
425 0.0968189
430 0.0970288
435 0.119619
440 0.12113
445 0.13848
450 0.123459
455 0.230132
460 0.170223
465 0.213527
470 0.117777
475 0.189707
480 0.147122
485 0.28489
490 0.370851
495 0.724544
500 1.20757
505 53.9313
510 824.39
515 1223.56
520 296.136
525 35.5978
530 5.03046
535 1.43717
540 0.942616
545 0.70613
550 0.690003
555 0.714787
560 0.641301
565 0.578562
570 0.514251
575 0.456727
580 0.334444
585 0.393052
590 0.290018
595 0.355277
600 0.0404292
Ex : 523
200 0.185246
205 0.128534
210 0.0565012
215 0.137334
220 0.096356
225 0.0482688
230 0.0493569
235 0.161622
240 0.0999787
245 0.099161
250 0.109728
255 0.111862
260 0.109477
265 0.0837849
270 0.0795975
275 0.0923943
280 0.0534017
285 0.0835661
290 0.102672
295 0.0694427
300 0.0837629
305 0.0768559
310 0.0829857
315 0.116432
320 0.069651
325 0.103502
330 0.0960618
335 0.11366
340 0.113083
345 0.0831182
350 0.0831503
355 0.124207
360 0.183457
365 0.0993823
370 0.135352
375 0.0733251
380 0.0888889
385 0.0812564
390 0.198311
395 0.0801443
400 0.0976452
405 0.161892
410 0.0932863
415 0.0896483
420 0.0444123
425 0.121211
430 0.0795801
435 0.137843
440 0.154255
445 0.194267
450 0.156744
455 0.185043
460 0.153767
465 0.120952
470 0.197958
475 0.214562
480 0.250093
485 0.334812
490 0.294197
495 0.408719
500 0.608244
505 1.23879
510 48.926
515 800.061
520 1211.62
525 306.102
530 36.7113
535 5.19226
540 1.47167
545 0.791072
550 0.634379
555 0.630303
560 0.724774
565 0.64605
570 0.542157
575 0.490392
580 0.411643
585 0.329407
590 0.316629
595 0.326033
600 0.0941342
Ex : 528
200 0.0494868
205 0.115144
210 0.0983629
215 0.11535
220 0.0881639
225 0.1141
230 0.119806
235 0.0743114
240 0.126457
245 0.157825
250 0.139315
255 0.130027
260 0.0939297
265 0.141845
270 0.112485
275 0.139556
280 0.0555292
285 0.0688286
290 0.0695543
295 0.102406
300 0.113669
305 0.100652
310 0.103633
315 0.0991145
320 0.0945748
325 0.0772494
330 0.0458759
335 0.155268
340 0.0842819
345 0.134246
350 0.136449
355 0.146788
360 0.0805106
365 0.0724154
370 0.109755
375 0.155419
380 0.142121
385 0.125177
390 0.0824728
395 0.158029
400 0.101973
405 0.134646
410 0.168595
415 0.109122
420 0.135444
425 0.211828
430 0.12076
435 0.0780861
440 0.121402
445 0.0773099
450 0.0927799
455 0.160423
460 0.141813
465 0.198294
470 0.203219
475 0.194067
480 0.145444
485 0.203207
490 0.251312
495 0.299492
500 0.462667
505 0.594926
510 0.959996
515 46.2733
520 797.732
525 1229.39
530 309.93
535 37.0688
540 5.04309
545 1.26882
550 0.802442
555 0.57529
560 0.565885
565 0.617714
570 0.642105
575 0.436198
580 0.288218
585 0.370047
590 0.253625
595 0.320152
600 0.440504
Ex : 533
200 0.0988401
205 0.130499
210 0.0951997
215 0.12813
220 0.133109
225 0.126063
230 0.114331
235 0.071041
240 0.0454265
245 0.0798374
250 0.04172
255 0.0498355
260 0.0423254
265 0.0935154
270 0.0704593
275 0.0978999
280 0.0748246
285 0.0815738
290 0.174716
295 0.1379
300 0.188016
305 0.0945775
310 0.0810783
315 0.0788696
320 0.105918
325 0.0923527
330 0.130416
335 0.101887
340 0.0931606
345 0.0956428
350 0.100955
355 0.0880683
360 0.0715186
365 0.0625634
370 0.112211
375 0.127662
380 0.144818
385 0.116771
390 0.160502
395 0.0925457
400 0.0694479
405 0.17121
410 0.133948
415 0.168428
420 0.230634
425 0.111468
430 0.132366
435 0.147943
440 0.166649
445 0.181963
450 0.137676
455 0.102917
460 0.149848
465 0.137073
470 0.0890944
475 0.174933
480 0.175202
485 0.161173
490 0.198637
495 0.174297
500 0.361574
505 0.394012
510 0.639534
515 1.1422
520 45.3347
525 747.851
530 1186.83
535 301.732
540 36
545 4.96056
550 1.20033
555 0.714349
560 0.475246
565 0.477727
570 0.394027
575 0.457485
580 0.417555
585 0.375856
590 0.359561
595 0.309695
600 0.167936
Ex : 538
200 0.0895484
205 0.136724
210 0.076544
215 0.0994133
220 0.0829451
225 0.119247
230 0.136461
235 0.0891861
240 0.0830036
245 0.0654457
250 0.109196
255 0.052365
260 0.0643963
265 0.161303
270 0.124686
275 0.0701351
280 0.0590081
285 0.105285
290 0.145962
295 0.0885304
300 0.0802665
305 0.0650187
310 0.0758271
315 0.114797
320 0.082195
325 0.0719036
330 0.102922
335 0.109947
340 0.0736012
345 0.114748
350 0.0653444
355 0.115175
360 0.0783471
365 0.0750984
370 0.0998643
375 0.153231
380 0.16053
385 0.0795694
390 0.0951074
395 0.0716974
400 0.113337
405 0.146862
410 0.121197
415 0.0773562
420 0.118599
425 0.112401
430 0.211103
435 0.107664
440 0.090969
445 0.0936921
450 0.112091
455 0.152774
460 0.201987
465 0.186738
470 0.174119
475 0.160218
480 0.145461
485 0.112309
490 0.172825
495 0.169384
500 0.169172
505 0.233909
510 0.416432
515 0.73322
520 0.988558
525 37.9778
530 725.943
535 1172.33
540 308.278
545 36.6831
550 4.90829
555 1.15595
560 0.529392
565 0.476282
570 0.40808
575 0.39774
580 0.418137
585 0.364225
590 0.29884
595 0.271707
600 0.0357355
Ex : 543
200 0.0675016
205 0.0481902
210 0.191431
215 0.10151
220 0.0627744
225 0.138538
230 0.0911488
235 0.120747
240 0.158241
245 0.0636939
250 0.0828737
255 0.0830538
260 0.0783543
265 0.0699442
270 0.11429
275 0.0733046
280 0.0837333
285 0.0750677
290 0.0673844
295 0.03653
300 0.0690359
305 0.105388
310 0.168264
315 0.163854
320 0.17789
325 0.0866109
330 0.0851366
335 0.110854
340 0.0724373
345 0.227785
350 0.127572
355 0.124329
360 0.0997912
365 0.0550779
370 0.129728
375 0.110999
380 0.110783
385 0.086259
390 0.0662204
395 0.0895739
400 0.0997506
405 0.13512
410 0.157691
415 0.112092
420 0.140437
425 0.214156
430 0.121475
435 0.103735
440 0.140537
445 0.133979
450 0.210923
455 0.142273
460 0.163812
465 0.154505
470 0.0831346
475 0.178689
480 0.188246
485 0.276276
490 0.17299
495 0.178268
500 0.195455
505 0.313515
510 0.350463
515 0.362983
520 0.669123
525 1.22488
530 33.8795
535 703.531
540 1183.41
545 323.805
550 38.8073
555 5.14877
560 1.31577
565 0.629629
570 0.459245
575 0.235797
580 0.326983
585 0.420407
590 0.285758
595 0.378804
600 0.486208
Ex : 548
200 0.100666
205 0.111507
210 0.109143
215 0.130996
220 0.121896
225 0.0861822
230 0.115827
235 0.148785
240 0.175077
245 0.0483848
250 0.0825408
255 0.136743
260 0.0961692
265 0.0518811
270 0.130906
275 0.0627897
280 0.10268
285 0.107626
290 0.0648127
295 0.0764303
300 0.122681
305 0.118579
310 0.0875492
315 0.0970104
320 0.110305
325 0.0810411
330 0.0884243
335 0.159475
340 0.0933867
345 0.125517
350 0.138695
355 0.0801121
360 0.137623
365 0.109715
370 0.148777
375 0.0883122
380 0.108922
385 0.126886
390 0.0715034
395 0.0616031
400 0.112571
405 0.127018
410 0.114108
415 0.153604
420 0.159462
425 0.167469
430 0.129142
435 0.176953
440 0.145169
445 0.0895544
450 0.132023
455 0.109518
460 0.106578
465 0.133046
470 0.251947
475 0.16529
480 0.20911
485 0.207393
490 0.195693
495 0.142628
500 0.149167
505 0.213624
510 0.279325
515 0.292269
520 0.384576
525 0.739901
530 0.875053
535 37.7215
540 693.693
545 1164.36
550 321.354
555 38.3148
560 5.20115
565 1.14256
570 0.529421
575 0.453695
580 0.392186
585 0.304963
590 0.345605
595 0.32064
600 0.0979584
Ex : 553
200 0.127866
205 0.150629
210 0.116609
215 0.0663694
220 0.0780918
225 0.115296
230 0.0545957
235 0.0605958
240 0.141867
245 0.088722
250 0.0361093
255 0.0828271
260 0.0560545
265 0.114966
270 0.0879607
275 0.100017
280 0.0928816
285 0.120703
290 0.0906551
295 0.0830465
300 0.0514053
305 0.0935378
310 0.0889792
315 0.0876071
320 0.217705
325 0.147354
330 0.253173
335 0.166595
340 0.116114
345 0.146407
350 0.0956946
355 0.15542
360 0.118371
365 0.109778
370 0.0861439
375 0.212056
380 0.129757
385 0.106896
390 0.109073
395 0.0993145
400 0.152346
405 0.115328
410 0.161976
415 0.187311
420 0.136203
425 0.121206
430 0.121614
435 0.206096
440 0.184421
445 0.154977
450 0.0909016
455 0.130736
460 0.114196
465 0.109267
470 0.166156
475 0.157009
480 0.12944
485 0.163202
490 0.180202
495 0.184576
500 0.181858
505 0.225646
510 0.237252
515 0.253311
520 0.263465
525 0.349402
530 0.533296
535 0.939611
540 32.6119
545 676.293
550 1151.52
555 323.369
560 38.6838
565 5.09165
570 0.966355
575 0.519169
580 0.354856
585 0.397238
590 0.286175
595 0.434917
600 0.607279
Ex : 558
200 0.0934701
205 0.128264
210 0.117661
215 0.0832539
220 0.149265
225 0.0643708
230 0.0691169
235 0.114111
240 0.107715
245 0.0920701
250 0.0760356
255 0.0955429
260 0.105795
265 0.147544
270 0.151709
275 0.0861923
280 0.0748887
285 0.136303
290 0.129137
295 0.0714485
300 0.0912243
305 0.106778
310 0.0872419
315 0.136178
320 0.19235
325 0.125464
330 0.0467663
335 0.0751761
340 0.188049
345 0.253432
350 0.163007
355 0.118094
360 0.10658
365 0.128724
370 0.0992211
375 0.0931895
380 0.0809648
385 0.0922059
390 0.0807461
395 0.0703687
400 0.100748
405 0.0677831
410 0.0948917
415 0.127111
420 0.101734
425 0.125292
430 0.0998971
435 0.166389
440 0.152438
445 0.105669
450 0.144491
455 0.157145
460 0.178645
465 0.126222
470 0.110502
475 0.120122
480 0.169433
485 0.15444
490 0.168597
495 0.145453
500 0.267213
505 0.194218
510 0.109324
515 0.166603
520 0.313542
525 0.28329
530 0.364727
535 0.645198
540 0.954183
545 28.9085
550 617.696
555 1107.09
560 311.612
565 37.132
570 4.86394
575 1.03908
580 0.519558
585 0.312729
590 0.250079
595 0.288999
600 0.173383
Ex : 563
200 0.0411553
205 0.098031
210 0.11861
215 0.100277
220 0.0741017
225 0.0799329
230 0.0654872
235 0.10492
240 0.138158
245 0.149058
250 0.226463
255 0.193478
260 0.158979
265 0.150641
270 0.153759
275 0.128689
280 0.125788
285 0.192992
290 0.070773
295 0.110457
300 0.128813
305 0.126369
310 0.169623
315 0.106899
320 0.118365
325 0.076846
330 0.067448
335 0.138726
340 0.204987
345 0.160377
350 0.227843
355 0.182832
360 0.130175
365 0.130154
370 0.130944
375 0.0769806
380 0.119619
385 0.0955593
390 0.211132
395 0.155325
400 0.100782
405 0.206479
410 0.0910104
415 0.108437
420 0.0847924
425 0.137015
430 0.125812
435 0.101129
440 0.0608307
445 0.10072
450 0.117892
455 0.140477
460 0.191546
465 0.206645
470 0.122922
475 0.1309
480 0.160366
485 0.138494
490 0.172251
495 0.107128
500 0.12972
505 0.200293
510 0.22071
515 0.180923
520 0.218797
525 0.216553
530 0.267181
535 0.31488
540 0.423222
545 0.732943
550 30.1663
555 604.555
560 1063.81
565 304.465
570 36.3247
575 4.67214
580 0.959633
585 0.414313
590 0.29158
595 0.275471
600 1.56005
Ex : 568
200 0.0721332
205 0.144928
210 0.0986623
215 0.090392
220 0.0888767
225 0.141988
230 0.155762
235 0.155643
240 0.120653
245 0.0963596
250 0.184569
255 0.0545767
260 0.0935207
265 0.143862
270 0.0741278
275 0.0896375
280 0.111143
285 0.105224
290 0.0924139
295 0.0890825
300 0.0964415
305 0.124866
310 0.183812
315 0.0740701
320 0.198044
325 0.0886795
330 0.0739782
335 0.138613
340 0.119687
345 0.0727001
350 0.179748
355 0.141213
360 0.0727461
365 0.13341
370 0.0772916
375 0.144785
380 0.148589
385 0.132358
390 0.143207
395 0.175083
400 0.0999991
405 0.102255
410 0.15084
415 0.0725955
420 0.190954
425 0.0978836
430 0.0984543
435 0.131529
440 0.107134
445 0.219064
450 0.148223
455 0.2148
460 0.169775
465 0.204747
470 0.332822
475 0.145642
480 0.162734
485 0.0984312
490 0.130632
495 0.178564
500 0.114432
505 0.205543
510 0.186464
515 0.190105
520 0.116785
525 0.12174
530 0.227507
535 0.214669
540 0.444449
545 0.422826
550 0.846848
555 22.2157
560 554.812
565 1067.48
570 319.806
575 38.0068
580 5.02019
585 0.848208
590 0.519146
595 0.378603
600 0.546219
Ex : 573
200 0.100699
205 0.186081
210 0.156337
215 0.207691
220 0.12578
225 0.0981184
230 0.179381
235 0.235545
240 0.149328
245 0.0796867
250 0.0843571
255 0.0448657
260 0.118474
265 0.106482
270 0.0644806
275 0.0787875
280 0.128091
285 0.126205
290 0.134207
295 0.12203
300 0.118387
305 0.0628079
310 0.104209
315 0.218691
320 0.119356
325 0.103793
330 0.217756
335 0.0930587
340 0.152089
345 0.110331
350 0.131054
355 0.186908
360 0.141527
365 0.114415
370 0.218404
375 0.141608
380 0.107991
385 0.122053
390 0.129388
395 0.156103
400 0.106667
405 0.166636
410 0.108671
415 0.148203
420 0.155685
425 0.114676
430 0.0728513
435 0.183317
440 0.170476
445 0.141443
450 0.144983
455 0.195203
460 0.213821
465 0.120548
470 0.152497
475 0.135251
480 0.112234
485 0.136866
490 0.171989
495 0.128205
500 0.147414
505 0.127905
510 0.0709344
515 0.248925
520 0.18835
525 0.216811
530 0.159211
535 0.245138
540 0.201086
545 0.434152
550 0.38704
555 0.717695
560 19.3943
565 475.773
570 936.476
575 294.924
580 35.1699
585 4.34174
590 0.762572
595 0.440524
600 0.353461
Ex : 578
200 0.100436
205 0.104185
210 0.0998353
215 0.0732302
220 0.107125
225 0.112746
230 0.101158
235 0.1901
240 0.0937621
245 0.102231
250 0.174793
255 0.0882617
260 0.0987958
265 0.133327
270 0.132076
275 0.0718619
280 0.145065
285 0.0842618
290 0.174518
295 0.148622
300 0.0491435
305 0.127442
310 0.105041
315 0.0651725
320 0.0688408
325 0.0928361
330 0.112334
335 0.102334
340 0.0907784
345 0.108232
350 0.139314
355 0.107033
360 0.120852
365 0.0929427
370 0.179468
375 0.13253
380 0.111127
385 0.0845746
390 0.267416
395 0.108643
400 0.179731
405 0.0706262
410 0.118721
415 0.160991
420 0.108993
425 0.0657481
430 0.18105
435 0.126481
440 0.125059
445 0.167196
450 0.218189
455 0.225679
460 0.157731
465 0.232817
470 0.113357
475 0.110914
480 0.177705
485 0.157302
490 0.127859
495 0.227023
500 0.210739
505 0.156715
510 0.128281
515 0.137303
520 0.165119
525 0.124329
530 0.159805
535 0.236931
540 0.205222
545 0.217847
550 0.37901
555 0.488347
560 0.716988
565 17.2113
570 430.58
575 857.949
580 261.489
585 30.9565
590 3.90162
595 0.819256
600 0.0932282
Ex : 583
200 0.111353
205 0.0909318
210 0.14585
215 0.0734242
220 0.0773495
225 0.0639924
230 0.265251
235 0.0779627
240 0.0570854
245 0.17113
250 0.117725
255 0.0859383
260 0.157579
265 0.120278
270 0.0614926
275 0.101363
280 0.0991238
285 0.107167
290 0.0828639
295 0.0915714
300 0.134153
305 0.0985306
310 0.150673
315 0.203565
320 0.170093
325 0.231704
330 0.122014
335 0.0632262
340 0.108669
345 0.142677
350 0.115997
355 0.175471
360 0.10219
365 0.106986
370 0.167455
375 0.11944
380 0.123431
385 0.218704
390 0.149104
395 0.139115
400 0.0884238
405 0.119887
410 0.116452
415 0.107346
420 0.104782
425 0.144705
430 0.101147
435 0.143835
440 0.0982176
445 0.214496
450 0.0934754
455 0.116401
460 0.0891639
465 0.0928449
470 0.115693
475 0.197772
480 0.110947
485 0.162743
490 0.20575
495 0.133307
500 0.151578
505 0.10926
510 0.124066
515 0.119044
520 0.142056
525 0.187476
530 0.180647
535 0.220267
540 0.215578
545 0.262086
550 0.173128
555 0.369243
560 0.46877
565 0.506077
570 15.0608
575 379.182
580 729.65
585 212.761
590 25.3456
595 3.12327
600 0.522741
Ex : 588
200 0.069392
205 0.0775945
210 0.088801
215 0.171499
220 0.132728
225 0.123151
230 0.0707523
235 0.144964
240 0.235574
245 0.11234
250 0.126713
255 0.079053
260 0.0910116
265 0.152863
270 0.16313
275 0.0980887
280 0.0925921
285 0.0575534
290 0.194744
295 0.232956
300 0.103644
305 0.138087
310 0.0979898
315 0.142572
320 0.190361
325 0.197301
330 0.122605
335 0.0914755
340 0.17296
345 0.190468
350 0.115584
355 0.0701837
360 0.0799414
365 0.10142
370 0.143381
375 0.27218
380 0.121358
385 0.128859
390 0.0722515
395 0.211281
400 0.161701
405 0.167386
410 0.146669
415 0.221687
420 0.108616
425 0.191357
430 0.107422
435 0.0848232
440 0.105251
445 0.110136
450 0.0944316
455 0.09497
460 0.086472
465 0.193982
470 0.0844097
475 0.086072
480 0.116158
485 0.106747
490 0.162315
495 0.186978
500 0.168255
505 0.146829
510 0.108278
515 0.130616
520 0.151641
525 0.144853
530 0.212653
535 0.160954
540 0.115066
545 0.138548
550 0.279486
555 0.288211
560 0.293572
565 0.318622
570 0.388834
575 12.6835
580 316.709
585 604.457
590 182.276
595 21.6596
600 2.57395
Ex : 593
200 0.0713249
205 0.0719348
210 0.0452453
215 0.0672313
220 0.109037
225 0.112314
230 0.13973
235 0.166263
240 0.170974
245 0.0674026
250 0.130601
255 0.130341
260 0.167176
265 0.153513
270 0.211412
275 0.118352
280 0.166958
285 0.229477
290 0.130211
295 0.108526
300 0.166423
305 0.122653
310 0.138875
315 0.0607113
320 0.135969
325 0.060452
330 0.0670325
335 0.113171
340 0.0740126
345 0.09496
350 0.113363
355 0.108091
360 0.143083
365 0.117145
370 0.0444226
375 0.108263
380 0.278245
385 0.142398
390 0.176438
395 0.195834
400 0.240373
405 0.119091
410 0.181703
415 0.152228
420 0.127675
425 0.102387
430 0.145693
435 0.164655
440 0.141798
445 0.0903103
450 0.164132
455 0.117109
460 0.0484269
465 0.142948
470 0.0992678
475 0.0656458
480 0.148222
485 0.11222
490 0.229081
495 0.173284
500 0.142952
505 0.267632
510 0.12835
515 0.221225
520 0.15415
525 0.24625
530 0.12493
535 0.0985176
540 0.201296
545 0.191569
550 0.124481
555 0.148532
560 0.202106
565 0.330332
570 0.349254
575 0.375408
580 10.4899
585 272.945
590 516.442
595 155.406
600 22.2413
Ex : 598
200 0.10165
205 0.0921467
210 0.101725
215 0.132144
220 0.206206
225 0.0926631
230 0.236473
235 0.121269
240 0.075146
245 0.111366
250 0.0771672
255 0.0905769
260 0.131391
265 0.165596
270 0.133215
275 0.14663
280 0.102755
285 0.0854445
290 0.133247
295 0.110895
300 0.190844
305 0.0806504
310 0.0340151
315 0.0354125
320 0.205401
325 0.0870005
330 0.0818418
335 0.108025
340 0.13964
345 0.101294
350 0.161031
355 0.183469
360 0.111158
365 0.0868236
370 0.173681
375 0.166393
380 0.180094
385 0.178636
390 0.244968
395 0.113551
400 0.181197
405 0.119105
410 0.118745
415 0.238799
420 0.104543
425 0.162422
430 0.148409
435 0.0820305
440 0.145191
445 0.123284
450 0.170665
455 0.10757
460 0.218052
465 0.134657
470 0.172807
475 0.142898
480 0.11932
485 0.139332
490 0.147151
495 0.143682
500 0.171825
505 0.129314
510 0.188323
515 0.115894
520 0.0916269
525 0.12488
530 0.190974
535 0.184273
540 0.184
545 0.19372
550 0.12469
555 0.154934
560 0.179824
565 0.284666
570 0.25445
575 0.431283
580 0.447184
585 10.776
590 253.486
595 469.275
600 301.82
Ex : 603
200 0.235596
205 0.132051
210 0.0908763
215 0.094236
220 0.13445
225 0.108908
230 0.145474
235 0.0888002
240 0.154737
245 0.171923
250 0.1483
255 0.165134
260 0.32937
265 0.1634
270 0.142328
275 0.0743602
280 0.113862
285 0.0851493
290 0.086981
295 0.12398
300 0.0811839
305 0.069329
310 0.107882
315 0.145964
320 0.0630387
325 0.117051
330 0.0623966
335 0.166167
340 0.129376
345 0.107516
350 0.180767
355 0.138907
360 0.140846
365 0.088508
370 0.127586
375 0.176863
380 0.126719
385 0.0937474
390 0.133533
395 0.153637
400 0.126765
405 0.223866
410 0.138416
415 0.151698
420 0.159126
425 0.0866696
430 0.169832
435 0.165351
440 0.110012
445 0.120412
450 0.147719
455 0.178002
460 0.206167
465 0.129714
470 0.135975
475 0.208693
480 0.186016
485 0.104471
490 0.134675
495 0.150411
500 0.271151
505 0.173461
510 0.112177
515 0.101069
520 0.200697
525 0.210608
530 0.164229
535 0.192137
540 0.153174
545 0.237525
550 0.196743
555 0.239609
560 0.180601
565 0.231611
570 0.261544
575 0.185077
580 0.263503
585 0.433654
590 9.01472
595 218.289
600 443.852
