File format V 1.0
jeu. 5. janv. 22:35:19 2017
Operator : 
Comments : 

=============================================
SpectroFluorometer parameters
Mode : 3D measurement
Data : Fluorescence
Phospho. : Ordinary
Spectrum : Fluorescence

Scan speed : 2400 nm/mn
Response : 100 ms
PM Voltage : 700 V
Shutter : On

Lambda Ex. Start : 203
Lambda Ex. End : 603
Lambda Ex. Step : 5
Ex. Slit : 5 nm

Lambda Em. Start : 200
Lambda Em. End : 600
Lambda Em. Step : 5
Em. Slit : 5 nm

Repetition : 1
Decal lambda em : 10
=============================================
DATA
Ex : 203
200 3.42759
205 1.61078
210 3.7684
215 3.60535
220 3.37875
225 4.1274
230 4.0199
235 3.56515
240 2.69211
245 2.22356
250 3.41114
255 3.5351
260 5.27041
265 4.79015
270 6.30543
275 4.88619
280 2.31071
285 5.85745
290 4.18641
295 3.70515
300 5.61388
305 6.81233
310 4.29029
315 2.19908
320 3.25017
325 4.48478
330 6.7368
335 4.75454
340 7.82058
345 2.77867
350 6.3483
355 3.6704
360 3.55916
365 3.13359
370 3.21214
375 4.76202
380 4.84465
385 7.37962
390 7.50799
395 8.06076
400 4.69767
405 9.247
410 7.67485
415 5.89519
420 6.09056
425 4.9317
430 4.5521
435 5.10471
440 4.95284
445 4.1026
450 2.92355
455 4.14515
460 8.89679
465 3.4728
470 5.9665
475 5.32429
480 5.39887
485 4.43362
490 6.23077
495 4.09016
500 4.32367
505 4.17914
510 4.25263
515 3.40954
520 3.10199
525 6.00012
530 10.5363
535 3.3512
540 4.56372
545 3.4854
550 4.93328
555 4.59475
560 3.976
565 5.69955
570 4.91793
575 5.52
580 4.6977
585 6.10755
590 4.2174
595 3.05101
600 10.9816
Ex : 208
200 2.4898
205 4.26526
210 4.38583
215 3.91816
220 3.04768
225 3.52287
230 5.74239
235 4.20964
240 3.98588
245 4.21019
250 4.09481
255 3.61948
260 5.40632
265 4.11975
270 4.54535
275 7.74981
280 3.2471
285 3.64165
290 3.95922
295 3.04099
300 4.99247
305 4.14681
310 2.51375
315 4.06283
320 5.91948
325 3.27578
330 4.27453
335 8.55522
340 6.16753
345 4.9546
350 4.01151
355 4.21259
360 3.42022
365 2.86833
370 5.05708
375 10.0224
380 2.76337
385 4.54855
390 5.97071
395 4.185
400 3.81654
405 3.67652
410 8.18798
415 3.173
420 8.11988
425 3.62749
430 5.63897
435 5.33857
440 6.18202
445 3.62918
450 15.4481
455 7.02112
460 6.18033
465 3.7482
470 6.6183
475 7.33637
480 6.83541
485 2.33019
490 2.78417
495 4.81554
500 3.33242
505 6.45525
510 4.14006
515 6.31435
520 2.5209
525 3.58681
530 5.70766
535 5.4636
540 4.8719
545 3.83392
550 9.39679
555 4.65031
560 7.16195
565 7.04058
570 7.98411
575 4.41972
580 4.39982
585 3.67057
590 3.72434
595 2.72564
600 0.310168
Ex : 213
200 6.45098
205 6.46488
210 5.6005
215 2.14872
220 3.40012
225 5.02081
230 4.28049
235 11.1737
240 5.40914
245 2.77701
250 2.99322
255 7.33444
260 4.67088
265 3.47323
270 3.6617
275 6.70523
280 5.93751
285 3.26364
290 3.18846
295 2.03539
300 6.26107
305 5.76906
310 7.22483
315 4.43558
320 8.55739
325 4.03736
330 2.69767
335 2.22507
340 4.90297
345 5.19915
350 5.3716
355 4.51173
360 2.64031
365 7.2723
370 7.37497
375 4.24472
380 5.17601
385 6.88876
390 3.10444
395 6.08531
400 4.24928
405 4.21617
410 7.20584
415 3.287
420 4.11514
425 5.66939
430 8.43231
435 3.51183
440 7.19386
445 7.11622
450 4.37123
455 5.68805
460 3.57903
465 4.63336
470 5.7323
475 11.3407
480 4.23339
485 3.05514
490 3.67817
495 3.85653
500 5.61836
505 3.99302
510 4.69673
515 4.68167
520 2.96579
525 4.87715
530 3.23012
535 3.84083
540 6.65788
545 4.38
550 2.59906
555 4.32294
560 3.21344
565 2.51532
570 1.77063
575 5.18639
580 6.28722
585 6.79471
590 6.93472
595 2.39092
600 0.272077
Ex : 218
200 4.30968
205 4.41752
210 5.99369
215 2.20127
220 2.15501
225 4.0248
230 4.48621
235 4.35264
240 3.48131
245 6.56483
250 2.8616
255 3.83331
260 4.49894
265 5.72807
270 3.93838
275 3.27942
280 6.56539
285 3.78043
290 3.81132
295 6.49146
300 3.10191
305 5.06128
310 3.45612
315 4.16369
320 3.03726
325 3.48232
330 5.10251
335 9.59038
340 6.42114
345 8.85024
350 4.68106
355 7.11591
360 6.60935
365 3.84526
370 5.60912
375 5.65825
380 5.54828
385 4.18191
390 3.10627
395 3.16646
400 6.06213
405 3.3663
410 4.50034
415 4.07951
420 4.91166
425 5.50395
430 5.98575
435 7.65103
440 5.98834
445 5.27721
450 3.79401
455 3.09035
460 3.19
465 5.58948
470 5.10659
475 6.8318
480 6.33134
485 5.81469
490 3.14643
495 7.24738
500 6.93263
505 8.43512
510 3.21466
515 5.26237
520 6.20965
525 4.34352
530 5.55237
535 4.6579
540 4.34505
545 10.8464
550 5.68847
555 6.54537
560 3.71259
565 3.3968
570 3.69873
575 3.08519
580 4.26146
585 5.05357
590 3.51097
595 4.27319
600 0.486273
Ex : 223
200 5.99383
205 3.69092
210 6.8532
215 4.31381
220 5.72485
225 4.61723
230 2.41001
235 2.90811
240 3.38538
245 1.62699
250 2.91531
255 2.55584
260 6.56201
265 4.53834
270 2.14459
275 2.43846
280 6.45917
285 7.44082
290 5.28291
295 3.04976
300 10.5384
305 2.86574
310 4.41546
315 8.03519
320 6.21986
325 7.11488
330 5.03182
335 2.53565
340 4.01846
345 2.78233
350 2.20577
355 4.99853
360 6.24282
365 10.0814
370 5.82531
375 7.43327
380 4.88177
385 3.73383
390 6.57406
395 6.26164
400 3.74935
405 2.03474
410 8.69176
415 4.91067
420 7.29505
425 3.73461
430 4.98666
435 2.64248
440 3.06521
445 4.68136
450 6.06731
455 8.20655
460 3.2914
465 5.27602
470 5.20646
475 7.68738
480 4.80976
485 9.44345
490 5.89827
495 4.65043
500 3.02719
505 5.55023
510 5.26272
515 3.17693
520 5.73862
525 6.39695
530 5.3112
535 5.83905
540 3.45399
545 2.22795
550 3.81024
555 2.42494
560 5.57744
565 3.25688
570 4.5814
575 4.66688
580 3.36808
585 10.9957
590 3.95736
595 3.59636
600 37.1867
Ex : 228
200 3.05494
205 6.71363
210 4.65452
215 2.02108
220 2.91988
225 2.77061
230 6.27079
235 4.59507
240 1.74075
245 3.52135
250 4.77867
255 3.98801
260 8.44648
265 4.3138
270 3.22863
275 4.25743
280 5.27408
285 5.14443
290 3.44037
295 4.15499
300 2.09225
305 4.08378
310 5.23701
315 5.17944
320 4.25554
325 3.67884
330 5.83682
335 3.85238
340 3.50944
345 6.41906
350 4.20184
355 4.54948
360 3.01377
365 7.60983
370 3.74743
375 5.13375
380 4.50395
385 5.12986
390 3.2581
395 3.12376
400 3.05123
405 1.52711
410 4.11422
415 6.77675
420 6.43192
425 4.54466
430 2.19771
435 2.98976
440 4.41778
445 5.50235
450 5.42559
455 4.21594
460 6.24008
465 2.71572
470 5.48024
475 5.41224
480 4.93679
485 5.49551
490 3.25288
495 5.44523
500 4.66609
505 4.17039
510 3.33435
515 4.34681
520 1.9601
525 4.68014
530 2.36791
535 9.97696
540 4.31045
545 2.9771
550 2.57156
555 6.1246
560 5.14317
565 7.15656
570 3.00071
575 3.07079
580 4.50655
585 3.16613
590 5.56552
595 3.26525
600 4.50719
Ex : 233
200 4
205 2.98087
210 3.60984
215 2.16024
220 3.25603
225 4.98787
230 3.21215
235 4.8956
240 6.47618
245 4.76896
250 3.69949
255 4.85662
260 2.68313
265 4.50003
270 1.95276
275 3.2868
280 3.38079
285 5.89395
290 4.41715
295 4.32638
300 5.95897
305 5.84763
310 4.24143
315 2.22617
320 3.03218
325 3.14213
330 2.93374
335 2.60272
340 6.15217
345 5.27469
350 3.93626
355 4.33765
360 4.40893
365 1.13337
370 4.28244
375 3.64597
380 3.05146
385 8.74941
390 6.00442
395 2.98937
400 6.83424
405 4.76813
410 6.06354
415 2.85628
420 4.75605
425 3.90579
430 3.34924
435 2.39922
440 3.08168
445 3.35292
450 2.56523
455 4.54764
460 4.60691
465 4.49993
470 5.77603
475 5.71012
480 4.80229
485 3.14883
490 3.64364
495 2.39117
500 5.18215
505 5.02073
510 5.00742
515 4.09506
520 5.42045
525 5.41506
530 4.61376
535 6.64658
540 6.20651
545 3.584
550 5.25443
555 3.88809
560 3.87709
565 2.73098
570 5.04536
575 4.44249
580 3.47219
585 3.51569
590 4.45978
595 4.63483
600 0.527425
Ex : 238
200 4.61722
205 2.40968
210 3.46022
215 3.94671
220 2.7053
225 3.44333
230 2.42362
235 4.92729
240 3.24577
245 3.75304
250 4.91376
255 3.88032
260 3.1293
265 4.54853
270 2.5945
275 4.76594
280 5.80471
285 3.62277
290 1.92767
295 2.61539
300 1.72821
305 1.98628
310 2.85858
315 2.06078
320 2.33144
325 7.37232
330 6.58824
335 2.98761
340 3.28199
345 6.34369
350 3.82799
355 3.8883
360 5.92506
365 2.1612
370 4.60382
375 5.7803
380 3.12303
385 3.23121
390 4.69979
395 4.38553
400 4.04387
405 4.14608
410 3.30766
415 6.45731
420 2.61969
425 4.27941
430 2.39147
435 2.75601
440 7.53858
445 3.7271
450 4.21297
455 2.68589
460 1.84615
465 1.95323
470 5.16504
475 2.50862
480 3.34135
485 6.21323
490 3.37862
495 6.01853
500 3.88184
505 3.74015
510 6.98001
515 4.16851
520 5.28395
525 4.91109
530 5.31904
535 2.22033
540 2.59923
545 4.78114
550 3.24198
555 6.71396
560 6.27588
565 2.44292
570 2.68799
575 4.56332
580 3.92075
585 2.791
590 4.4361
595 2.69838
600 0.307066
Ex : 243
200 3.31174
205 2.98268
210 1.25872
215 2.10261
220 3.54273
225 3.48096
230 1.00052
235 3.52574
240 6.66958
245 6.16709
250 3.74947
255 4.89848
260 7.38263
265 2.36247
270 2.03759
275 2.52811
280 2.07512
285 3.87983
290 3.49964
295 2.90024
300 3.12981
305 3.74884
310 3.43376
315 3.54471
320 3.83992
325 1.77009
330 2.76797
335 2.40361
340 5.1039
345 2.3885
350 3.91271
355 3.68763
360 3.76496
365 2.92838
370 4.24125
375 1.75322
380 3.39431
385 2.0079
390 4.97385
395 4.24051
400 3.5037
405 3.23153
410 1.98994
415 1.61236
420 2.91299
425 5.10335
430 4.24895
435 3.30653
440 5.31533
445 4.12002
450 2.07758
455 2.35306
460 3.3941
465 2.78698
470 2.95745
475 2.79903
480 3.58034
485 4.11817
490 1.65269
495 3.98881
500 4.32911
505 2.95775
510 2.4334
515 3.02784
520 2.18513
525 1.85209
530 2.84959
535 2.4754
540 4.77863
545 1.62777
550 1.74629
555 5.08055
560 3.64904
565 3.71973
570 2.02954
575 2.59293
580 3.49658
585 5.77145
590 3.38297
595 3.03995
600 0.345935
Ex : 248
200 2.66667
205 2.65026
210 2.28681
215 2.81966
220 3.28201
225 2.07361
230 1.40514
235 2.45667
240 2.05197
245 2.97578
250 2.94425
255 1.02873
260 1.89258
265 1.86255
270 1.95051
275 1.55583
280 3.12544
285 2.42148
290 2.13787
295 2.35373
300 2.25624
305 2.8368
310 2.94944
315 3.39254
320 3.04467
325 2.05234
330 2.91431
335 3.95586
340 3.16615
345 1.30773
350 2.0914
355 5.77438
360 2.45098
365 2.91127
370 2.92336
375 3.00987
380 1.59069
385 2.71793
390 1.48672
395 2.45934
400 2.35072
405 2.2405
410 4.5847
415 3.44936
420 3.01744
425 2.0125
430 1.50726
435 2.14332
440 3.33496
445 1.98632
450 3.83142
455 3.78119
460 3.93172
465 2.67672
470 3.29432
475 4.74173
480 3.83652
485 4.84826
490 2.61952
495 1.91613
500 1.84866
505 3.18776
510 1.6615
515 1.34049
520 1.39012
525 1.42143
530 1.96004
535 1.49956
540 2.39272
545 3.02757
550 1.53457
555 2.57259
560 3.35189
565 2.51269
570 1.61679
575 4.10277
580 2.20567
585 1.3999
590 3.11229
595 2.23156
600 0.253943
Ex : 253
200 3.50852
205 4.22605
210 1.11572
215 1.6772
220 2.50456
225 1.88777
230 1.1274
235 2.30166
240 1.01936
245 2.59538
250 1.33009
255 1.61749
260 2.15001
265 2.12622
270 2.26975
275 1.53072
280 1.44656
285 3.21597
290 1.65476
295 1.8614
300 2.18493
305 1.88071
310 1.22394
315 2.77477
320 2.18001
325 1.63698
330 2.87373
335 3.10717
340 2.58702
345 1.53814
350 3.45092
355 3.97296
360 3.2995
365 3.76344
370 2.36319
375 2.51293
380 1.72669
385 3.60595
390 2.05294
395 3.01635
400 3.1344
405 1.59277
410 2.11549
415 2.64971
420 2.18534
425 1.48887
430 2.2311
435 2.4233
440 1.89178
445 2.235
450 2.17401
455 2.30756
460 2.76631
465 3.46827
470 1.82664
475 2.805
480 2.56358
485 1.47168
490 3.45193
495 3.79076
500 4.2098
505 2.57019
510 1.56973
515 0.928494
520 1.12898
525 1.8599
530 2.28939
535 1.94281
540 1.74606
545 1.52294
550 2.15647
555 1.57337
560 1.3508
565 0.967365
570 1.75553
575 1.42642
580 2.46496
585 1.90649
590 2.1271
595 2.80562
600 0.319269
Ex : 258
200 2.05134
205 1.669
210 1.02757
215 1.19206
220 1.80392
225 2.65476
230 2.40761
235 1.91068
240 1.98782
245 2.15859
250 1.23433
255 0.907131
260 1.13179
265 0.925205
270 1.20117
275 0.83491
280 1.09274
285 1.60719
290 0.831719
295 1.74741
300 1.47639
305 1.38654
310 0.887598
315 1.30762
320 2.40893
325 1.34196
330 2.9808
335 1.55042
340 1.61497
345 2.82601
350 2.3052
355 2.97837
360 2.58882
365 2.09337
370 2.18906
375 2.55639
380 2.01931
385 1.85959
390 2.13436
395 1.45505
400 1.30617
405 1.67077
410 1.64046
415 2.07711
420 1.53613
425 1.30596
430 1.44461
435 2.24687
440 1.88107
445 1.37502
450 2.21764
455 2.19869
460 1.42097
465 0.898498
470 2.15525
475 1.82762
480 1.52923
485 1.56691
490 2.39679
495 0.847637
500 1.84447
505 1.4297
510 3.01497
515 1.40056
520 2.30189
525 1.2604
530 2.38848
535 2.33684
540 2.48244
545 0.906117
550 0.797649
555 0.792347
560 3.76388
565 1.18674
570 1.14728
575 1.55136
580 1.21177
585 2.07179
590 1.1032
595 1.9082
600 0.217146
Ex : 263
200 2.04754
205 1.17711
210 1.12548
215 1.1318
220 0.517113
225 1.71352
230 1.01401
235 0.993653
240 1.46695
245 1.38212
250 1.23128
255 1.2914
260 0.827708
265 0.445534
270 1.71526
275 0.695746
280 1.10775
285 1.19296
290 0.417944
295 1.10121
300 1.56579
305 0.825045
310 2.79001
315 1.19262
320 0.570191
325 1.18649
330 1.10278
335 1.58484
340 0.842653
345 1.62109
350 1.65024
355 0.862994
360 1.04091
365 0.807554
370 1.25544
375 1.27375
380 1.34194
385 1.23549
390 2.94448
395 1.23239
400 1.76364
405 1.47783
410 1.37031
415 1.1875
420 2.0142
425 1.17533
430 1.80402
435 1.06492
440 2.26116
445 0.999806
450 1.12974
455 0.709935
460 1.06322
465 1.30741
470 0.704797
475 1.33279
480 1.49983
485 2.1194
490 1.59381
495 1.63223
500 2.06538
505 1.59917
510 1.93999
515 1.34329
520 1.02801
525 0.939218
530 1.46407
535 1.53464
540 1.02784
545 0.81038
550 1.06626
555 1.19547
560 0.956945
565 1.79316
570 1.56627
575 1.37126
580 1.49254
585 1.02041
590 1.39275
595 1.80542
600 0.20545
Ex : 268
200 0.532697
205 0.786814
210 0.760483
215 0.693684
220 1.01844
225 0.521656
230 1.3647
235 0.981589
240 0.826302
245 0.796752
250 1.01884
255 1.32955
260 0.990156
265 0.564323
270 0.860216
275 1.12363
280 0.775286
285 1.46252
290 1.53432
295 1.06704
300 1.03
305 0.673834
310 0.648583
315 0.41561
320 1.88844
325 1.15919
330 0.931991
335 1.01215
340 1.30462
345 1.14037
350 1.40172
355 0.715512
360 0.952774
365 0.848811
370 0.808542
375 0.574085
380 1.12779
385 1.70247
390 1.25449
395 1.69361
400 1.35228
405 1.02283
410 1.60056
415 0.965665
420 1.07813
425 1.0151
430 1.57595
435 2.03142
440 1.51096
445 1.40912
450 0.94215
455 1.47928
460 1.29888
465 0.872097
470 1.44583
475 1.07889
480 1.69975
485 0.963284
490 0.462367
495 1.01513
500 1.03381
505 1.1598
510 0.815659
515 0.750645
520 1.65275
525 1.67164
530 0.552371
535 1.21052
540 0.561535
545 1.13392
550 1.17082
555 1.84664
560 1.23489
565 0.851207
570 1.46074
575 1.55311
580 1.84755
585 1.22252
590 1.213
595 1.37204
600 0.156133
Ex : 273
200 0.572536
205 1.27039
210 0.543357
215 1.32527
220 0.895578
225 1.86525
230 0.500374
235 0.548173
240 0.520761
245 0.752039
250 0.989767
255 0.727
260 0.667205
265 0.442665
270 0.571031
275 0.343162
280 0.573147
285 0.887266
290 0.509444
295 0.680116
300 0.833157
305 0.929713
310 0.567136
315 1.23655
320 0.488303
325 0.563963
330 1.21795
335 0.807546
340 0.832381
345 0.658216
350 0.695446
355 0.714958
360 0.923449
365 0.871586
370 1.3883
375 1.02425
380 0.848247
385 1.29545
390 0.925961
395 1.11147
400 0.754862
405 0.655816
410 1.61283
415 1.13744
420 0.966021
425 1.47416
430 0.917314
435 1.77877
440 0.918311
445 1.35902
450 0.974315
455 0.773565
460 0.86271
465 0.690965
470 1.04594
475 1.28381
480 1.04922
485 0.687581
490 1.00298
495 1.04278
500 0.765654
505 1.10776
510 1.39881
515 0.677039
520 1.03941
525 1.01456
530 0.564991
535 0.376604
540 0.641994
545 1.49359
550 0.875105
555 0.886876
560 0.598914
565 1.07683
570 0.457642
575 1.03188
580 0.557559
585 0.692302
590 1.10465
595 1.12658
600 0.128201
Ex : 278
200 0.968412
205 0.772224
210 1.17608
215 0.611585
220 1.08694
225 0.767686
230 0.979255
235 0.783979
240 0.580009
245 0.659776
250 0.768064
255 0.472849
260 0.991139
265 0.667784
270 0.437037
275 0.308243
280 0.497129
285 0.287861
290 0.428327
295 0.373738
300 0.576691
305 0.846521
310 0.694154
315 0.349127
320 0.3882
325 0.434267
330 0.405199
335 0.831775
340 0.668224
345 0.440324
350 0.351174
355 0.627792
360 0.74594
365 0.803926
370 0.534177
375 1.04887
380 1.43853
385 1.23951
390 1.42949
395 1.15996
400 1.16874
405 1.02082
410 0.58364
415 0.806259
420 0.863372
425 0.5583
430 0.774461
435 0.783349
440 1.07856
445 0.6296
450 0.488635
455 0.620802
460 0.649228
465 0.681725
470 0.603963
475 0.854024
480 1.03171
485 1.23082
490 1.1061
495 0.626554
500 0.514807
505 0.725662
510 1.08026
515 0.560712
520 0.749848
525 0.810995
530 1.08405
535 0.775626
540 0.852454
545 0.760632
550 0.799408
555 0.512933
560 0.651327
565 0.461121
570 0.933059
575 0.643884
580 1.01476
585 0.729749
590 0.528967
595 0.767865
600 0.0873801
Ex : 283
200 0.527631
205 0.427702
210 0.578924
215 0.385527
220 0.425775
225 0.467593
230 0.429562
235 1.28393
240 1.17924
245 0.498825
250 0.866951
255 0.595698
260 0.365857
265 0.349907
270 0.425506
275 0.617358
280 0.279394
285 0.436538
290 0.313808
295 0.306643
300 0.517233
305 0.210438
310 0.811461
315 0.490039
320 0.659265
325 0.48273
330 0.404186
335 0.440232
340 0.611738
345 1.27619
350 0.593731
355 0.799559
360 0.283143
365 0.751178
370 0.57908
375 0.457414
380 0.799072
385 0.734581
390 0.684011
395 0.970107
400 0.584332
405 0.85216
410 0.494352
415 0.505
420 0.65115
425 0.557361
430 0.651801
435 0.880484
440 0.949249
445 0.870289
450 0.858257
455 0.699114
460 0.526699
465 0.725092
470 0.32402
475 0.53242
480 0.2918
485 0.351262
490 0.817729
495 0.787538
500 0.711634
505 0.852728
510 0.657616
515 0.42067
520 0.503614
525 0.432397
530 0.535016
535 0.294165
540 0.558881
545 0.769366
550 0.40029
555 0.536331
560 0.645394
565 0.683822
570 0.636641
575 0.761717
580 0.27161
585 0.661502
590 0.549479
595 0.473208
600 0.0538493
Ex : 288
200 0.354879
205 0.238496
210 0.175305
215 0.471652
220 0.294653
225 0.197601
230 0.500369
235 0.310775
240 0.313031
245 0.467862
250 0.263651
255 0.275146
260 0.380118
265 0.336991
270 0.346058
275 0.387152
280 0.659245
285 0.537821
290 0.713167
295 0.419129
300 0.318063
305 0.318344
310 0.195699
315 0.26097
320 0.21741
325 0.597442
330 0.436352
335 0.64267
340 0.72888
345 0.281063
350 0.267088
355 0.607288
360 0.423589
365 0.718616
370 0.802339
375 0.466946
380 0.542116
385 0.466652
390 0.784724
395 0.509842
400 0.411946
405 0.874675
410 0.899743
415 0.574954
420 0.644635
425 0.388588
430 0.468154
435 0.645189
440 0.586572
445 0.986458
450 0.765189
455 0.752147
460 0.574204
465 0.597852
470 0.274833
475 0.449033
480 0.531704
485 0.780789
490 0.519962
495 0.629823
500 0.341458
505 0.896688
510 0.728732
515 0.625181
520 0.402506
525 0.83966
530 0.751768
535 0.706225
540 0.3821
545 0.354185
550 0.298758
555 0.420177
560 0.480393
565 0.406591
570 0.725951
575 0.382505
580 0.54167
585 0.641761
590 0.395787
595 0.676115
600 8.26266
Ex : 293
200 0.365802
205 0.182528
210 0.567397
215 0.522162
220 0.572061
225 0.424025
230 0.207339
235 0.195287
240 0.23063
245 0.218074
250 0.260184
255 0.24723
260 0.426689
265 0.370854
270 0.46303
275 0.382244
280 0.290744
285 0.373168
290 0.402558
295 0.375834
300 0.30644
305 0.504655
310 0.543517
315 0.58951
320 0.441396
325 0.312826
330 0.524522
335 0.621093
340 0.428311
345 0.548993
350 0.64947
355 0.50973
360 0.634486
365 0.585494
370 0.594254
375 0.407922
380 0.481001
385 0.685177
390 0.560365
395 0.80227
400 0.406845
405 0.602894
410 0.437505
415 0.502516
420 0.902048
425 0.44255
430 0.643715
435 0.33143
440 0.476346
445 0.47578
450 0.39245
455 0.709431
460 0.329055
465 0.643595
470 1.35425
475 0.470204
480 0.451346
485 0.369522
490 0.383257
495 0.796456
500 0.866478
505 0.502285
510 0.789136
515 0.612993
520 0.545453
525 0.34017
530 0.342837
535 0.292147
540 0.583385
545 0.437776
550 0.38506
555 0.329904
560 0.316279
565 0.398378
570 0.262651
575 0.698793
580 0.511965
585 0.692744
590 0.44844
595 0.232816
600 3.30159
Ex : 298
200 0.225615
205 0.205382
210 0.295923
215 0.293699
220 0.87439
225 0.294094
230 0.249624
235 0.210848
240 0.243396
245 0.232458
250 0.18463
255 0.357466
260 0.261612
265 0.237084
270 0.329585
275 0.332907
280 0.311942
285 0.268147
290 0.256198
295 0.473283
300 0.146819
305 0.19951
310 0.382724
315 0.348814
320 0.370157
325 0.362289
330 0.359299
335 0.50645
340 0.372608
345 0.516465
350 0.37126
355 0.421699
360 0.381285
365 0.376434
370 0.287264
375 0.54102
380 0.425273
385 0.467958
390 0.82479
395 0.481776
400 0.738904
405 0.544198
410 0.5267
415 0.512291
420 0.653331
425 0.733962
430 0.53301
435 0.647923
440 0.441752
445 0.778735
450 0.455647
455 0.37113
460 0.535294
465 0.700358
470 0.547246
475 0.313352
480 0.638587
485 0.313687
490 0.44465
495 0.576515
500 0.588805
505 0.333933
510 0.607996
515 0.460584
520 0.407469
525 0.661498
530 0.232294
535 0.266465
540 0.239953
545 0.349935
550 0.271598
555 0.25153
560 0.28806
565 0.270968
570 0.158081
575 0.128867
580 0.301583
585 0.330679
590 0.550545
595 0.343952
600 0.0391404
Ex : 303
200 0.244584
205 0.105508
210 0.253571
215 0.170606
220 0.147536
225 0.205214
230 0.276502
235 0.308691
240 0.233154
245 0.277284
250 0.175464
255 0.344024
260 0.39595
265 0.34685
270 0.390822
275 0.286166
280 0.171815
285 0.232397
290 0.389846
295 0.259286
300 0.287279
305 0.426834
310 0.171038
315 0.277998
320 0.327745
325 0.384592
330 0.2874
335 0.359782
340 0.36016
345 0.222117
350 0.434185
355 0.454011
360 0.415534
365 0.517675
370 0.456702
375 0.400964
380 0.441985
385 0.413366
390 0.556466
395 0.415319
400 0.37106
405 0.376542
410 0.6961
415 0.552539
420 0.605197
425 0.552924
430 0.363821
435 0.490373
440 0.451826
445 0.46575
450 0.474036
455 0.515211
460 0.657559
465 0.777899
470 0.641159
475 0.525491
480 0.307708
485 0.459996
490 0.411107
495 0.32025
500 0.344734
505 0.301848
510 0.181228
515 0.42775
520 0.332049
525 0.392409
530 0.430195
535 0.316754
540 0.233372
545 0.380398
550 0.14116
555 0.192809
560 0.251789
565 0.254624
570 0.271377
575 0.26504
580 0.196012
585 0.358561
590 0.222987
595 0.434338
600 0.688655
Ex : 308
200 0.185749
205 0.267512
210 0.336297
215 0.108461
220 0.167768
225 0.103154
230 0.268963
235 0.240798
240 0.410701
245 0.248961
250 0.245013
255 0.279443
260 0.317752
265 0.154443
270 0.345799
275 0.372296
280 0.221031
285 0.158878
290 0.118016
295 0.410311
300 0.283592
305 0.255374
310 0.192194
315 0.132957
320 0.165834
325 0.295598
330 0.267794
335 0.231616
340 0.338239
345 0.360014
350 0.35968
355 0.45884
360 0.242115
365 0.508378
370 0.341733
375 0.606641
380 0.547386
385 0.465364
390 0.452042
395 0.485927
400 0.376738
405 0.4107
410 0.579201
415 0.732797
420 0.73794
425 0.511605
430 0.441273
435 0.650786
440 0.601222
445 0.400588
450 0.341502
455 0.42159
460 0.500571
465 0.628141
470 0.599634
475 0.461659
480 0.722576
485 0.207066
490 0.242642
495 0.244597
500 0.291731
505 0.336888
510 0.434485
515 0.376885
520 0.411934
525 0.301749
530 0.422776
535 0.315679
540 0.339861
545 0.12711
550 0.342883
555 0.33949
560 0.251457
565 0.215152
570 0.323997
575 0.284499
580 0.263545
585 0.196018
590 0.352479
595 0.424824
600 0.0483434
Ex : 313
200 0.104591
205 0.237158
210 0.0962181
215 0.253236
220 0.16187
225 0.159987
230 0.224206
235 0.297962
240 0.116674
245 0.201514
250 0.377685
255 0.243081
260 0.40688
265 0.220083
270 0.187322
275 0.412995
280 0.166733
285 0.152653
290 0.190033
295 0.293304
300 0.192425
305 0.447837
310 0.341773
315 0.194448
320 0.153527
325 0.298495
330 0.303541
335 0.350578
340 0.414671
345 0.298819
350 0.384163
355 0.414223
360 0.336726
365 0.475298
370 0.391624
375 0.348167
380 0.425732
385 0.697497
390 0.567778
395 0.672078
400 0.593904
405 0.666605
410 0.844821
415 0.687393
420 0.744364
425 0.756775
430 0.547063
435 0.646195
440 0.70391
445 0.547418
450 0.514582
455 0.699676
460 0.52517
465 0.664091
470 0.587029
475 0.394061
480 0.323387
485 0.36204
490 0.21979
495 0.401946
500 0.241198
505 0.3224
510 0.297608
515 0.31512
520 0.291682
525 0.224175
530 0.345828
535 0.228364
540 0.289218
545 0.399202
550 0.297897
555 0.225504
560 0.190619
565 0.401262
570 0.385065
575 0.313616
580 0.208599
585 0.285608
590 0.315309
595 0.108202
600 0.329596
Ex : 318
200 0.176407
205 0.133125
210 0.182835
215 0.135437
220 0.260834
225 0.128256
230 0.166536
235 0.137208
240 0.130902
245 0.233369
250 0.116691
255 0.216647
260 0.123897
265 0.179356
270 0.304909
275 0.185643
280 0.146601
285 0.13215
290 0.192471
295 0.141777
300 0.176542
305 0.192143
310 0.376732
315 0.536769
320 0.416287
325 0.517651
330 0.542552
335 0.617936
340 0.765866
345 0.983967
350 1.31199
355 1.8788
360 2.5759
365 2.99647
370 3.55297
375 4.96293
380 5.34433
385 6.03268
390 6.07442
395 7.42817
400 7.39918
405 7.64557
410 7.7562
415 7.53108
420 7.69648
425 7.41323
430 6.65324
435 6.59468
440 6.55679
445 5.95354
450 5.94911
455 4.50774
460 4.81148
465 4.54078
470 4.35069
475 3.61747
480 3.33702
485 2.88242
490 2.47469
495 1.95694
500 2.00498
505 1.59207
510 1.1678
515 1.13039
520 1.24858
525 0.910287
530 0.716026
535 0.659075
540 0.494971
545 0.439322
550 0.456953
555 0.49929
560 0.364227
565 0.286629
570 0.281063
575 0.361255
580 0.222558
585 0.236132
590 0.279832
595 0.162662
600 0.0185103
Ex : 323
200 0.0925036
205 0.175342
210 0.265096
215 0.110385
220 0.114148
225 0.172871
230 0.133036
235 0.131767
240 0.200794
245 0.093241
250 0.229906
255 0.25841
260 0.222818
265 0.167926
270 0.278351
275 0.128981
280 0.103662
285 0.0725659
290 0.199333
295 0.145547
300 0.225156
305 0.232524
310 0.239492
315 5.17364
320 26.4387
325 10.7029
330 2.37546
335 2.7714
340 3.31079
345 5.00098
350 8.00936
355 10.9713
360 13.9144
365 16.3501
370 18.5865
375 21.5643
380 25.0064
385 28.5583
390 30.0436
395 32.3003
400 33.8785
405 33.6229
410 34.5804
415 35.5844
420 34.0547
425 33.0676
430 30.7856
435 31.0395
440 29.9745
445 27.9167
450 26.387
455 25.0354
460 23.1123
465 20.868
470 19.9206
475 17.5486
480 16.0453
485 14.1084
490 13.0012
495 11.5063
500 10.1727
505 8.62348
510 7.73535
515 6.53695
520 5.72012
525 4.70865
530 3.98037
535 3.42327
540 2.81956
545 2.31632
550 2.12075
555 1.74439
560 1.48118
565 1.00612
570 0.982037
575 0.878704
580 0.495186
585 0.338856
590 0.343647
595 0.210719
600 0.023979
Ex : 328
200 0.145811
205 0.187789
210 0.188408
215 0.161164
220 0.172075
225 0.0766812
230 0.140236
235 0.121545
240 0.13243
245 0.109166
250 0.280132
255 0.158808
260 0.144122
265 0.111962
270 0.199483
275 0.148782
280 0.283595
285 0.28343
290 0.181237
295 0.100469
300 0.177824
305 0.241305
310 0.170228
315 1.3572
320 64.6515
325 161.694
330 48.3868
335 9.00686
340 6.0632
345 7.09583
350 8.6394
355 13.1178
360 18.7389
365 19.7065
370 23.1991
375 26.2264
380 30.0706
385 33.4754
390 36.2769
395 37.8935
400 39.4422
405 41.0997
410 41.5526
415 40.5609
420 39.635
425 38.4027
430 36.5057
435 34.8754
440 33.2704
445 31.946
450 30.7032
455 28.1916
460 25.9707
465 24.3186
470 22.0661
475 19.9416
480 17.4416
485 16.098
490 15.0852
495 12.3069
500 11.6806
505 10.5615
510 8.85502
515 7.40192
520 6.23096
525 5.38371
530 4.71722
535 3.98026
540 3.57861
545 2.90259
550 2.55558
555 2.03163
560 1.99709
565 1.36158
570 1.04557
575 0.907968
580 0.693615
585 0.433913
590 0.420825
595 0.462394
600 0.258345
Ex : 333
200 0.158909
205 0.110578
210 0.173949
215 0.21281
220 0.247384
225 0.0972854
230 0.131597
235 0.0855856
240 0.210857
245 0.220852
250 0.149692
255 0.243584
260 0.183331
265 0.134323
270 0.170562
275 0.139472
280 0.130581
285 0.203343
290 0.163754
295 0.161912
300 0.181055
305 0.160687
310 0.103166
315 0.304823
320 9.5254
325 193.78
330 328.992
335 85.964
340 13.193
345 6.51228
350 5.81796
355 6.74393
360 10.3094
365 15.1465
370 15.7655
375 16.0283
380 17.1179
385 19.795
390 23.0003
395 22.9505
400 23.5198
405 24.2684
410 25.3091
415 25.2357
420 24.6882
425 22.7669
430 21.6622
435 21.2148
440 20.5413
445 19.1906
450 17.0632
455 15.716
460 14.6211
465 13.2891
470 12.1403
475 11.5093
480 10.1515
485 8.96048
490 8.45056
495 7.09626
500 6.70422
505 5.65082
510 4.68596
515 4.46093
520 3.33534
525 3.16387
530 3.02568
535 2.27723
540 1.95622
545 1.69674
550 1.6778
555 1.34417
560 1.07484
565 1.00556
570 0.852932
575 0.623385
580 0.83305
585 0.545235
590 0.679829
595 0.345418
600 1.45284
Ex : 338
200 0.125507
205 0.212035
210 0.0926758
215 0.135633
220 0.143711
225 0.21504
230 0.212195
235 0.147748
240 0.266107
245 0.183876
250 0.0819169
255 0.175898
260 0.14433
265 0.151474
270 0.111221
275 0.123393
280 0.14608
285 0.224416
290 0.201447
295 0.0949487
300 0.120653
305 0.202789
310 0.158212
315 0.164726
320 0.242359
325 18.4756
330 292.525
335 426.814
340 106.426
345 15.3882
350 5.24538
355 4.09048
360 3.67848
365 5.86503
370 9.98785
375 10.547
380 9.86824
385 10.7142
390 13.3163
395 13.9759
400 13.7119
405 14.141
410 14.7033
415 14.996
420 14.7318
425 13.5144
430 12.9381
435 12.21
440 11.7396
445 10.9626
450 9.95099
455 8.89934
460 8.22703
465 7.52819
470 6.8728
475 6.27971
480 5.60831
485 5.28326
490 4.64213
495 3.95839
500 3.5416
505 3.20029
510 3.0589
515 2.59805
520 2.30257
525 1.95312
530 1.77798
535 1.483
540 1.33858
545 1.31951
550 1.08477
555 0.815234
560 0.955382
565 0.741563
570 0.667258
575 0.515088
580 0.517876
585 0.410088
590 0.36134
595 0.309148
600 0.0351799
Ex : 343
200 0.0525891
205 0.0688236
210 0.064662
215 0.134557
220 0.219987
225 0.150935
230 0.115177
235 0.0817623
240 0.219468
245 0.129056
250 0.123675
255 0.14168
260 0.0968689
265 0.122266
270 0.147516
275 0.0718125
280 0.0919788
285 0.201129
290 0.142115
295 0.0964343
300 0.166339
305 0.127758
310 0.14198
315 0.177745
320 0.281352
325 0.314624
330 22.2353
335 337.048
340 484.683
345 116.832
350 15.5061
355 4.5488
360 2.89692
365 2.23241
370 3.2429
375 7.57717
380 9.50213
385 9.07117
390 10.6444
395 11.085
400 10.9546
405 11.5069
410 12.2778
415 13.0497
420 11.8483
425 11.0018
430 10.3606
435 9.88133
440 9.5399
445 9.16993
450 8.29248
455 7.01605
460 6.32727
465 6.09404
470 5.89156
475 5.18099
480 4.63817
485 4.08461
490 3.82472
495 3.35601
500 2.8383
505 2.8741
510 2.56909
515 2.2527
520 1.84141
525 1.65664
530 1.49072
535 1.1743
540 1.27277
545 0.976867
550 0.973599
555 0.808607
560 0.821612
565 0.677974
570 0.488367
575 0.508622
580 0.503723
585 0.305707
590 0.322407
595 0.214619
600 0.214748
Ex : 348
200 0.140576
205 0.0966938
210 0.129392
215 0.125483
220 0.0919727
225 0.0876419
230 0.0863633
235 0.143737
240 0.0792808
245 0.0973269
250 0.0978339
255 0.1048
260 0.0970385
265 0.139229
270 0.126636
275 0.143649
280 0.186045
285 0.166422
290 0.0959421
295 0.0787409
300 0.0941367
305 0.0939184
310 0.197326
315 0.114586
320 0.107736
325 0.267024
330 0.487679
335 22.2146
340 338.928
345 501.182
350 128.024
355 16.4945
360 3.81751
365 2.54606
370 2.01079
375 2.44802
380 7.27598
385 12.6559
390 13.8682
395 13.7835
400 11.8929
405 12.5709
410 14.181
415 15.1026
420 13.9692
425 11.6255
430 11.2232
435 11.2993
440 10.7492
445 9.89422
450 8.61674
455 7.75845
460 7.2771
465 6.74517
470 6.15963
475 5.2078
480 4.71093
485 4.43869
490 4.03882
495 3.53375
500 3.25723
505 2.82527
510 2.45469
515 2.02509
520 1.91844
525 1.60346
530 1.50204
535 1.41359
540 1.24481
545 0.995193
550 0.90852
555 0.872455
560 0.79007
565 0.699397
570 0.655588
575 0.552321
580 0.438293
585 0.28647
590 0.296105
595 0.338726
600 0.0385457
Ex : 353
200 0.0600547
205 0.130214
210 0.0766062
215 0.143667
220 0.156856
225 0.122304
230 0.0711718
235 0.0650336
240 0.139114
245 0.127481
250 0.259205
255 0.118957
260 0.139582
265 0.200175
270 0.121409
275 0.138174
280 0.0974989
285 0.0736821
290 0.100566
295 0.118158
300 0.16646
305 0.0762512
310 0.0919568
315 0.133084
320 0.1448
325 0.134947
330 0.23951
335 0.354478
340 23.1458
345 347.346
350 504.865
355 124.655
360 16.1765
365 3.92388
370 2.31835
375 1.77862
380 3.28692
385 8.45776
390 16.1128
395 16.4539
400 14.8309
405 13.5074
410 14.8719
415 16.7332
420 16.6533
425 13.6284
430 11.8689
435 11.6369
440 11.8631
445 11.3244
450 9.86656
455 8.73046
460 7.59737
465 7.02002
470 6.61879
475 6.05541
480 5.44979
485 4.67433
490 4.11545
495 3.77609
500 3.63497
505 3.00344
510 2.6514
515 2.46538
520 2.14769
525 1.9907
530 1.61413
535 1.47012
540 1.33963
545 0.968103
550 0.908102
555 0.891808
560 0.70813
565 0.593917
570 0.557597
575 0.525798
580 0.385899
585 0.318723
590 0.258432
595 0.269791
600 0.198774
Ex : 358
200 0.102358
205 0.105541
210 0.0976807
215 0.101777
220 0.0923634
225 0.106366
230 0.0566777
235 0.0797773
240 0.160849
245 0.110323
250 0.0856281
255 0.0590283
260 0.0573639
265 0.0946931
270 0.107564
275 0.178539
280 0.181917
285 0.0758834
290 0.0611071
295 0.119396
300 0.0834488
305 0.0617059
310 0.11415
315 0.123566
320 0.129215
325 0.134467
330 0.140525
335 0.318228
340 0.582588
345 20.6671
350 335.533
355 513.196
360 127.983
365 16.5655
370 3.62082
375 2.82734
380 2.99473
385 6.05359
390 11.1409
395 17.2215
400 15.2435
405 13.305
410 13.8189
415 15.2985
420 14.8682
425 12.8829
430 11.572
435 10.7838
440 11.0821
445 10.4057
450 9.42478
455 8.26079
460 7.64645
465 6.97857
470 6.44814
475 6.08208
480 5.26702
485 4.6606
490 4.31889
495 3.78291
500 3.46797
505 3.14919
510 2.9244
515 2.35251
520 2.26946
525 1.90525
530 1.93672
535 1.63075
540 1.33557
545 1.09361
550 1.11528
555 1.11243
560 0.791837
565 0.686411
570 0.544963
575 0.453087
580 0.323784
585 0.29536
590 0.305271
595 0.218538
600 0.180426
Ex : 363
200 0.100555
205 0.0674203
210 0.117916
215 0.11601
220 0.125592
225 0.192583
230 0.14432
235 0.188039
240 0.183552
245 0.124482
250 0.116453
255 0.0720646
260 0.102284
265 0.0977835
270 0.10332
275 0.0698465
280 0.0927459
285 0.100253
290 0.109711
295 0.164541
300 0.104386
305 0.0601205
310 0.171
315 0.0935398
320 0.133576
325 0.1585
330 0.187205
335 0.19703
340 0.276331
345 0.595403
350 20.5743
355 335.691
360 526.385
365 136.258
370 17.3037
375 3.97174
380 4.35512
385 8.01147
390 11.2488
395 13.5764
400 15.6883
405 16.9913
410 17.499
415 17.2069
420 15.4938
425 13.1352
430 12.5692
435 12.5734
440 11.4733
445 11.0165
450 10.2085
455 8.85705
460 8.16785
465 7.55669
470 7.17985
475 6.4334
480 5.61183
485 4.97986
490 4.32221
495 4.19955
500 3.85142
505 3.32364
510 3.03228
515 2.81385
520 2.31694
525 2.05952
530 1.69507
535 1.49637
540 1.44547
545 1.33503
550 1.09264
555 1.00916
560 0.885713
565 0.843908
570 0.52866
575 0.446913
580 0.564704
585 0.370996
590 0.278327
595 0.252481
600 1.1442
Ex : 368
200 0.180588
205 0.119017
210 0.103303
215 0.0790284
220 0.0426125
225 0.105339
230 0.135099
235 0.0626615
240 0.0979853
245 0.113412
250 0.0890787
255 0.0820179
260 0.151375
265 0.165337
270 0.112562
275 0.0801069
280 0.110557
285 0.103585
290 0.115593
295 0.132148
300 0.102828
305 0.114716
310 0.083998
315 0.12892
320 0.119835
325 0.103206
330 0.0989334
335 0.0885774
340 0.236054
345 0.353696
350 0.536563
355 17.3801
360 323.392
365 531.776
370 141.927
375 18.6481
380 5.94318
385 9.52942
390 14.631
395 15.8794
400 15.2668
405 18.6417
410 22.1393
415 23.0907
420 20.45
425 16.5336
430 14.8948
435 14.127
440 14.6613
445 13.6599
450 11.8231
455 10.1946
460 9.10699
465 8.68304
470 7.80995
475 7.17443
480 6.38588
485 5.74297
490 5.09551
495 4.48492
500 4.32582
505 3.49003
510 3.26628
515 2.89531
520 2.55667
525 2.17677
530 2.0848
535 1.50302
540 1.40029
545 1.30954
550 1.14175
555 1.00928
560 0.843908
565 0.825143
570 0.637849
575 0.509107
580 0.383376
585 0.309419
590 0.249683
595 0.222363
600 0.162603
Ex : 373
200 0.0587565
205 0.124865
210 0.0858751
215 0.12385
220 0.0882636
225 0.0870484
230 0.0920526
235 0.101879
240 0.056302
245 0.0861718
250 0.0604862
255 0.0531377
260 0.117794
265 0.170445
270 0.0733551
275 0.182845
280 0.108573
285 0.0931646
290 0.0853463
295 0.0936318
300 0.091151
305 0.0906663
310 0.100531
315 0.146369
320 0.133323
325 0.133867
330 0.112731
335 0.181594
340 0.169968
345 0.22124
350 0.333246
355 0.601929
360 20.06
365 337.957
370 544.718
375 144.114
380 19.7186
385 9.07803
390 14.3774
395 17.6886
400 15.9683
405 14.912
410 18.9484
415 24.665
420 23.002
425 18.6333
430 15.0205
435 14.0466
440 14.2253
445 13.8234
450 12.1057
455 10.7066
460 9.53606
465 8.60927
470 7.98532
475 7.0373
480 6.56276
485 5.58781
490 5.148
495 4.39733
500 4.0085
505 3.82575
510 3.45763
515 2.99691
520 2.53336
525 2.33047
530 1.8382
535 1.87441
540 1.42117
545 1.3968
550 1.25311
555 1.14144
560 0.862144
565 0.662285
570 0.628731
575 0.481654
580 0.415832
585 0.266644
590 0.271286
595 0.237942
600 0.0965831
Ex : 378
200 0.0528231
205 0.135024
210 0.103161
215 0.178002
220 0.112868
225 0.0494683
230 0.0451189
235 0.0657038
240 0.0756396
245 0.0892035
250 0.131029
255 0.133683
260 0.0913818
265 0.0741394
270 0.136168
275 0.121526
280 0.0748616
285 0.0877751
290 0.0448055
295 0.0845599
300 0.0769012
305 0.141655
310 0.0718843
315 0.105582
320 0.0830025
325 0.113367
330 0.0727168
335 0.0798972
340 0.0704867
345 0.189316
350 0.183111
355 0.270545
360 0.528741
365 18.8779
370 333.936
375 553.099
380 149.244
385 22.9831
390 12.1692
395 13.0867
400 11.859
405 10.9344
410 12.9093
415 16.1283
420 18.4441
425 15.9581
430 12.9012
435 11.4483
440 11.2313
445 10.3562
450 9.52658
455 8.25331
460 7.30131
465 7.01484
470 6.57528
475 6.24952
480 5.67499
485 5.2599
490 4.67189
495 4.14194
500 3.70263
505 3.47901
510 2.92517
515 2.75903
520 2.56295
525 1.99096
530 1.95879
535 1.7632
540 1.49851
545 1.31327
550 1.15458
555 0.959514
560 0.883223
565 0.708137
570 0.55779
575 0.492206
580 0.310718
585 0.245643
590 0.294413
595 0.229377
600 0.191576
Ex : 383
200 0.132058
205 0.109137
210 0.054434
215 0.135524
220 0.0481979
225 0.0425781
230 0.0715451
235 0.0762593
240 0.100473
245 0.0729111
250 0.0734244
255 0.0956026
260 0.0562226
265 0.0519568
270 0.0682204
275 0.071723
280 0.0457604
285 0.0632461
290 0.0592674
295 0.15677
300 0.0881721
305 0.125103
310 0.096445
315 0.127909
320 0.221073
325 0.078254
330 0.0891611
335 0.101451
340 0.137092
345 0.117242
350 0.146812
355 0.214908
360 0.252725
365 0.568395
370 17.7925
375 342.35
380 584.229
385 163.319
390 28.5122
395 13.2702
400 11.0897
405 11.9582
410 13.141
415 13.762
420 13.7878
425 14.6159
430 13.9106
435 12.0495
440 11.1757
445 10.2975
450 9.02403
455 8.09337
460 7.10367
465 6.91073
470 6.5861
475 5.84876
480 5.54955
485 4.86252
490 4.47007
495 4.15852
500 3.68893
505 3.41373
510 3.20564
515 2.67151
520 2.44677
525 2.05185
530 2.00303
535 1.88394
540 1.47381
545 1.26932
550 1.17402
555 1.03471
560 0.862901
565 0.769763
570 0.622095
575 0.520165
580 0.403087
585 0.333494
590 0.36316
595 0.189866
600 0.126276
Ex : 388
200 0.0762842
205 0.065434
210 0.0867919
215 0.0441802
220 0.0719611
225 0.0854257
230 0.0626887
235 0.0750612
240 0.0456884
245 0.0621024
250 0.0428128
255 0.0761897
260 0.1093
265 0.0799798
270 0.0776395
275 0.109875
280 0.118938
285 0.087007
290 0.0777347
295 0.0503664
300 0.0670847
305 0.107666
310 0.0529442
315 0.0630818
320 0.0610818
325 0.0894676
330 0.128369
335 0.0857329
340 0.0951831
345 0.143392
350 0.0984815
355 0.166978
360 0.225745
365 0.364391
370 0.604376
375 20.0523
380 359.086
385 598.161
390 169.105
395 32.2633
400 15.2811
405 13.9631
410 16.3919
415 17.4594
420 16.1983
425 14.4838
430 14.742
435 15.6554
440 14.1629
445 12.6208
450 10.6398
455 9.00128
460 7.99754
465 7.50268
470 6.99439
475 6.56386
480 5.97748
485 5.38711
490 4.86295
495 4.38078
500 3.80382
505 3.47975
510 3.15726
515 2.87561
520 2.66998
525 2.29252
530 1.98982
535 1.64036
540 1.52629
545 1.38753
550 1.17335
555 0.949611
560 0.894365
565 0.768508
570 0.698472
575 0.544024
580 0.395885
585 0.253141
590 0.241241
595 0.201525
600 0.137499
Ex : 393
200 0.0856358
205 0.0309784
210 0.0753028
215 0.138511
220 0.0696311
225 0.0867501
230 0.0594642
235 0.0585996
240 0.0555835
245 0.0771877
250 0.0777888
255 0.0886286
260 0.101743
265 0.0693489
270 0.0576715
275 0.0755711
280 0.122513
285 0.063141
290 0.073369
295 0.056529
300 0.0579607
305 0.0534755
310 0.0695221
315 0.0974948
320 0.0702257
325 0.115385
330 0.0996344
335 0.0962675
340 0.0987817
345 0.150207
350 0.112642
355 0.0964354
360 0.164107
365 0.241196
370 0.286805
375 0.67595
380 18.2449
385 357.118
390 617.891
395 176.635
400 33.2864
405 15.0904
410 15.0606
415 18.8938
420 18.5811
425 15.4096
430 12.7127
435 13.517
440 15.573
445 14.2145
450 11.9084
455 9.61387
460 7.89691
465 7.19112
470 6.75553
475 6.3758
480 5.93053
485 5.2826
490 4.64464
495 4.293
500 3.87976
505 3.54895
510 3.03247
515 2.74358
520 2.4041
525 2.27247
530 1.95403
535 1.77809
540 1.59724
545 1.60735
550 1.33495
555 1.07875
560 0.985779
565 0.735617
570 0.581611
575 0.510893
580 0.486427
585 0.291302
590 0.241843
595 0.174071
600 0.224563
Ex : 398
200 0.107218
205 0.0842811
210 0.0731072
215 0.0659113
220 0.0524119
225 0.0865086
230 0.0547644
235 0.0598907
240 0.068312
245 0.0555223
250 0.0431259
255 0.0981655
260 0.0592167
265 0.123963
270 0.0866311
275 0.0832914
280 0.0898845
285 0.066112
290 0.0512748
295 0.0902352
300 0.0383938
305 0.071047
310 0.0731949
315 0.101869
320 0.0883673
325 0.0838759
330 0.102512
335 0.0977613
340 0.0965281
345 0.110593
350 0.0967748
355 0.15229
360 0.139124
365 0.191861
370 0.202513
375 0.413303
380 0.945968
385 19.2896
390 365.151
395 631.672
400 176.096
405 27.1813
410 10.9549
415 11.5882
420 11.9135
425 9.73646
430 7.7759
435 7.23217
440 8.70921
445 10.956
450 9.66608
455 7.70303
460 6.45436
465 5.79365
470 5.37496
475 4.90197
480 4.80747
485 4.36285
490 3.85095
495 3.70783
500 3.40479
505 3.06757
510 2.6378
515 2.52425
520 2.32875
525 2.15724
530 1.85275
535 1.79427
540 1.49215
545 1.39578
550 1.08899
555 1.03783
560 0.874149
565 0.737611
570 0.648247
575 0.503716
580 0.391687
585 0.352945
590 0.213545
595 0.262114
600 0.0748888
Ex : 403
200 0.0804476
205 0.0909469
210 0.0575497
215 0.0992248
220 0.114024
225 0.0718674
230 0.0525507
235 0.0459745
240 0.0918526
245 0.116969
250 0.0575372
255 0.0998054
260 0.0575064
265 0.0895505
270 0.080733
275 0.0976834
280 0.0387873
285 0.091997
290 0.097154
295 0.0745998
300 0.0629523
305 0.051172
310 0.0707492
315 0.0941803
320 0.116431
325 0.147273
330 0.0665036
335 0.0919613
340 0.116993
345 0.102853
350 0.0846627
355 0.101614
360 0.13119
365 0.0958239
370 0.157984
375 0.207288
380 0.333349
385 0.889346
390 22.0579
395 380.932
400 636.697
405 173.896
410 23.7572
415 6.93078
420 5.19929
425 4.72177
430 3.96643
435 3.62982
440 3.98942
445 4.66408
450 6.40626
455 7.09373
460 5.23343
465 4.76866
470 4.10139
475 3.73784
480 3.52315
485 3.37787
490 3.23816
495 3.09005
500 2.78422
505 2.61657
510 2.64193
515 2.39852
520 2.29096
525 1.75462
530 1.63307
535 1.48123
540 1.31101
545 1.17929
550 1.00763
555 1.00602
560 0.814468
565 0.709729
570 0.523429
575 0.418425
580 0.421428
585 0.279627
590 0.246304
595 0.191772
600 0.0522766
Ex : 408
200 0.0697523
205 0.0739299
210 0.0616198
215 0.0473963
220 0.0853013
225 0.0856777
230 0.0472032
235 0.0345641
240 0.0897464
245 0.0610838
250 0.103297
255 0.0704241
260 0.0714898
265 0.0647449
270 0.0550005
275 0.0612711
280 0.0505527
285 0.0798813
290 0.103336
295 0.0707228
300 0.117009
305 0.0893767
310 0.0511926
315 0.120658
320 0.0857523
325 0.0456364
330 0.104727
335 0.119512
340 0.100861
345 0.105271
350 0.106011
355 0.113139
360 0.109798
365 0.153323
370 0.153553
375 0.0920717
380 0.196461
385 0.359239
390 0.914692
395 20.6602
400 399.981
405 677.946
410 180.877
415 24.0822
420 5.59325
425 3.31722
430 3.322
435 3.1707
440 3.10528
445 3.16179
450 3.68641
455 5.14033
460 6.32657
465 5.04257
470 4.30793
475 3.9319
480 3.38882
485 3.11023
490 3.25556
495 2.93146
500 2.837
505 2.71077
510 2.45013
515 2.20675
520 1.85543
525 1.70053
530 1.59958
535 1.34652
540 1.2939
545 1.23224
550 1.04434
555 0.916042
560 0.737245
565 0.707031
570 0.585314
575 0.408944
580 0.396886
585 0.323985
590 0.265732
595 0.187195
600 0.081588
Ex : 413
200 0.0813227
205 0.0788825
210 0.0867895
215 0.0879559
220 0.110497
225 0.0507401
230 0.0594618
235 0.0870142
240 0.0600078
245 0.0695889
250 0.0500685
255 0.0854687
260 0.0752863
265 0.0821678
270 0.0909435
275 0.0978024
280 0.0734752
285 0.127711
290 0.1013
295 0.106811
300 0.0974859
305 0.0872061
310 0.0773261
315 0.0566714
320 0.111644
325 0.104322
330 0.181975
335 0.121627
340 0.126283
345 0.0990096
350 0.118837
355 0.0680468
360 0.0803425
365 0.104129
370 0.108872
375 0.13739
380 0.199566
385 0.293565
390 0.500958
395 0.749808
400 23.1266
405 414.426
410 668.378
415 173.897
420 22.7006
425 5.01455
430 3.0932
435 3.0917
440 3.15808
445 2.80462
450 2.751
455 2.7114
460 4.02653
465 5.83627
470 5.0907
475 3.96651
480 3.57722
485 3.14279
490 2.87097
495 2.70562
500 2.58892
505 2.39398
510 2.08897
515 2.03311
520 1.91577
525 1.70685
530 1.61508
535 1.39623
540 1.32434
545 1.15832
550 0.974509
555 0.9596
560 0.774208
565 0.640779
570 0.557481
575 0.456243
580 0.307001
585 0.255685
590 0.19804
595 0.189892
600 0.414156
Ex : 418
200 0.102001
205 0.0542307
210 0.0601257
215 0.064816
220 0.100508
225 0.0793094
230 0.0656034
235 0.0985508
240 0.0622607
245 0.0862104
250 0.0837604
255 0.100509
260 0.0611161
265 0.075211
270 0.101006
275 0.0432292
280 0.0754678
285 0.0644329
290 0.0531207
295 0.0866089
300 0.109166
305 0.087907
310 0.0607803
315 0.0575568
320 0.0833391
325 0.0888838
330 0.0700812
335 0.105213
340 0.135822
345 0.111432
350 0.0997965
355 0.133322
360 0.112833
365 0.0697664
370 0.13422
375 0.18023
380 0.186228
385 0.232548
390 0.341346
395 0.36892
400 0.737884
405 22.7598
410 420.147
415 697.113
420 188.814
425 24.0155
430 4.60798
435 2.4429
440 2.61607
445 2.48622
450 2.08105
455 2.12812
460 2.02521
465 2.87574
470 4.89067
475 5.00457
480 3.55103
485 3.09823
490 2.66454
495 2.31568
500 2.40011
505 2.01057
510 2.00394
515 1.93798
520 1.73902
525 1.52099
530 1.44833
535 1.3375
540 1.23796
545 1.15291
550 1.05051
555 0.82764
560 0.800892
565 0.626803
570 0.574934
575 0.44364
580 0.315079
585 0.288031
590 0.250852
595 0.175591
600 0.0199816
Ex : 423
200 0.0732544
205 0.0584749
210 0.0777118
215 0.0834382
220 0.0420755
225 0.0673772
230 0.0422803
235 0.0632946
240 0.0380843
245 0.0665786
250 0.0808589
255 0.0922283
260 0.103142
265 0.0480036
270 0.0629525
275 0.0803525
280 0.0448739
285 0.0549307
290 0.120944
295 0.0892171
300 0.0615358
305 0.122558
310 0.0778322
315 0.0894904
320 0.0983652
325 0.0615968
330 0.0956022
335 0.0646812
340 0.122388
345 0.081672
350 0.112738
355 0.0643211
360 0.0794896
365 0.0807551
370 0.124775
375 0.120081
380 0.118209
385 0.203586
390 0.2072
395 0.241974
400 0.434594
405 0.685386
410 24.0054
415 459.449
420 727.055
425 184.196
430 23.005
435 4.099
440 1.96265
445 2.02795
450 1.81636
455 1.55162
460 1.50819
465 1.53586
470 2.18538
475 3.90838
480 4.87418
485 3.39056
490 2.8298
495 2.37381
500 2.14943
505 1.90344
510 1.78195
515 1.67126
520 1.60791
525 1.41697
530 1.31106
535 1.27436
540 1.22962
545 1.01261
550 0.972954
555 0.868915
560 0.743492
565 0.63972
570 0.544599
575 0.403089
580 0.355087
585 0.285166
590 0.186618
595 0.235822
600 0.0612514
Ex : 428
200 0.0558151
205 0.0817626
210 0.10087
215 0.0502496
220 0.0406376
225 0.109816
230 0.117675
235 0.0508502
240 0.088415
245 0.0865458
250 0.0624122
255 0.0401982
260 0.0755468
265 0.0770996
270 0.073604
275 0.0821083
280 0.0860063
285 0.0654979
290 0.0547167
295 0.0716063
300 0.0863241
305 0.0531791
310 0.0601107
315 0.077748
320 0.0663573
325 0.0983857
330 0.0702005
335 0.100374
340 0.0795916
345 0.105955
350 0.0582498
355 0.0894289
360 0.10046
365 0.0897619
370 0.0971098
375 0.0842242
380 0.13209
385 0.14034
390 0.115579
395 0.18886
400 0.223288
405 0.366241
410 0.799447
415 26.1508
420 456.296
425 741.788
430 195.032
435 23.9439
440 4.02326
445 1.72962
450 1.89181
455 1.81522
460 1.45308
465 1.31951
470 1.51917
475 1.78893
480 3.0286
485 4.64749
490 3.45569
495 2.61184
500 2.33519
505 1.93678
510 1.66054
515 1.42668
520 1.4649
525 1.38082
530 1.31288
535 1.10568
540 1.24992
545 1.03699
550 0.902983
555 0.712847
560 0.704901
565 0.607628
570 0.450538
575 0.381425
580 0.326453
585 0.268594
590 0.194405
595 0.197345
600 0.0930007
Ex : 433
200 0.0736294
205 0.103925
210 0.0484067
215 0.0563282
220 0.0843873
225 0.0560116
230 0.106658
235 0.0626508
240 0.0737071
245 0.0970507
250 0.112941
255 0.0946128
260 0.109913
265 0.0733256
270 0.148403
275 0.0803564
280 0.0635428
285 0.0620749
290 0.0596444
295 0.0796171
300 0.0634442
305 0.0342821
310 0.0775014
315 0.0810981
320 0.0835849
325 0.0846197
330 0.0971753
335 0.0990931
340 0.083293
345 0.0593762
350 0.110391
355 0.109767
360 0.08411
365 0.0814681
370 0.0964383
375 0.102992
380 0.114443
385 0.13358
390 0.144258
395 0.142467
400 0.20274
405 0.218567
410 0.434966
415 0.758418
420 30.8245
425 503.98
430 766.956
435 193.465
440 23.8079
445 4.08679
450 1.67628
455 1.698
460 1.76531
465 1.47252
470 1.31052
475 1.37898
480 1.4599
485 2.40265
490 4.10852
495 3.73701
500 2.65596
505 2.1778
510 1.87874
515 1.60171
520 1.44187
525 1.33077
530 1.19024
535 1.10574
540 1.11459
545 0.931825
550 0.84923
555 0.714904
560 0.594618
565 0.490766
570 0.499699
575 0.47333
580 0.348747
585 0.288387
590 0.201564
595 0.188638
600 0.131498
Ex : 438
200 0.0941214
205 0.0610148
210 0.0467932
215 0.0518187
220 0.0397563
225 0.0504122
230 0.0902902
235 0.087131
240 0.0603965
245 0.0818043
250 0.0959506
255 0.0879341
260 0.102073
265 0.0858529
270 0.135887
275 0.0661319
280 0.0637823
285 0.0762661
290 0.0557595
295 0.0800243
300 0.119308
305 0.0820117
310 0.0449101
315 0.106393
320 0.0668399
325 0.0679248
330 0.108285
335 0.0672031
340 0.141126
345 0.0897679
350 0.108918
355 0.106308
360 0.0700165
365 0.113345
370 0.10315
375 0.116139
380 0.117691
385 0.0971102
390 0.090291
395 0.137478
400 0.151367
405 0.222699
410 0.35831
415 0.488506
420 0.86825
425 30.3869
430 525.611
435 855.735
440 217.02
445 26.7416
450 4.57303
455 1.63275
460 1.76413
465 1.6511
470 1.6015
475 1.31316
480 1.42701
485 1.35685
490 1.94552
495 3.63981
500 3.92219
505 2.52887
510 2.08127
515 1.82839
520 1.50456
525 1.31994
530 1.14173
535 1.16385
540 0.993422
545 0.980968
550 0.79855
555 0.755719
560 0.755795
565 0.556223
570 0.533462
575 0.400933
580 0.327966
585 0.252356
590 0.210784
595 0.139722
600 0.0661181
Ex : 443
200 0.135662
205 0.112429
210 0.0916932
215 0.0863109
220 0.0793028
225 0.0990311
230 0.0776304
235 0.0556799
240 0.0607992
245 0.0515354
250 0.0359765
255 0.0604344
260 0.0937375
265 0.0791107
270 0.0835749
275 0.120126
280 0.0662697
285 0.0971051
290 0.0597411
295 0.0309093
300 0.0575577
305 0.119784
310 0.0577377
315 0.0381849
320 0.0774005
325 0.0725228
330 0.0985369
335 0.0961116
340 0.0878958
345 0.0882239
350 0.071454
355 0.099982
360 0.0857223
365 0.104525
370 0.072664
375 0.096089
380 0.0739257
385 0.0991246
390 0.143242
395 0.149869
400 0.143471
405 0.173701
410 0.216701
415 0.285153
420 0.455639
425 0.874325
430 33.6857
435 570.566
440 897.633
445 228.235
450 27.9889
455 4.7303
460 1.82955
465 1.68099
470 1.74967
475 1.55511
480 1.32428
485 1.29465
490 1.34994
495 1.56989
500 2.94563
505 3.85082
510 2.5041
515 1.90017
520 1.78541
525 1.43915
530 1.1557
535 1.13032
540 1.03944
545 0.980138
550 0.812934
555 0.813003
560 0.783516
565 0.629192
570 0.441118
575 0.469727
580 0.297899
585 0.282965
590 0.190918
595 0.19207
600 0.178943
Ex : 448
200 0.0580172
205 0.0509266
210 0.0632957
215 0.0859496
220 0.0605062
225 0.0787954
230 0.153736
235 0.0599522
240 0.0856355
245 0.0522566
250 0.0756656
255 0.0488568
260 0.0610097
265 0.0978993
270 0.0852682
275 0.0734809
280 0.0854416
285 0.0777018
290 0.0993948
295 0.0781308
300 0.0797335
305 0.0817857
310 0.0752772
315 0.0945354
320 0.0623723
325 0.0783271
330 0.0782229
335 0.11672
340 0.0844186
345 0.10761
350 0.0840191
355 0.0810647
360 0.127899
365 0.0900913
370 0.0643036
375 0.0990821
380 0.079982
385 0.0818268
390 0.0999073
395 0.108527
400 0.181563
405 0.136676
410 0.132882
415 0.334905
420 0.352479
425 0.494381
430 0.90896
435 34.304
440 604.275
445 943.806
450 238.08
455 29.334
460 4.8754
465 1.95881
470 1.82407
475 1.68658
480 1.5768
485 1.29247
490 1.22633
495 1.21208
500 1.30012
505 2.12033
510 3.48652
515 2.86642
520 1.85739
525 1.73515
530 1.42364
535 1.12459
540 0.926201
545 0.875806
550 0.850812
555 0.809069
560 0.693267
565 0.560935
570 0.544884
575 0.412181
580 0.313383
585 0.307221
590 0.29106
595 0.185839
600 0.0865722
Ex : 453
200 0.0639033
205 0.0729364
210 0.0535916
215 0.0692786
220 0.0913647
225 0.0722767
230 0.0477152
235 0.0582366
240 0.0759088
245 0.0822982
250 0.0805708
255 0.076657
260 0.0781401
265 0.084722
270 0.0803545
275 0.0949165
280 0.0617046
285 0.105042
290 0.0567119
295 0.0384623
300 0.109662
305 0.0648686
310 0.0837126
315 0.165943
320 0.0768187
325 0.0652282
330 0.0741407
335 0.0511561
340 0.0721391
345 0.0627024
350 0.0851877
355 0.107834
360 0.0877625
365 0.105731
370 0.121769
375 0.113173
380 0.0853314
385 0.0937573
390 0.0818243
395 0.116763
400 0.125425
405 0.120357
410 0.139566
415 0.193954
420 0.226228
425 0.338196
430 0.479318
435 0.960978
440 37.9134
445 669.198
450 980.997
455 231.463
460 28.4427
465 4.80854
470 1.71718
475 1.44387
480 1.78468
485 1.42064
490 1.40248
495 1.22744
500 1.17137
505 1.26211
510 1.72038
515 3.07523
520 3.15536
525 1.99261
530 1.62804
535 1.51694
540 1.21424
545 0.975996
550 0.862068
555 0.75053
560 0.682854
565 0.647816
570 0.541378
575 0.399966
580 0.406737
585 0.333082
590 0.190221
595 0.185568
600 0.23145
Ex : 458
200 0.0869397
205 0.0733917
210 0.0675804
215 0.0576653
220 0.072396
225 0.126992
230 0.107828
235 0.0740582
240 0.0453585
245 0.052845
250 0.099746
255 0.0864881
260 0.0676409
265 0.0608083
270 0.0423429
275 0.0873204
280 0.0842568
285 0.0790547
290 0.0926541
295 0.0687351
300 0.0879705
305 0.0906126
310 0.0737506
315 0.0540157
320 0.125471
325 0.0982562
330 0.0680026
335 0.0814495
340 0.0944739
345 0.0949994
350 0.106648
355 0.081487
360 0.0646128
365 0.0999048
370 0.125955
375 0.0550973
380 0.0927898
385 0.10888
390 0.0740288
395 0.0906393
400 0.151902
405 0.128435
410 0.120179
415 0.215247
420 0.200349
425 0.257354
430 0.393769
435 0.544201
440 1.12136
445 42.5804
450 706.588
455 1068.52
460 259.77
465 31.9738
470 5.39356
475 1.85999
480 1.49403
485 1.67092
490 1.59358
495 1.32
500 1.08942
505 1.04163
510 1.12465
515 1.44114
520 2.50965
525 3.25161
530 2.25794
535 1.50112
540 1.38633
545 1.16688
550 0.866879
555 0.792174
560 0.788004
565 0.614423
570 0.559981
575 0.511481
580 0.371683
585 0.273213
590 0.283817
595 0.164739
600 0.0390193
Ex : 463
200 0.0452926
205 0.0497524
210 0.0697714
215 0.0972617
220 0.0604488
225 0.0730813
230 0.0844663
235 0.0799394
240 0.0612378
245 0.134298
250 0.0659879
255 0.0851927
260 0.0815577
265 0.0695753
270 0.052166
275 0.0732675
280 0.0716425
285 0.0797979
290 0.0852358
295 0.0823466
300 0.0683213
305 0.0568131
310 0.0947392
315 0.0524556
320 0.100668
325 0.0942001
330 0.0709802
335 0.119186
340 0.0636728
345 0.0729936
350 0.149844
355 0.106889
360 0.0905103
365 0.103591
370 0.0823173
375 0.0797668
380 0.0853153
385 0.0772449
390 0.0857781
395 0.123524
400 0.0993357
405 0.179804
410 0.163265
415 0.155116
420 0.204677
425 0.23734
430 0.225659
435 0.344845
440 0.609961
445 1.06504
450 42.7359
455 754.419
460 1148.09
465 279.48
470 34.2184
475 5.47457
480 1.8197
485 1.45983
490 1.59278
495 1.50027
500 1.28379
505 0.982805
510 1.02003
515 1.11523
520 1.23793
525 1.86509
530 3.04526
535 2.58545
540 1.63176
545 1.34377
550 1.1441
555 0.880964
560 0.666746
565 0.715007
570 0.641597
575 0.478923
580 0.431186
585 0.301122
590 0.242442
595 0.21411
600 0.13889
Ex : 468
200 0.0683689
205 0.0626998
210 0.0771776
215 0.0850844
220 0.108706
225 0.0598434
230 0.0736361
235 0.0968316
240 0.0772484
245 0.0836451
250 0.0735333
255 0.0709561
260 0.0533885
265 0.0472173
270 0.0729378
275 0.0785203
280 0.143536
285 0.0751286
290 0.0489975
295 0.0837668
300 0.0899699
305 0.0918463
310 0.06899
315 0.087722
320 0.069357
325 0.0905527
330 0.0734754
335 0.110656
340 0.103908
345 0.14392
350 0.0733557
355 0.0999958
360 0.0695052
365 0.0588507
370 0.106177
375 0.159444
380 0.142499
385 0.107219
390 0.0839287
395 0.0993141
400 0.114389
405 0.133373
410 0.123508
415 0.140018
420 0.161748
425 0.201939
430 0.202067
435 0.262425
440 0.327998
445 0.542389
450 1.10413
455 49.2324
460 783.631
465 1227.76
470 297.46
475 35.8446
480 5.64225
485 1.92252
490 1.36947
495 1.54486
500 1.51956
505 1.31778
510 1.12097
515 1.03392
520 1.09061
525 1.19456
530 1.69089
535 2.60371
540 2.80803
545 1.65698
550 1.37203
555 1.20403
560 0.971747
565 0.798727
570 0.643229
575 0.524025
580 0.410692
585 0.382628
590 0.361994
595 0.293069
600 0.11282
Ex : 473
200 0.102399
205 0.06021
210 0.0779297
215 0.0893369
220 0.0879561
225 0.0661157
230 0.0856782
235 0.0653981
240 0.0534603
245 0.140349
250 0.0851877
255 0.0715508
260 0.0800992
265 0.0621389
270 0.0739533
275 0.0746733
280 0.0917855
285 0.0969188
290 0.0404215
295 0.0713796
300 0.084677
305 0.0904685
310 0.0809933
315 0.0730779
320 0.11661
325 0.0756213
330 0.102168
335 0.162211
340 0.0869549
345 0.0995775
350 0.068929
355 0.0705426
360 0.0682125
365 0.0863514
370 0.0949984
375 0.150786
380 0.127311
385 0.125955
390 0.123771
395 0.131619
400 0.114036
405 0.161182
410 0.123508
415 0.144182
420 0.14663
425 0.12958
430 0.224954
435 0.215162
440 0.30833
445 0.365584
450 0.67729
455 1.15155
460 58.1034
465 874.019
470 1226.54
475 285.069
480 34.6489
485 5.43583
490 1.88475
495 1.2661
500 1.37638
505 1.20562
510 1.21737
515 1.03128
520 1.07297
525 0.972898
530 1.05222
535 1.27651
540 2.30926
545 2.80375
550 1.89896
555 1.15871
560 1.13136
565 0.911696
570 0.73866
575 0.594316
580 0.472737
585 0.374068
590 0.284064
595 0.26135
600 0.40881
Ex : 478
200 0.103082
205 0.112547
210 0.107952
215 0.0999196
220 0.0982503
225 0.0650025
230 0.0808706
235 0.0461403
240 0.0949118
245 0.0803508
250 0.152015
255 0.088418
260 0.135761
265 0.107466
270 0.11288
275 0.101324
280 0.110476
285 0.0775408
290 0.0878945
295 0.101552
300 0.0962548
305 0.0923743
310 0.0660207
315 0.0968174
320 0.102794
325 0.128305
330 0.165204
335 0.0737528
340 0.105865
345 0.0972747
350 0.129116
355 0.0854378
360 0.0654318
365 0.0810531
370 0.0947829
375 0.121784
380 0.0690418
385 0.0878211
390 0.113775
395 0.127749
400 0.179416
405 0.141496
410 0.0926991
415 0.201691
420 0.171871
425 0.194302
430 0.19593
435 0.195805
440 0.206758
445 0.328121
450 0.465292
455 0.715171
460 1.47011
465 62.837
470 911.962
475 1278.65
480 311.343
485 37.6693
490 5.81281
495 1.807
500 1.23886
505 1.23423
510 1.32983
515 1.27973
520 1.11961
525 1.10342
530 1.06655
535 0.993304
540 1.03759
545 1.70828
550 2.55015
555 1.86948
560 1.19888
565 1.09808
570 0.85608
575 0.662291
580 0.404581
585 0.447535
590 0.373319
595 0.358221
600 0.0407642
Ex : 483
200 0.0867741
205 0.112086
210 0.0874085
215 0.105313
220 0.0623376
225 0.115292
230 0.0788927
235 0.0770794
240 0.116257
245 0.0736812
250 0.0964211
255 0.102009
260 0.0767637
265 0.075833
270 0.0862747
275 0.0974789
280 0.129322
285 0.0709833
290 0.109502
295 0.162132
300 0.10981
305 0.0897149
310 0.065131
315 0.113349
320 0.0903154
325 0.081168
330 0.121672
335 0.107398
340 0.0854119
345 0.124567
350 0.0962338
355 0.0938435
360 0.101555
365 0.0774921
370 0.103346
375 0.118029
380 0.106111
385 0.186823
390 0.0955784
395 0.0974774
400 0.12726
405 0.11573
410 0.108339
415 0.111731
420 0.171516
425 0.147596
430 0.139236
435 0.185587
440 0.271725
445 0.293974
450 0.354695
455 0.535043
460 0.839422
465 1.70405
470 51.7992
475 935.268
480 1426.07
485 344.992
490 41.507
495 6.15706
500 1.85427
505 1.18057
510 1.34831
515 1.48047
520 1.35498
525 1.15943
530 1.13634
535 1.01118
540 0.924154
545 0.886831
550 1.11767
555 2.03892
560 2.17299
565 1.40711
570 0.796571
575 0.765253
580 0.494692
585 0.400688
590 0.291699
595 0.28113
600 1.02326
Ex : 488
200 0.0685182
205 0.107788
210 0.0849792
215 0.0713996
220 0.115289
225 0.0724005
230 0.101632
235 0.140723
240 0.119491
245 0.131106
250 0.11006
255 0.0766452
260 0.069523
265 0.112147
270 0.078995
275 0.120406
280 0.0918103
285 0.0761832
290 0.0970771
295 0.0848634
300 0.081847
305 0.0901966
310 0.167665
315 0.109761
320 0.0647406
325 0.0676643
330 0.0805791
335 0.100617
340 0.108045
345 0.0962703
350 0.12336
355 0.111554
360 0.100284
365 0.143948
370 0.0885326
375 0.115947
380 0.0923066
385 0.139686
390 0.103952
395 0.145937
400 0.160057
405 0.146535
410 0.113149
415 0.170361
420 0.144124
425 0.157251
430 0.142595
435 0.165029
440 0.249018
445 0.272618
450 0.250719
455 0.395524
460 0.502218
465 0.978165
470 1.59257
475 63.6003
480 1010.08
485 1398.04
490 327.816
495 39.4674
500 5.93361
505 1.83583
510 1.15998
515 1.18113
520 1.37965
525 1.30109
530 1.1602
535 0.951932
540 0.881853
545 0.857127
550 0.837573
555 0.902773
560 1.54595
565 2.02312
570 1.31737
575 0.827927
580 0.595583
585 0.397942
590 0.358606
595 0.392406
600 0.115686
Ex : 493
200 0.0600466
205 0.131531
210 0.120751
215 0.0693304
220 0.0802376
225 0.117529
230 0.115191
235 0.0969329
240 0.110982
245 0.104842
250 0.120143
255 0.11271
260 0.123086
265 0.154553
270 0.0852662
275 0.113178
280 0.087361
285 0.0832879
290 0.0808039
295 0.115443
300 0.135878
305 0.0651938
310 0.161137
315 0.110431
320 0.145433
325 0.159569
330 0.118718
335 0.205322
340 0.103146
345 0.109541
350 0.102899
355 0.115215
360 0.102546
365 0.10887
370 0.130055
375 0.118489
380 0.127341
385 0.162366
390 0.160324
395 0.151029
400 0.107055
405 0.134179
410 0.0997731
415 0.140766
420 0.129086
425 0.15696
430 0.163129
435 0.222191
440 0.195523
445 0.172154
450 0.269894
455 0.326329
460 0.460782
465 0.711898
470 0.960688
475 1.60509
480 60.2946
485 1046.18
490 1553.34
495 356.918
500 42.5986
505 6.28741
510 2.00021
515 1.30156
520 1.30118
525 1.42698
530 1.32903
535 1.15212
540 0.923357
545 0.899525
550 0.862681
555 0.798396
560 0.722874
565 1.06909
570 1.6992
575 1.42763
580 0.708331
585 0.469075
590 0.396051
595 0.354759
600 0.20089
Ex : 498
200 0.0909452
205 0.150793
210 0.163685
215 0.146105
220 0.106776
225 0.108245
230 0.132419
235 0.0741313
240 0.0927515
245 0.0971829
250 0.0929036
255 0.186782
260 0.0892679
265 0.082469
270 0.101952
275 0.0950699
280 0.0765291
285 0.170705
290 0.160096
295 0.0553837
300 0.110551
305 0.131264
310 0.117539
315 0.149578
320 0.089046
325 0.0940377
330 0.0746633
335 0.146791
340 0.115476
345 0.186378
350 0.105575
355 0.102518
360 0.136404
365 0.088255
370 0.147616
375 0.148101
380 0.119929
385 0.137815
390 0.236723
395 0.144879
400 0.0891133
405 0.184477
410 0.141435
415 0.142974
420 0.198812
425 0.167588
430 0.14048
435 0.175984
440 0.171886
445 0.16009
450 0.237624
455 0.270431
460 0.38025
465 0.592593
470 0.687307
475 0.871614
480 1.6469
485 73.6815
490 1080.8
495 1481.62
500 347.618
505 41.7731
510 6.36978
515 1.98487
520 1.32102
525 1.2534
530 1.30011
535 1.21616
540 1.09699
545 0.869383
550 0.766806
555 0.666968
560 0.667114
565 0.696293
570 0.750073
575 1.24053
580 1.38042
585 0.730653
590 0.393419
595 0.447184
600 0.774621
Ex : 503
200 0.109589
205 0.0816675
210 0.116967
215 0.114242
220 0.129919
225 0.0855718
230 0.118505
235 0.0857522
240 0.134886
245 0.144107
250 0.111198
255 0.10179
260 0.0955473
265 0.148049
270 0.138782
275 0.100956
280 0.0795422
285 0.112462
290 0.117658
295 0.198701
300 0.0954436
305 0.172876
310 0.210906
315 0.127045
320 0.12262
325 0.144446
330 0.172109
335 0.134526
340 0.128876
345 0.127908
350 0.131287
355 0.14541
360 0.241579
365 0.118494
370 0.124271
375 0.177673
380 0.149466
385 0.134266
390 0.19308
395 0.223536
400 0.151486
405 0.130494
410 0.170628
415 0.167509
420 0.174133
425 0.124662
430 0.172559
435 0.166021
440 0.168564
445 0.276936
450 0.225271
455 0.290668
460 0.313838
465 0.280326
470 0.471531
475 0.669065
480 0.873871
485 1.65306
490 68.6019
495 1121.03
500 1586
505 368.984
510 44.5677
515 6.66977
520 2.21422
525 1.3064
530 1.2231
535 1.35478
540 1.11579
545 1.1094
550 0.851885
555 0.630569
560 0.716217
565 0.638237
570 0.58008
575 0.578849
580 0.67331
585 1.00282
590 0.787098
595 0.435735
600 0.404847
Ex : 508
200 0.108035
205 0.0733814
210 0.158021
215 0.101693
220 0.166721
225 0.154508
230 0.0931299
235 0.0986635
240 0.0933498
245 0.11471
250 0.0726507
255 0.165316
260 0.135515
265 0.121148
270 0.130486
275 0.0932345
280 0.103803
285 0.12896
290 0.13135
295 0.0666036
300 0.160838
305 0.132018
310 0.112322
315 0.100914
320 0.085601
325 0.0979152
330 0.164559
335 0.216595
340 0.191785
345 0.149941
350 0.140055
355 0.179838
360 0.172814
365 0.0909694
370 0.124786
375 0.142463
380 0.158552
385 0.135762
390 0.123173
395 0.213779
400 0.164356
405 0.134071
410 0.099879
415 0.13555
420 0.120331
425 0.194276
430 0.245919
435 0.175911
440 0.191585
445 0.175073
450 0.186626
455 0.236107
460 0.32686
465 0.262706
470 0.404158
475 0.451883
480 0.533548
485 0.860086
490 1.79057
495 75.6332
500 1141.59
505 1596.5
510 387.331
515 46.4749
520 6.88857
525 2.10195
530 1.36564
535 1.19521
540 1.26065
545 1.14525
550 0.979636
555 0.797506
560 0.639028
565 0.573752
570 0.589036
575 0.437505
580 0.446045
585 0.565756
590 0.630326
595 0.687803
600 0.494243
Ex : 513
200 0.130449
205 0.161766
210 0.124526
215 0.0980662
220 0.115442
225 0.149797
230 0.0956045
235 0.0835487
240 0.0882082
245 0.092267
250 0.121275
255 0.146459
260 0.0967697
265 0.113397
270 0.0989908
275 0.182743
280 0.142211
285 0.105032
290 0.0650391
295 0.139764
300 0.120082
305 0.119373
310 0.089175
315 0.124013
320 0.114527
325 0.164544
330 0.134885
335 0.162282
340 0.164094
345 0.211339
350 0.173233
355 0.14929
360 0.120522
365 0.174707
370 0.102295
375 0.0863629
380 0.138252
385 0.15003
390 0.101554
395 0.174166
400 0.145196
405 0.13333
410 0.221658
415 0.157743
420 0.186127
425 0.195968
430 0.188414
435 0.152531
440 0.182094
445 0.233263
450 0.198232
455 0.240774
460 0.229004
465 0.328891
470 0.353692
475 0.36186
480 0.442379
485 0.648859
490 0.966461
495 1.65395
500 72.1149
505 1172.23
510 1696.99
515 415.865
520 50.2528
525 7.52545
530 2.31436
535 1.3504
540 1.1858
545 1.03326
550 1.00777
555 0.960088
560 0.780325
565 0.735388
570 0.596456
575 0.563015
580 0.389116
585 0.36668
590 0.406231
595 0.611209
600 0.750927
Ex : 518
200 0.0860585
205 0.203426
210 0.159551
215 0.179897
220 0.131464
225 0.170406
230 0.107702
235 0.165001
240 0.132745
245 0.122562
250 0.152592
255 0.125703
260 0.162447
265 0.135439
270 0.149509
275 0.107956
280 0.144581
285 0.130923
290 0.0836892
295 0.139938
300 0.107625
305 0.114549
310 0.0700979
315 0.119771
320 0.0674069
325 0.121716
330 0.107721
335 0.10726
340 0.0971646
345 0.125245
350 0.135562
355 0.186719
360 0.159749
365 0.172801
370 0.147953
375 0.204983
380 0.151705
385 0.182714
390 0.176507
395 0.127405
400 0.193437
405 0.107633
410 0.154721
415 0.154181
420 0.169559
425 0.224307
430 0.249003
435 0.274926
440 0.202878
445 0.302682
450 0.208637
455 0.178701
460 0.306742
465 0.272914
470 0.240182
475 0.341877
480 0.443139
485 0.485388
490 0.656573
495 0.977192
500 1.81138
505 73.1045
510 1146.89
515 1734.08
520 431.974
525 52.0542
530 7.59014
535 2.19171
540 1.31826
545 1.04941
550 0.929922
555 1.12987
560 0.813103
565 0.823883
570 0.568645
575 0.6274
580 0.492204
585 0.436924
590 0.301024
595 0.340373
600 0.0387331
Ex : 523
200 0.128866
205 0.145072
210 0.218728
215 0.094196
220 0.100603
225 0.122749
230 0.163573
235 0.128628
240 0.132245
245 0.103334
250 0.062291
255 0.10445
260 0.0973096
265 0.14549
270 0.114801
275 0.109361
280 0.110455
285 0.0878595
290 0.0833137
295 0.19731
300 0.115699
305 0.173684
310 0.139108
315 0.0939841
320 0.0913739
325 0.0536914
330 0.0722682
335 0.0911108
340 0.116292
345 0.10844
350 0.0871727
355 0.120512
360 0.164638
365 0.145653
370 0.172464
375 0.13337
380 0.113925
385 0.106704
390 0.130773
395 0.122396
400 0.136094
405 0.128437
410 0.233186
415 0.2096
420 0.114454
425 0.264348
430 0.135418
435 0.183719
440 0.201402
445 0.225691
450 0.222395
455 0.156217
460 0.279019
465 0.414317
470 0.335583
475 0.301725
480 0.295101
485 0.376787
490 0.558215
495 0.645873
500 1.11009
505 1.77189
510 68.3838
515 1125.23
520 1703.98
525 439.446
530 52.6624
535 7.51911
540 1.95866
545 1.13501
550 0.803655
555 0.832331
560 0.900308
565 0.634702
570 0.638711
575 0.473607
580 0.375124
585 0.376664
590 0.372006
595 0.296555
600 0.762791
Ex : 528
200 0.0898972
205 0.099751
210 0.130598
215 0.163968
220 0.128325
225 0.139425
230 0.108335
235 0.113347
240 0.13607
245 0.112091
250 0.1343
255 0.0953472
260 0.12509
265 0.126277
270 0.215143
275 0.133665
280 0.121296
285 0.120425
290 0.119363
295 0.105846
300 0.0788996
305 0.188664
310 0.106909
315 0.0774238
320 0.193852
325 0.127673
330 0.134749
335 0.116816
340 0.088263
345 0.0966745
350 0.158901
355 0.148924
360 0.142272
365 0.161795
370 0.190044
375 0.152285
380 0.149682
385 0.171667
390 0.0773286
395 0.144597
400 0.163828
405 0.151064
410 0.118197
415 0.150989
420 0.147816
425 0.206652
430 0.124499
435 0.130668
440 0.129581
445 0.232034
450 0.148973
455 0.18266
460 0.21422
465 0.199317
470 0.36019
475 0.274592
480 0.233715
485 0.295472
490 0.307011
495 0.573148
500 0.773924
505 1.23826
510 1.80773
515 64.3583
520 1128.93
525 1743.11
530 437.91
535 52.4056
540 7.18613
545 1.93853
550 1.06479
555 0.778244
560 0.675973
565 0.741359
570 0.657439
575 0.656112
580 0.418413
585 0.364293
590 0.39316
595 0.287786
600 0.244178
Ex : 533
200 0.125529
205 0.153718
210 0.21535
215 0.187742
220 0.20626
225 0.114192
230 0.142691
235 0.156371
240 0.192172
245 0.134269
250 0.177847
255 0.137981
260 0.137272
265 0.156712
270 0.107459
275 0.120117
280 0.137684
285 0.0843797
290 0.0693172
295 0.170275
300 0.152591
305 0.130903
310 0.181747
315 0.122066
320 0.0928703
325 0.104299
330 0.117093
335 0.202473
340 0.11988
345 0.143213
350 0.108171
355 0.0760234
360 0.151609
365 0.134303
370 0.132557
375 0.160071
380 0.219773
385 0.141332
390 0.152268
395 0.138535
400 0.0961656
405 0.196162
410 0.159883
415 0.246385
420 0.186276
425 0.105916
430 0.221864
435 0.161327
440 0.187938
445 0.238738
450 0.17816
455 0.180791
460 0.171031
465 0.242271
470 0.235529
475 0.237883
480 0.228455
485 0.255808
490 0.41658
495 0.41441
500 0.561946
505 0.686171
510 0.989763
515 1.84456
520 65.367
525 1106.5
530 1727.53
535 444.36
540 53.0033
545 7.54986
550 1.82445
555 0.915682
560 0.744774
565 0.687947
570 0.733663
575 0.574057
580 0.514749
585 0.387952
590 0.335562
595 0.3084
600 0.544487
Ex : 538
200 0.167673
205 0.176899
210 0.119435
215 0.140606
220 0.175042
225 0.12474
230 0.111313
235 0.139432
240 0.11004
245 0.108869
250 0.154831
255 0.124543
260 0.130428
265 0.0967273
270 0.194106
275 0.136575
280 0.122533
285 0.125719
290 0.128357
295 0.192422
300 0.1482
305 0.0979559
310 0.100637
315 0.215135
320 0.0822424
325 0.164626
330 0.153195
335 0.121433
340 0.149546
345 0.132599
350 0.181073
355 0.135716
360 0.0970604
365 0.148083
370 0.14581
375 0.223612
380 0.0976741
385 0.142345
390 0.155895
395 0.158457
400 0.194348
405 0.197974
410 0.149425
415 0.167622
420 0.135073
425 0.0971477
430 0.209617
435 0.222276
440 0.150157
445 0.22141
450 0.177356
455 0.21039
460 0.265288
465 0.217008
470 0.242456
475 0.254087
480 0.21461
485 0.2501
490 0.2685
495 0.271429
500 0.580385
505 0.464611
510 0.792592
515 0.899432
520 1.74014
525 57.2547
530 1048.4
535 1700.36
540 459.172
545 54.9244
550 7.42233
555 1.77019
560 0.915686
565 0.692127
570 0.637186
575 0.445368
580 0.481423
585 0.480668
590 0.327589
595 0.30337
600 0.463175
Ex : 543
200 0.133068
205 0.20091
210 0.153461
215 0.126802
220 0.0923286
225 0.0771492
230 0.176877
235 0.124999
240 0.118868
245 0.113087
250 0.0938489
255 0.148208
260 0.105888
265 0.109216
270 0.121946
275 0.100336
280 0.140908
285 0.117672
290 0.18331
295 0.0950362
300 0.150208
305 0.117678
310 0.114303
315 0.213331
320 0.141405
325 0.224749
330 0.202389
335 0.169412
340 0.174872
345 0.155792
350 0.151709
355 0.0982775
360 0.181048
365 0.151063
370 0.184799
375 0.237298
380 0.215372
385 0.14752
390 0.194642
395 0.12207
400 0.141355
405 0.217399
410 0.197651
415 0.167051
420 0.22438
425 0.17892
430 0.14902
435 0.160903
440 0.175595
445 0.164218
450 0.119647
455 0.156119
460 0.224398
465 0.185515
470 0.18356
475 0.206595
480 0.155682
485 0.207058
490 0.37474
495 0.226135
500 0.262597
505 0.520077
510 0.418793
515 0.641763
520 0.974943
525 1.80528
530 51.2308
535 1040.6
540 1770.3
545 483.467
550 57.9782
555 7.87265
560 1.81544
565 0.855015
570 0.589633
575 0.377399
580 0.493138
585 0.407926
590 0.420401
595 0.276693
600 0.442764
Ex : 548
200 0.172564
205 0.138953
210 0.202144
215 0.13349
220 0.146161
225 0.136344
230 0.193343
235 0.205757
240 0.204146
245 0.196817
250 0.127488
255 0.129337
260 0.0873696
265 0.112766
270 0.0951965
275 0.0846732
280 0.0998486
285 0.0928328
290 0.117484
295 0.110718
300 0.187212
305 0.169106
310 0.0856542
315 0.0981713
320 0.153062
325 0.137923
330 0.0992993
335 0.173369
340 0.161575
345 0.109429
350 0.19379
355 0.199172
360 0.150134
365 0.17196
370 0.0968784
375 0.167313
380 0.17575
385 0.134743
390 0.156312
395 0.155788
400 0.153144
405 0.0968916
410 0.121649
415 0.217686
420 0.252961
425 0.153675
430 0.13445
435 0.136681
440 0.143964
445 0.237266
450 0.255733
455 0.14509
460 0.206673
465 0.215087
470 0.144717
475 0.313327
480 0.283909
485 0.169728
490 0.321399
495 0.209996
500 0.360318
505 0.28852
510 0.410114
515 0.434604
520 0.777409
525 0.833672
530 1.45785
535 57.5851
540 1022.52
545 1661.23
550 459.157
555 54.8783
560 7.25724
565 1.43586
570 0.81327
575 0.561319
580 0.472022
585 0.335058
590 0.453293
595 0.395131
600 0.137171
Ex : 553
200 0.105388
205 0.161285
210 0.147374
215 0.0506875
220 0.0943006
225 0.173969
230 0.112717
235 0.205562
240 0.165753
245 0.111031
250 0.194046
255 0.171012
260 0.176868
265 0.124313
270 0.114337
275 0.15351
280 0.0935362
285 0.182374
290 0.13992
295 0.0975644
300 0.153795
305 0.159021
310 0.133361
315 0.0937322
320 0.132728
325 0.18844
330 0.106207
335 0.225348
340 0.216928
345 0.128783
350 0.12821
355 0.145609
360 0.108073
365 0.152757
370 0.12922
375 0.166102
380 0.189176
385 0.19006
390 0.231992
395 0.159537
400 0.163385
405 0.17
410 0.171845
415 0.2361
420 0.122673
425 0.17697
430 0.278957
435 0.164312
440 0.170166
445 0.157157
450 0.193381
455 0.156716
460 0.193946
465 0.269429
470 0.215816
475 0.213299
480 0.191273
485 0.296583
490 0.316975
495 0.210264
500 0.279724
505 0.338984
510 0.257505
515 0.424117
520 0.509892
525 0.603005
530 0.822
535 1.57246
540 48.0001
545 955.283
550 1624.35
555 460.748
560 54.8826
565 7.11022
570 1.54392
575 0.807999
580 0.441387
585 0.340738
590 0.365501
595 0.307704
600 0.0402594
Ex : 558
200 0.131776
205 0.107002
210 0.0714811
215 0.231685
220 0.115784
225 0.103193
230 0.182042
235 0.124138
240 0.159846
245 0.126475
250 0.130753
255 0.236913
260 0.243805
265 0.115215
270 0.201772
275 0.138586
280 0.16212
285 0.107147
290 0.0888438
295 0.151733
300 0.197816
305 0.215416
310 0.130269
315 0.121608
320 0.0999829
325 0.151399
330 0.17047
335 0.146627
340 0.144116
345 0.165967
350 0.0943272
355 0.20487
360 0.154846
365 0.233718
370 0.158191
375 0.166303
380 0.173683
385 0.18101
390 0.138853
395 0.167145
400 0.304463
405 0.177462
410 0.170901
415 0.14265
420 0.11761
425 0.146094
430 0.153144
435 0.174429
440 0.233538
445 0.154949
450 0.157458
455 0.26002
460 0.124037
465 0.154784
470 0.215192
475 0.206042
480 0.1531
485 0.244479
490 0.193839
495 0.184314
500 0.23497
505 0.314613
510 0.358924
515 0.432025
520 0.376877
525 0.586973
530 0.631064
535 0.829796
540 1.45787
545 45.79
550 918.636
555 1635.36
560 467.567
565 55.9329
570 7.43298
575 1.38015
580 0.737272
585 0.454636
590 0.387084
595 0.321642
600 0.482389
Ex : 563
200 0.194999
205 0.18773
210 0.0831849
215 0.183391
220 0.112693
225 0.14685
230 0.0903608
235 0.157296
240 0.111958
245 0.13275
250 0.156414
255 0.162464
260 0.119075
265 0.184558
270 0.208831
275 0.208506
280 0.196671
285 0.103682
290 0.101204
295 0.126097
300 0.104952
305 0.13957
310 0.114984
315 0.146261
320 0.189835
325 0.141493
330 0.145989
335 0.298327
340 0.167046
345 0.132082
350 0.167884
355 0.232276
360 0.152689
365 0.107728
370 0.163565
375 0.084125
380 0.122273
385 0.134633
390 0.160859
395 0.129513
400 0.229108
405 0.130698
410 0.188942
415 0.302424
420 0.313264
425 0.155918
430 0.162096
435 0.147283
440 0.278787
445 0.205629
450 0.173557
455 0.204822
460 0.24975
465 0.160865
470 0.178483
475 0.280536
480 0.264862
485 0.200503
490 0.258741
495 0.281904
500 0.380059
505 0.309444
510 0.222794
515 0.236861
520 0.306072
525 0.294586
530 0.434527
535 0.574878
540 0.956155
545 1.37116
550 44.205
555 904.25
560 1584.17
565 457.23
570 54.6871
575 7.26526
580 1.40133
585 0.61312
590 0.379154
595 0.269253
600 0.648794
Ex : 568
200 0.197706
205 0.154858
210 0.171417
215 0.0838433
220 0.102732
225 0.154794
230 0.178479
235 0.25845
240 0.14798
245 0.129811
250 0.143976
255 0.155598
260 0.198838
265 0.258283
270 0.124141
275 0.123579
280 0.0993011
285 0.094211
290 0.122026
295 0.101419
300 0.190398
305 0.120088
310 0.210813
315 0.187281
320 0.11365
325 0.0786032
330 0.148587
335 0.151778
340 0.210396
345 0.121053
350 0.163351
355 0.196348
360 0.161939
365 0.122452
370 0.233221
375 0.143153
380 0.16004
385 0.140972
390 0.169423
395 0.116784
400 0.206489
405 0.16459
410 0.152094
415 0.0713779
420 0.235838
425 0.188065
430 0.198035
435 0.140246
440 0.22031
445 0.279016
450 0.21292
455 0.248656
460 0.201024
465 0.180341
470 0.221476
475 0.195732
480 0.262017
485 0.192191
490 0.126615
495 0.17205
500 0.221662
505 0.269321
510 0.269099
515 0.262923
520 0.299544
525 0.237941
530 0.365911
535 0.482343
540 0.575004
545 0.861496
550 1.41703
555 34.8698
560 841.409
565 1583.64
570 481.176
575 57.6032
580 7.30623
585 1.32301
590 0.706461
595 0.545451
600 0.0850885
Ex : 573
200 0.0830842
205 0.148348
210 0.141471
215 0.133629
220 0.196527
225 0.0955316
230 0.0726861
235 0.121689
240 0.185125
245 0.0947521
250 0.121823
255 0.178751
260 0.209632
265 0.175615
270 0.146565
275 0.288109
280 0.28512
285 0.194393
290 0.067278
295 0.134945
300 0.170845
305 0.171659
310 0.165034
315 0.162546
320 0.25313
325 0.117144
330 0.103501
335 0.141288
340 0.0786369
345 0.10988
350 0.261156
355 0.104732
360 0.115391
365 0.174528
370 0.141494
375 0.171092
380 0.133234
385 0.134934
390 0.0878446
395 0.258048
400 0.151448
405 0.306704
410 0.137795
415 0.217071
420 0.148552
425 0.141966
430 0.18567
435 0.106877
440 0.207771
445 0.191403
450 0.199388
455 0.27312
460 0.206681
465 0.229778
470 0.235122
475 0.266293
480 0.170007
485 0.17571
490 0.28587
495 0.190038
500 0.248142
505 0.266804
510 0.274032
515 0.358426
520 0.269544
525 0.248015
530 0.283752
535 0.36977
540 0.41786
545 0.470853
550 0.795569
555 1.10814
560 29.4154
565 721.156
570 1426.85
575 440.771
580 52.9749
585 6.63593
590 1.28647
595 0.485723
600 1.2567
Ex : 578
200 0.182202
205 0.110741
210 0.0920977
215 0.11509
220 0.186007
225 0.213347
230 0.156617
235 0.130375
240 0.216438
245 0.133605
250 0.135433
255 0.0888397
260 0.127213
265 0.122511
270 0.102023
275 0.150841
280 0.170725
285 0.194275
290 0.089986
295 0.103517
300 0.151193
305 0.196601
310 0.28995
315 0.190636
320 0.1801
325 0.184795
330 0.129541
335 0.178263
340 0.241473
345 0.108069
350 0.135944
355 0.237202
360 0.176315
365 0.157734
370 0.0976279
375 0.107025
380 0.121431
385 0.118265
390 0.196756
395 0.161493
400 0.172266
405 0.166843
410 0.159447
415 0.220248
420 0.20242
425 0.145735
430 0.110939
435 0.184998
440 0.138709
445 0.112003
450 0.184076
455 0.199632
460 0.138171
465 0.212206
470 0.258869
475 0.177207
480 0.173449
485 0.209545
490 0.198309
495 0.221582
500 0.218508
505 0.180202
510 0.236367
515 0.283655
520 0.188744
525 0.235044
530 0.269875
535 0.261317
540 0.228876
545 0.454779
550 0.428367
555 0.760224
560 1.14519
565 26.2955
570 653.226
575 1280.07
580 387.918
585 46.2046
590 5.7436
595 1.04362
600 0.257418
Ex : 583
200 0.124876
205 0.157003
210 0.147318
215 0.199183
220 0.140896
225 0.190109
230 0.2371
235 0.0994004
240 0.0907129
245 0.132507
250 0.188106
255 0.21448
260 0.108694
265 0.109557
270 0.193662
275 0.159825
280 0.186062
285 0.158997
290 0.142596
295 0.0798991
300 0.134716
305 0.126535
310 0.154855
315 0.206433
320 0.188228
325 0.18749
330 0.110283
335 0.1642
340 0.120145
345 0.175977
350 0.223253
355 0.142325
360 0.11705
365 0.221654
370 0.177358
375 0.223034
380 0.177212
385 0.17156
390 0.133311
395 0.0982333
400 0.126998
405 0.160186
410 0.242118
415 0.216403
420 0.153485
425 0.148767
430 0.138366
435 0.085881
440 0.11299
445 0.17431
450 0.240644
455 0.155329
460 0.136589
465 0.150145
470 0.142197
475 0.118887
480 0.186265
485 0.141022
490 0.133195
495 0.123252
500 0.240483
505 0.218809
510 0.237935
515 0.268589
520 0.180402
525 0.221452
530 0.222003
535 0.217929
540 0.335443
545 0.257736
550 0.427943
555 0.416871
560 0.643517
565 1.04531
570 21.5309
575 571.616
580 1093.02
585 316.756
590 38.0094
595 4.81675
600 0.548128
Ex : 588
200 0.266448
205 0.172477
210 0.12129
215 0.117584
220 0.172388
225 0.155992
230 0.154246
235 0.180821
240 0.0967961
245 0.0932449
250 0.193191
255 0.155276
260 0.144337
265 0.202017
270 0.131616
275 0.153972
280 0.19723
285 0.158451
290 0.0957278
295 0.169881
300 0.144454
305 0.120843
310 0.126278
315 0.0835446
320 0.103886
325 0.163346
330 0.208842
335 0.0982325
340 0.139386
345 0.322227
350 0.23994
355 0.216765
360 0.159744
365 0.21163
370 0.147746
375 0.185864
380 0.127637
385 0.212524
390 0.209533
395 0.154426
400 0.145725
405 0.227481
410 0.219893
415 0.173718
420 0.192373
425 0.154066
430 0.18542
435 0.20424
440 0.12289
445 0.167712
450 0.152046
455 0.216884
460 0.139764
465 0.158355
470 0.188011
475 0.165391
480 0.122265
485 0.135152
490 0.159272
495 0.129747
500 0.191449
505 0.128408
510 0.147129
515 0.155106
520 0.226187
525 0.263737
530 0.250392
535 0.21276
540 0.225838
545 0.20004
550 0.230396
555 0.442783
560 0.433753
565 0.666919
570 0.895309
575 19.6841
580 493.191
585 953.727
590 288.187
595 34.048
600 5.39467
Ex : 593
200 0.217886
205 0.162251
210 0.0922605
215 0.150715
220 0.143728
225 0.215145
230 0.179106
235 0.187651
240 0.109331
245 0.158663
250 0.132394
255 0.284885
260 0.151039
265 0.199396
270 0.162254
275 0.0767583
280 0.114193
285 0.153698
290 0.143724
295 0.197861
300 0.156638
305 0.197093
310 0.196611
315 0.215124
320 0.109041
325 0.119184
330 0.103892
335 0.195661
340 0.132299
345 0.156809
350 0.129463
355 0.114147
360 0.134063
365 0.145566
370 0.135196
375 0.293384
380 0.159619
385 0.109579
390 0.17595
395 0.180455
400 0.158282
405 0.208807
410 0.279947
415 0.257462
420 0.176706
425 0.220634
430 0.242313
435 0.356011
440 0.144876
445 0.0838032
450 0.171876
455 0.188964
460 0.166638
465 0.169545
470 0.217369
475 0.294646
480 0.089799
485 0.144986
490 0.290869
495 0.158574
500 0.181323
505 0.216369
510 0.119354
515 0.233811
520 0.19248
525 0.183309
530 0.269633
535 0.274869
540 0.327378
545 0.243752
550 0.179076
555 0.283011
560 0.288455
565 0.378885
570 0.459841
575 0.89374
580 17.5838
585 434.384
590 824.834
595 246.946
600 35.5284
Ex : 598
200 0.12564
205 0.0807753
210 0.0903683
215 0.143079
220 0.132759
225 0.125631
230 0.108128
235 0.109662
240 0.0718734
245 0.200935
250 0.184806
255 0.177856
260 0.127771
265 0.150089
270 0.113282
275 0.124959
280 0.130443
285 0.13643
290 0.121338
295 0.156071
300 0.280583
305 0.162572
310 0.246068
315 0.112522
320 0.223398
325 0.186397
330 0.244249
335 0.174423
340 0.124623
345 0.149192
350 0.231444
355 0.152673
360 0.116928
365 0.160558
370 0.198541
375 0.237613
380 0.121263
385 0.13677
390 0.237959
395 0.20375
400 0.168421
405 0.243149
410 0.15926
415 0.173924
420 0.160737
425 0.233113
430 0.173268
435 0.108976
440 0.130043
445 0.107977
450 0.187573
455 0.168962
460 0.154998
465 0.208033
470 0.224907
475 0.331571
480 0.184846
485 0.152511
490 0.283267
495 0.249905
500 0.27892
505 0.135331
510 0.242369
515 0.228537
520 0.18552
525 0.162459
530 0.243053
535 0.284802
540 0.305492
545 0.255345
550 0.284664
555 0.330385
560 0.338132
565 0.669315
570 0.330839
575 0.474348
580 0.592807
585 17.3996
590 391.967
595 715.85
600 466.709
Ex : 603
200 0.0998231
205 0.138261
210 0.166629
215 0.1232
220 0.0801831
225 0.109028
230 0.0948239
235 0.11435
240 0.0951528
245 0.0941179
250 0.156162
255 0.199817
260 0.111832
265 0.166006
270 0.203707
275 0.241802
280 0.272905
285 0.104877
290 0.119678
295 0.150146
300 0.124468
305 0.161747
310 0.142761
315 0.134161
320 0.0997176
325 0.0967182
330 0.133836
335 0.0902433
340 0.124833
345 0.179346
350 0.256335
355 0.187215
360 0.218219
365 0.250192
370 0.15978
375 0.144808
380 0.221891
385 0.228061
390 0.206378
395 0.189242
400 0.201154
405 0.101172
410 0.171986
415 0.230219
420 0.163374
425 0.168074
430 0.204841
435 0.567073
440 0.174671
445 0.220464
450 0.153926
455 0.161282
460 0.172179
465 0.158283
470 0.153365
475 0.167639
480 0.17393
485 0.168282
490 0.310572
495 0.176608
500 0.28706
505 0.266146
510 0.189691
515 0.205011
520 0.216059
525 0.237212
530 0.208779
535 0.190075
540 0.243576
545 0.205414
550 0.258735
555 0.21184
560 0.19094
565 0.328708
570 0.323442
575 0.347364
580 0.545405
585 0.593157
590 14.7881
595 333.995
600 688.835
