File format V 1.0
ven. 6. janv. 05:09:07 2017
Operator : 
Comments : 

=============================================
SpectroFluorometer parameters
Mode : 3D measurement
Data : Fluorescence
Phospho. : Ordinary
Spectrum : Fluorescence

Scan speed : 2400 nm/mn
Response : 100 ms
PM Voltage : 700 V
Shutter : On

Lambda Ex. Start : 203
Lambda Ex. End : 603
Lambda Ex. Step : 5
Ex. Slit : 5 nm

Lambda Em. Start : 200
Lambda Em. End : 600
Lambda Em. Step : 5
Em. Slit : 5 nm

Repetition : 1
Decal lambda em : 10
=============================================
DATA
Ex : 203
200 5.05488
205 1.66594
210 1.88467
215 4.30681
220 3.61609
225 5.95675
230 4.83869
235 4.06629
240 4.49245
245 1.76997
250 6.69602
255 5.9503
260 4.13988
265 1.68065
270 4.09534
275 3.2804
280 1.86299
285 3.64464
290 4.49924
295 5.74865
300 3.15216
305 3.89805
310 6.23799
315 4.45498
320 3.74103
325 2.51625
330 7.75497
335 3.11267
340 3.57018
345 2.03189
350 6.67952
355 4.67746
360 4.87753
365 6.02434
370 3.68124
375 5.74721
380 4.55444
385 5.09431
390 6.59285
395 4.39797
400 4.11479
405 1.95128
410 4.25734
415 4.52162
420 3.65817
425 6.3226
430 3.85186
435 3.00673
440 2.28476
445 5.70705
450 5.70771
455 4.50614
460 3.26061
465 4.16203
470 3.86985
475 4.85343
480 1.72994
485 5.37386
490 2.78359
495 3.6342
500 2.63196
505 3.34472
510 1.97688
515 2.88357
520 4.98071
525 2.30735
530 5.41917
535 3.39311
540 3.66623
545 3.93516
550 3.76373
555 3.76108
560 6.33412
565 2.74799
570 5.75976
575 1.92065
580 2.15584
585 2.58115
590 1.92459
595 4.5891
600 2.73773
Ex : 208
200 2.38255
205 2.55544
210 4.07299
215 2.20004
220 1.31872
225 1.36103
230 5.74869
235 3.70898
240 1.55533
245 3.8569
250 3.51257
255 4.19198
260 1.63845
265 6.48834
270 3.67532
275 5.65655
280 2.76131
285 3.26624
290 3.77839
295 4.05232
300 1.71859
305 3.82399
310 1.24128
315 5.64162
320 2.39912
325 4.93639
330 3.1912
335 6.25612
340 5.94177
345 3.32409
350 3.28845
355 4.35321
360 7.92417
365 7.51641
370 6.75616
375 3.58907
380 3.73723
385 3.12921
390 2.16053
395 3.11547
400 2.62992
405 6.18045
410 6.0905
415 6.31831
420 3.8343
425 2.4469
430 3.32193
435 3.95449
440 2.11233
445 1.88091
450 2.47878
455 4.55247
460 5.3719
465 3.41667
470 6.16256
475 2.30588
480 2.06911
485 3.9084
490 4.94351
495 6.89258
500 2.73738
505 2.26764
510 6.50396
515 3.52152
520 3.14044
525 2.72463
530 5.52138
535 4.74624
540 6.21718
545 1.37996
550 1.90871
555 5.38488
560 4.84497
565 5.39055
570 3.91655
575 5.56795
580 2.99313
585 3.4836
590 7.71954
595 2.87381
600 10.0753
Ex : 213
200 4.55952
205 4.21439
210 3.19931
215 2.45023
220 1.8364
225 5.67478
230 3.98866
235 1.26809
240 3.83502
245 2.64927
250 4.00535
255 3.44203
260 5.13842
265 6.07308
270 2.22643
275 3.07671
280 1.98288
285 2.44941
290 3.97812
295 2.02445
300 2.19392
305 5.75639
310 2.94487
315 1.7119
320 1.25379
325 4.03001
330 3.21804
335 2.39181
340 3.53549
345 3.14726
350 1.9134
355 3.68826
360 3.10164
365 2.7411
370 6.07225
375 4.24662
380 3.11998
385 2.57861
390 4.15682
395 2.50714
400 3.87475
405 6.44683
410 4.65992
415 4.06429
420 6.64229
425 3.31222
430 2.63413
435 4.84295
440 4.88426
445 3.75758
450 5.12734
455 3.79596
460 2.75825
465 4.98412
470 1.89108
475 3.77123
480 7.84433
485 2.54901
490 4.49687
495 3.04133
500 6.40902
505 4.86679
510 3.64947
515 6.14376
520 1.76148
525 5.32862
530 4.2943
535 4.25376
540 3.34554
545 1.92493
550 2.04983
555 3.53841
560 4.06149
565 2.40522
570 3.80701
575 3.35824
580 1.92898
585 3.24688
590 2.48037
595 5.34077
600 0.60776
Ex : 218
200 3.21143
205 2.50143
210 3.63316
215 3.21606
220 3.83213
225 4.65195
230 5.20656
235 2.58247
240 2.31186
245 3.75386
250 2.07664
255 4.2691
260 1.55886
265 0.959947
270 2.01511
275 1.99635
280 5.6416
285 7.80595
290 1.86148
295 1.78947
300 1.4976
305 1.8425
310 4.33808
315 3.6757
320 3.55323
325 2.99811
330 2.5087
335 4.54929
340 4.67807
345 4.74181
350 3.63866
355 8.35748
360 3.17764
365 3.31938
370 3.71207
375 1.7781
380 3.59761
385 3.13741
390 3.70849
395 4.64393
400 4.01823
405 5.06346
410 8.5028
415 2.7767
420 2.52106
425 4.43168
430 3.37267
435 3.35651
440 5.23276
445 3.38221
450 5.60306
455 3.06951
460 4.86324
465 8.22511
470 3.87885
475 5.38162
480 2.10721
485 1.43909
490 2.3191
495 1.37579
500 2.01555
505 2.88797
510 4.23599
515 3.1743
520 5.25176
525 2.75775
530 5.17514
535 4.7209
540 3.41223
545 2.88322
550 6.54367
555 5.15915
560 2.96254
565 2.49529
570 5.05961
575 4.22692
580 2.5276
585 3.33177
590 4.21936
595 2.73836
600 0.311616
Ex : 223
200 4.54335
205 2.12877
210 3.09603
215 4.57396
220 3.47097
225 4.1063
230 3.54814
235 3.15915
240 3.12889
245 5.55408
250 2.31954
255 3.26509
260 2.00173
265 0.906694
270 3.87508
275 2.93471
280 4.47476
285 1.89093
290 3.56824
295 4.04389
300 3.25676
305 2.92287
310 4.02254
315 1.74122
320 4.63411
325 6.39072
330 3.96647
335 3.37217
340 4.64068
345 2.6251
350 3.242
355 6.11929
360 7.76007
365 3.10133
370 6.83328
375 4.43142
380 2.41178
385 4.42562
390 6.13129
395 5.18483
400 2.81099
405 1.56266
410 3.07951
415 2.8222
420 4.58767
425 3.87921
430 8.03361
435 5.48571
440 7.88005
445 3.8217
450 2.30398
455 3.25996
460 2.91679
465 5.90827
470 2.77707
475 2.8312
480 3.70444
485 2.16286
490 2.61112
495 5.78653
500 4.04821
505 3.72083
510 4.74602
515 2.01199
520 4.58178
525 2.88969
530 1.95086
535 6.66175
540 4.90444
545 4.02586
550 2.89917
555 1.98717
560 3.61424
565 1.6591
570 3.36991
575 2.36377
580 1.82913
585 6.13636
590 4.22297
595 5.52923
600 0.629206
Ex : 228
200 5.81006
205 3.68648
210 3.08318
215 2.33869
220 3.93976
225 2.73809
230 3.10729
235 1.65597
240 6.3664
245 2.19453
250 2.61598
255 2.28063
260 2.45731
265 1.79955
270 2.33673
275 4.22807
280 4.32636
285 2.06428
290 2.6847
295 8.31783
300 7.70446
305 4.22739
310 3.38818
315 1.51931
320 2.71827
325 3.68733
330 2.38305
335 4.82131
340 4.84963
345 2.56325
350 2.6257
355 4.7133
360 4.96251
365 2.05804
370 2.7065
375 5.05298
380 3.1265
385 3.41995
390 3.87069
395 1.98605
400 1.18406
405 6.33817
410 5.20151
415 3.60878
420 4.91513
425 3.74687
430 3.56753
435 5.01027
440 4.08683
445 3.84777
450 1.90671
455 3.3849
460 2.12215
465 3.88263
470 2.86698
475 2.32862
480 2.00195
485 1.92851
490 3.41268
495 2.59877
500 5.35904
505 2.82298
510 4.18328
515 3.40291
520 4.06524
525 3.57151
530 3.37751
535 2.93158
540 3.15194
545 2.06997
550 4.05523
555 4.19762
560 2.72727
565 3.75884
570 2.49046
575 5.7244
580 2.1251
585 3.39831
590 3.25508
595 3.86939
600 0.440322
Ex : 233
200 1.89394
205 0.945338
210 1.19318
215 1.83822
220 3.56882
225 2.38303
230 4.55289
235 7.138
240 2.70191
245 3.0212
250 1.11102
255 4.20821
260 2.60084
265 3.86968
270 2.38246
275 3.05823
280 4.95627
285 2.77717
290 1.35615
295 5.75242
300 4.69933
305 2.49084
310 3.26091
315 3.21992
320 2.90357
325 2.92933
330 4.57446
335 3.68699
340 2.58939
345 2.57145
350 3.19459
355 1.40191
360 5.26639
365 3.11556
370 4.43382
375 3.46016
380 3.08111
385 4.08223
390 4.53093
395 2.0879
400 2.67114
405 4.43063
410 4.81898
415 4.81588
420 3.11802
425 1.52705
430 6.79622
435 5.40997
440 2.82151
445 5.35978
450 2.27326
455 2.83542
460 3.38845
465 4.24319
470 4.88053
475 4.67623
480 2.89683
485 2.16206
490 4.60709
495 4.81251
500 3.57063
505 3.45024
510 2.06607
515 4.43554
520 2.98707
525 2.40612
530 4.30896
535 2.24369
540 2.77401
545 1.61775
550 2.34935
555 5.48505
560 5.668
565 6.48155
570 2.38807
575 2.3888
580 2.06206
585 1.0351
590 2.38044
595 1.77338
600 0.201804
Ex : 238
200 2.12664
205 1.46214
210 4.66938
215 3.73989
220 2.23827
225 1.8132
230 1.9509
235 3.64729
240 3.87086
245 1.26339
250 3.16923
255 1.20021
260 1.55118
265 2.28029
270 1.43971
275 1.68487
280 1.13591
285 2.73818
290 1.75497
295 1.50295
300 3.61832
305 1.32201
310 1.91468
315 3.93266
320 1.86857
325 3.07774
330 2.29307
335 2.39252
340 2.99503
345 2.60704
350 3.53928
355 3.77033
360 5.34464
365 2.50893
370 2.42781
375 1.80699
380 2.30731
385 1.53463
390 2.18873
395 1.28435
400 2.16142
405 2.19561
410 2.57086
415 4.26519
420 3.43801
425 2.95874
430 3.20209
435 2.83891
440 5.6152
445 5.3763
450 4.78903
455 2.05574
460 2.06571
465 1.36067
470 3.33598
475 1.6298
480 3.10203
485 2.96435
490 3.13822
495 2.19487
500 6.09625
505 6.46949
510 2.80694
515 2.17839
520 2.10014
525 1.33953
530 2.82318
535 3.62842
540 3.40333
545 3.06278
550 4.40322
555 2.57287
560 2.40865
565 2.46928
570 4.11277
575 2.48856
580 7.73518
585 5.96981
590 2.43479
595 2.63623
600 0.299993
Ex : 243
200 3.18219
205 2.82337
210 3.65297
215 2.33046
220 1.81164
225 2.81202
230 1.96382
235 1.37452
240 1.86856
245 2.64498
250 2.96994
255 1.66911
260 1.10157
265 1.33031
270 1.58924
275 3.44353
280 2.73115
285 2.19618
290 1.48213
295 1.16019
300 2.03905
305 3.91835
310 3.16245
315 1.54148
320 1.40773
325 0.886534
330 4.52815
335 3.18521
340 3.24638
345 3.08615
350 3.12462
355 0.64056
360 2.80108
365 2.55227
370 2.39606
375 1.11987
380 3.38716
385 2.96032
390 2.57606
395 1.52419
400 2.53785
405 2.55479
410 2.42738
415 4.76633
420 1.80689
425 2.2792
430 2.84679
435 2.12168
440 1.51295
445 3.76381
450 2.68044
455 2.22935
460 4.78399
465 4.22611
470 3.19538
475 3.23506
480 2.74594
485 2.78509
490 3.75555
495 2.77423
500 4.47207
505 2.64303
510 2.69314
515 1.23438
520 1.04939
525 1.95973
530 1.91584
535 1.66913
540 1.88054
545 3.57863
550 2.59793
555 3.50493
560 2.13257
565 1.8979
570 3.1143
575 1.16474
580 1.76428
585 3.84897
590 2.30767
595 2.30688
600 7.49984
Ex : 248
200 1.82192
205 2.72775
210 3.0817
215 0.857088
220 1.69635
225 2.6595
230 3.69198
235 2.35339
240 1.53635
245 1.50874
250 1.07914
255 2.64791
260 1.19059
265 1.88742
270 0.730956
275 3.53054
280 1.56178
285 3.95747
290 2.76629
295 1.24874
300 1.80178
305 1.63566
310 1.47375
315 1.9957
320 2.5834
325 1.18917
330 2.58943
335 2.85612
340 2.80884
345 4.10258
350 2.74898
355 1.5784
360 3.00956
365 1.30455
370 2.11813
375 1.99852
380 3.40427
385 3.57402
390 5.02984
395 1.70106
400 1.74592
405 1.90758
410 2.62837
415 2.23211
420 1.27027
425 1.33307
430 1.74209
435 2.14162
440 2.55918
445 1.05257
450 2.04445
455 1.11014
460 2.21801
465 2.75071
470 2.1372
475 1.41586
480 3.61556
485 0.904788
490 2.47726
495 3.15526
500 3.0606
505 1.68216
510 3.40509
515 2.01763
520 2.51243
525 2.16205
530 2.70014
535 3.30046
540 1.0388
545 1.4035
550 2.57949
555 3.20663
560 1.63732
565 1.26743
570 1.85509
575 1.48261
580 2.16418
585 1.3594
590 1.76842
595 2.91953
600 0.332231
Ex : 253
200 0.595628
205 2.1902
210 2.19216
215 1.81435
220 1.42653
225 1.41186
230 1.40963
235 1.67824
240 2.21764
245 1.34399
250 1.74714
255 1.59321
260 1.67195
265 1.87056
270 1.96809
275 2.03424
280 1.91431
285 2.82749
290 1.17164
295 1.32148
300 2.43728
305 1.66045
310 1.2534
315 0.755009
320 1.44782
325 1.83539
330 1.28163
335 1.73659
340 2.35298
345 1.88874
350 1.26182
355 1.51528
360 1.18314
365 1.70406
370 1.02962
375 1.33066
380 2.02589
385 1.57976
390 1.6738
395 2.70138
400 2.71282
405 1.12635
410 1.89569
415 1.68436
420 2.77322
425 2.49173
430 0.890809
435 1.81535
440 2.22571
445 1.54119
450 1.25293
455 4.38299
460 1.35206
465 3.38217
470 3.35064
475 2.43622
480 4.1553
485 1.9457
490 1.75701
495 1.58809
500 4.31553
505 1.75564
510 3.07812
515 1.10847
520 1.73918
525 1.27134
530 1.16307
535 2.64705
540 3.05944
545 2.72337
550 1.12331
555 1.78273
560 1.32358
565 0.479851
570 0.542265
575 2.13979
580 2.60269
585 2.37322
590 1.90048
595 2.17628
600 0.247653
Ex : 258
200 1.35667
205 1.64375
210 1.42735
215 1.44791
220 0.900667
225 1.3363
230 1.0264
235 2.92085
240 1.43819
245 0.759079
250 1.02003
255 1.15132
260 2.06455
265 0.698581
270 0.883573
275 1.24359
280 0.877777
285 1.70674
290 1.13844
295 1.02731
300 1.68737
305 1.19313
310 0.742331
315 1.25574
320 1.29907
325 0.822645
330 0.881795
335 2.0245
340 1.44552
345 1.24102
350 1.66352
355 1.18022
360 1.13081
365 0.819653
370 2.02067
375 2.33219
380 1.86919
385 2.4203
390 2.04589
395 1.66362
400 1.53304
405 1.25716
410 2.14203
415 1.19504
420 1.89855
425 1.16223
430 0.802314
435 2.56127
440 2.32235
445 1.116
450 2.20631
455 1.60874
460 1.86844
465 1.50147
470 1.14137
475 0.566916
480 2.4382
485 1.62637
490 1.66142
495 1.24685
500 1.88214
505 2.2639
510 0.869945
515 0.711318
520 0.519262
525 1.36199
530 1.48131
535 1.35995
540 1.324
545 0.946608
550 0.972915
555 2.65611
560 1.6976
565 1.19978
570 1.21334
575 1.31582
580 0.656137
585 2.2687
590 2.07508
595 0.850414
600 0.0967739
Ex : 263
200 1.38151
205 0.989659
210 1.01267
215 0.84896
220 1.10722
225 0.82014
230 0.417134
235 1.24165
240 1.14303
245 0.987245
250 1.25893
255 1.08251
260 1.3648
265 0.692494
270 0.564786
275 1.38131
280 0.811685
285 1.97458
290 1.7012
295 0.701518
300 1.6602
305 1.49306
310 0.805296
315 0.476277
320 1.3019
325 1.34332
330 1.16633
335 0.795503
340 1.01128
345 1.06771
350 1.29031
355 0.878518
360 1.01211
365 1.13933
370 0.835892
375 2.05732
380 0.899149
385 0.760512
390 0.796121
395 0.78208
400 1.24565
405 0.864626
410 1.44355
415 2.07348
420 1.15736
425 1.35427
430 1.62702
435 1.02937
440 0.651268
445 0.752972
450 1.66232
455 1.63628
460 1.54464
465 1.37387
470 1.48191
475 1.52006
480 2.85895
485 1.71022
490 1.7391
495 0.75159
500 1.36577
505 0.888359
510 0.934456
515 0.945257
520 1.08194
525 1.24697
530 1.57764
535 1.81665
540 0.911766
545 1.30516
550 0.704302
555 0.807488
560 1.32506
565 0.779077
570 0.632602
575 0.798584
580 1.74672
585 0.769777
590 0.325546
595 0.836007
600 0.0951344
Ex : 268
200 0.920424
205 0.872704
210 0.432236
215 0.665003
220 0.634553
225 0.718475
230 0.981119
235 0.802486
240 0.913534
245 1.00798
250 0.654809
255 0.363102
260 0.493539
265 0.39637
270 0.759126
275 1.08593
280 1.40767
285 0.787072
290 0.442606
295 1.09748
300 0.59048
305 0.996279
310 0.751487
315 0.854674
320 0.755858
325 0.590171
330 0.464549
335 0.50496
340 0.73444
345 0.800005
350 0.709095
355 1.08392
360 1.02662
365 0.845427
370 0.636575
375 1.01297
380 1.13173
385 0.791948
390 1.58491
395 0.940645
400 1.97927
405 1.34377
410 1.65754
415 0.911293
420 1.12679
425 1.17285
430 1.37536
435 0.719161
440 0.948802
445 1.01915
450 1.56756
455 0.986638
460 1.10336
465 0.544579
470 0.809283
475 1.61853
480 1.44113
485 1.11298
490 0.644595
495 1.46305
500 0.839237
505 1.38798
510 0.904543
515 0.542423
520 0.815817
525 0.604758
530 0.507713
535 1.30966
540 1.21766
545 0.815678
550 1.29878
555 0.716483
560 1.11644
565 0.847313
570 0.406951
575 1.57121
580 1.50929
585 1.21223
590 0.366953
595 0.488433
600 0.0555818
Ex : 273
200 0.61859
205 0.60599
210 0.528437
215 0.652867
220 0.562966
225 0.998067
230 0.478541
235 1.26389
240 1.11033
245 0.751226
250 0.465982
255 0.455847
260 0.48779
265 0.592631
270 0.349281
275 0.263944
280 0.327039
285 0.205322
290 1.01925
295 1.03215
300 0.83527
305 0.494276
310 0.433004
315 0.869229
320 0.986096
325 0.995486
330 0.643035
335 0.473643
340 0.818544
345 1.08721
350 0.921592
355 1.04719
360 0.39821
365 0.778395
370 1.10882
375 0.608593
380 0.756476
385 0.77354
390 0.803546
395 0.881969
400 1.34686
405 1.33044
410 0.555717
415 0.756447
420 1.21309
425 1.42689
430 0.827028
435 0.684593
440 1.02526
445 1.56067
450 0.924077
455 1.35843
460 0.969931
465 0.837767
470 0.793644
475 0.991764
480 1.19783
485 0.601973
490 0.565284
495 0.725372
500 0.922157
505 0.542678
510 0.560429
515 0.646137
520 1.11943
525 1.19678
530 0.307023
535 0.929887
540 1.30287
545 0.692134
550 0.479989
555 0.785166
560 0.968758
565 1.02374
570 0.776088
575 0.619464
580 0.433914
585 1.48064
590 1.03736
595 0.882653
600 0.100443
Ex : 278
200 0.396444
205 0.400556
210 0.321984
215 0.568522
220 0.329611
225 0.199992
230 0.674542
235 0.48608
240 0.472627
245 0.817452
250 0.475089
255 0.347618
260 0.726445
265 0.303226
270 0.429349
275 0.485675
280 0.429248
285 0.334463
290 0.740558
295 0.727485
300 0.444356
305 0.31834
310 0.580358
315 0.29077
320 0.62127
325 0.740292
330 0.484386
335 0.459091
340 0.710385
345 0.748061
350 0.415389
355 0.469422
360 0.827063
365 0.729508
370 0.720572
375 0.788889
380 0.515621
385 0.668334
390 0.502569
395 0.693704
400 1.13255
405 1.01352
410 0.680142
415 0.861621
420 1.20284
425 0.919613
430 0.842487
435 0.943545
440 0.942525
445 0.609998
450 0.757286
455 0.435384
460 0.928627
465 0.695948
470 0.746604
475 0.793291
480 0.711407
485 0.489366
490 0.628882
495 0.713489
500 0.231396
505 0.555845
510 0.447327
515 0.350544
520 0.605076
525 0.456569
530 0.419018
535 0.363111
540 0.234177
545 0.426666
550 0.452021
555 0.451685
560 0.928184
565 0.607832
570 0.353438
575 0.810187
580 0.478289
585 0.197389
590 0.469527
595 0.317068
600 0.0360811
Ex : 283
200 0.212936
205 0.422105
210 0.349666
215 0.426486
220 0.514374
225 0.212628
230 0.258374
235 0.401582
240 0.253136
245 0.269375
250 0.656171
255 0.356942
260 0.242588
265 0.303765
270 0.688624
275 0.643564
280 0.446716
285 0.352105
290 0.283531
295 0.453649
300 0.235787
305 0.155935
310 0.480169
315 0.441266
320 0.441033
325 0.247336
330 0.441532
335 0.626179
340 0.660766
345 0.72712
350 0.27448
355 0.863473
360 0.677726
365 0.611586
370 0.739172
375 0.463352
380 0.331305
385 1.28461
390 0.62567
395 0.817578
400 0.592096
405 0.684976
410 0.760292
415 0.400098
420 0.801696
425 0.933807
430 0.775183
435 0.635707
440 0.945
445 0.903352
450 0.639495
455 0.81747
460 0.841331
465 0.362708
470 0.631858
475 0.500669
480 0.553013
485 0.796697
490 0.469712
495 0.649086
500 0.397429
505 0.308094
510 0.333064
515 0.940468
520 0.498358
525 0.5186
530 0.872129
535 0.387393
540 0.436856
545 0.332308
550 0.594223
555 0.459244
560 0.677854
565 1.25245
570 0.82387
575 0.530271
580 0.596217
585 0.270464
590 0.291272
595 0.451142
600 0.0513382
Ex : 288
200 0.290244
205 0.306629
210 0.389046
215 0.264577
220 0.53165
225 0.303317
230 0.530768
235 0.238398
240 0.22952
245 0.438766
250 0.365647
255 0.284775
260 0.210191
265 0.287429
270 0.191632
275 0.291068
280 0.176023
285 0.233698
290 0.525795
295 0.328773
300 0.33318
305 0.286721
310 0.184116
315 0.527354
320 0.528184
325 0.821401
330 0.456959
335 0.205245
340 0.64933
345 0.557874
350 0.312746
355 0.407957
360 0.830311
365 0.725306
370 0.390186
375 0.551886
380 0.834289
385 0.722529
390 0.480386
395 0.601508
400 0.735403
405 0.761692
410 0.559174
415 0.789346
420 0.701399
425 0.477458
430 1.05743
435 0.701245
440 0.751923
445 0.693124
450 0.856873
455 0.896126
460 0.53989
465 0.551829
470 0.595716
475 0.48325
480 0.571217
485 0.456135
490 0.331241
495 1.10978
500 0.408735
505 0.343
510 0.464827
515 0.52248
520 0.459202
525 0.518707
530 0.293449
535 0.790042
540 0.504722
545 0.37999
550 0.280218
555 0.207726
560 0.34057
565 0.375945
570 0.756637
575 0.476252
580 0.574982
585 0.386646
590 0.419749
595 0.617314
600 0.070248
Ex : 293
200 0.470284
205 0.15884
210 0.19374
215 0.240481
220 0.105832
225 0.156739
230 0.15302
235 0.369125
240 0.16662
245 0.366301
250 0.25012
255 0.198053
260 0.527484
265 0.297218
270 0.216778
275 0.236175
280 0.18373
285 0.19592
290 0.335674
295 0.397044
300 0.283046
305 0.589172
310 0.384908
315 0.310496
320 0.203935
325 0.464466
330 0.586915
335 0.315686
340 0.270983
345 0.818214
350 0.352304
355 0.830189
360 0.635246
365 0.728033
370 0.784851
375 0.649192
380 0.672599
385 0.389371
390 0.973776
395 0.603096
400 0.299229
405 0.482514
410 0.764794
415 0.644601
420 0.598391
425 0.630385
430 0.822961
435 0.436204
440 0.939994
445 0.462382
450 0.526493
455 0.606046
460 0.628212
465 0.429927
470 0.310199
475 0.383551
480 0.714425
485 0.33912
490 0.585979
495 0.599054
500 0.653697
505 0.300663
510 0.30086
515 0.24568
520 0.481203
525 0.423894
530 0.40756
535 0.65916
540 0.337691
545 0.299184
550 0.388899
555 0.34383
560 0.225502
565 0.22646
570 0.340916
575 0.523272
580 0.328178
585 0.314313
590 0.247646
595 0.419825
600 2.89101
Ex : 298
200 0.277728
205 0.410146
210 0.211437
215 0.370259
220 0.172576
225 0.216172
230 0.367724
235 0.214218
240 0.0883426
245 0.281051
250 0.257044
255 0.43178
260 0.191654
265 0.292116
270 0.221685
275 0.284574
280 0.336225
285 0.201297
290 0.227229
295 0.184123
300 0.156735
305 0.154516
310 0.384821
315 0.156451
320 0.206614
325 0.257249
330 0.38198
335 0.538851
340 0.354036
345 0.358704
350 0.601763
355 0.314779
360 0.421319
365 0.378224
370 0.666203
375 0.611712
380 0.470436
385 0.990919
390 0.586186
395 0.503964
400 0.470058
405 0.926098
410 0.54949
415 0.50202
420 0.573607
425 0.594518
430 0.471499
435 0.473076
440 0.746421
445 0.588923
450 0.349136
455 0.352104
460 0.245043
465 0.435915
470 0.638929
475 0.315383
480 0.258344
485 0.224195
490 0.18995
495 0.253659
500 0.296406
505 0.378498
510 0.404339
515 0.547066
520 0.409029
525 0.273986
530 0.299138
535 0.261671
540 0.259459
545 0.384249
550 0.374694
555 0.226005
560 0.398941
565 0.337329
570 0.182475
575 0.0943443
580 0.282607
585 0.290752
590 0.698849
595 0.315686
600 0.0359239
Ex : 303
200 0.203891
205 0.271771
210 0.365103
215 0.222327
220 0.178742
225 0.141107
230 0.276849
235 0.121364
240 0.238658
245 0.273691
250 0.142872
255 0.203884
260 0.344476
265 0.225313
270 0.305276
275 0.214798
280 0.328719
285 0.139234
290 0.0915882
295 0.478313
300 0.415131
305 0.329324
310 0.306918
315 0.382966
320 0.35187
325 0.228507
330 0.306611
335 0.232899
340 0.363544
345 0.342858
350 0.69863
355 0.409332
360 0.38133
365 0.427796
370 0.340282
375 0.391882
380 0.422013
385 0.531657
390 0.413939
395 0.492472
400 0.590182
405 0.414025
410 0.46895
415 0.572636
420 0.412667
425 0.590656
430 0.457269
435 0.45681
440 0.274492
445 0.359575
450 0.375158
455 0.668227
460 0.45185
465 0.42534
470 0.367546
475 0.416557
480 0.517527
485 0.311549
490 0.316848
495 0.2117
500 0.547271
505 0.578648
510 0.328902
515 0.377796
520 0.330353
525 0.306244
530 0.250412
535 0.330271
540 0.444383
545 0.141902
550 0.110285
555 0.473585
560 0.26954
565 0.202731
570 0.163671
575 0.360165
580 0.329702
585 0.194642
590 0.384766
595 0.381648
600 0.0434301
Ex : 308
200 0.42528
205 0.152993
210 0.12875
215 0.20305
220 0.242072
225 0.354236
230 0.38184
235 0.248077
240 0.170531
245 0.334973
250 0.248903
255 0.249118
260 0.226434
265 0.187729
270 0.115762
275 0.191687
280 0.155866
285 0.219907
290 0.219995
295 0.218702
300 0.168914
305 0.257897
310 0.291222
315 0.21539
320 0.18174
325 0.351079
330 0.397859
335 0.386401
340 0.567056
345 0.390259
350 0.400347
355 0.336713
360 0.385687
365 0.358882
370 0.475461
375 0.518134
380 0.598798
385 0.444362
390 0.578337
395 0.475418
400 0.528711
405 0.611507
410 0.604104
415 0.616017
420 0.66587
425 0.504847
430 0.455967
435 0.362497
440 0.338673
445 0.416779
450 0.321046
455 0.394162
460 0.256792
465 0.313413
470 0.489663
475 0.358152
480 0.371912
485 0.17831
490 0.34263
495 0.454055
500 0.3835
505 0.309592
510 0.264505
515 0.301796
520 0.215716
525 0.233731
530 0.440383
535 0.180492
540 0.351491
545 0.291768
550 0.306418
555 0.410945
560 0.143137
565 0.229026
570 0.161631
575 0.217312
580 0.272403
585 0.213434
590 0.161933
595 0.168662
600 0.0191931
Ex : 313
200 0.143495
205 0.187007
210 0.113333
215 0.133308
220 0.163003
225 0.198875
230 0.130921
235 0.163351
240 0.156633
245 0.140974
250 0.215511
255 0.14654
260 0.123158
265 0.18184
270 0.177409
275 0.250192
280 0.14922
285 0.193535
290 0.227347
295 0.169013
300 0.201066
305 0.273998
310 0.29214
315 0.241093
320 0.266532
325 0.364737
330 0.357151
335 0.417604
340 0.593364
345 0.393711
350 0.482202
355 0.442802
360 0.41933
365 0.488568
370 0.546332
375 0.633966
380 0.777066
385 0.922014
390 1.01323
395 1.06965
400 0.806649
405 0.830649
410 0.974655
415 0.989149
420 0.941642
425 0.85606
430 0.955059
435 0.980262
440 0.669293
445 1.0274
450 0.722829
455 0.64933
460 0.520173
465 0.534343
470 0.691609
475 0.683331
480 0.612195
485 0.486703
490 0.355478
495 0.618987
500 0.424337
505 0.295285
510 0.470429
515 0.442437
520 0.305739
525 0.216339
530 0.299564
535 0.220996
540 0.157159
545 0.275665
550 0.17779
555 0.276464
560 0.197474
565 0.226551
570 0.24057
575 0.138151
580 0.127299
585 0.164088
590 0.106947
595 0.156145
600 0.0177687
Ex : 318
200 0.0905241
205 0.135245
210 0.149706
215 0.419042
220 0.234702
225 0.149188
230 0.0982582
235 0.185081
240 0.184117
245 0.380935
250 0.164604
255 0.0945157
260 0.155389
265 0.0744544
270 0.100555
275 0.0932828
280 0.0798019
285 0.155561
290 0.322475
295 0.257544
300 0.093703
305 0.111761
310 0.226352
315 1.37905
320 0.887009
325 0.559848
330 0.628107
335 0.878693
340 1.40486
345 1.26184
350 2.00993
355 2.71235
360 3.15051
365 4.13395
370 5.42056
375 6.32104
380 7.2553
385 7.84671
390 8.88747
395 9.76221
400 9.92191
405 10.1696
410 9.92657
415 10.2587
420 9.60821
425 8.88242
430 8.40763
435 8.41358
440 8.93233
445 7.60911
450 7.02755
455 6.78294
460 6.49486
465 5.89874
470 5.89298
475 4.45562
480 4.26031
485 4.15679
490 3.65029
495 2.68913
500 2.1636
505 2.37754
510 1.80885
515 1.67061
520 1.28356
525 1.34309
530 0.944168
535 1.02045
540 0.83689
545 0.692201
550 0.548117
555 0.49415
560 0.510338
565 0.38503
570 0.414508
575 0.225828
580 0.190573
585 0.214381
590 0.20837
595 0.240877
600 0.0274108
Ex : 323
200 0.100023
205 0.140163
210 0.2207
215 0.121308
220 0.182585
225 0.0950975
230 0.198203
235 0.0643469
240 0.0985215
245 0.137601
250 0.181574
255 0.126277
260 0.201455
265 0.162852
270 0.0581247
275 0.0562651
280 0.220314
285 0.204835
290 0.0960042
295 0.156355
300 0.103975
305 0.139121
310 0.117496
315 14.4448
320 64.3915
325 27.3637
330 4.91049
335 3.54126
340 4.2141
345 5.93143
350 8.70488
355 12.2096
360 14.485
365 18.0074
370 20.956
375 23.813
380 27.2349
385 31.197
390 33.0116
395 35.4775
400 37.9851
405 37.6358
410 38.0153
415 37.2181
420 36.51
425 33.9849
430 32.7052
435 31.4477
440 30.0232
445 28.5822
450 27.3434
455 25.6908
460 24.3227
465 21.8351
470 20.3136
475 18.2552
480 16.9616
485 15.1657
490 13.5938
495 12.6531
500 10.8908
505 9.5171
510 8.66565
515 6.76323
520 6.08101
525 5.22002
530 4.0968
535 3.78462
540 3.40432
545 2.88547
550 2.28512
555 1.79615
560 1.46833
565 1.12877
570 0.965826
575 0.729912
580 0.425075
585 0.484414
590 0.505089
595 0.327373
600 0.0548024
Ex : 328
200 0.0984641
205 0.185432
210 0.0943038
215 0.120555
220 0.131552
225 0.118986
230 0.270238
235 0.0726913
240 0.0959039
245 0.141004
250 0.144576
255 0.0870903
260 0.112114
265 0.15801
270 0.160471
275 0.126385
280 0.118442
285 0.290974
290 0.125173
295 0.141467
300 0.0921342
305 0.225213
310 0.207316
315 3.45515
320 148.805
325 348.478
330 102.068
335 15.8751
340 6.96487
345 7.42152
350 9.58579
355 13.6093
360 17.8053
365 19.7476
370 23.2099
375 25.2094
380 28.621
385 32.178
390 35.9098
395 37.0908
400 37.5097
405 38.5293
410 40.3494
415 38.9198
420 37.5895
425 36.1231
430 34.2721
435 32.8744
440 30.9524
445 29.2649
450 27.1411
455 25.6955
460 23.4407
465 21.7427
470 20.5619
475 19.0165
480 16.1896
485 15.4363
490 14.426
495 11.9163
500 11.0381
505 9.3163
510 8.51613
515 7.70418
520 6.77561
525 5.55912
530 4.27639
535 3.72331
540 3.28246
545 2.65675
550 2.53164
555 2.15467
560 2.00296
565 1.49936
570 1.15548
575 0.991383
580 0.654102
585 0.474039
590 0.353225
595 0.371365
600 0.722738
Ex : 333
200 0.191644
205 0.0949275
210 0.1978
215 0.200746
220 0.216605
225 0.279509
230 0.0850591
235 0.0671713
240 0.186388
245 0.115567
250 0.134659
255 0.14163
260 0.160475
265 0.153928
270 0.139236
275 0.103779
280 0.184598
285 0.140448
290 0.172604
295 0.133548
300 0.21008
305 0.300973
310 0.193901
315 0.262917
320 19.3158
325 404.638
330 677.401
335 174.211
340 24.6371
345 7.79862
350 6.40579
355 7.07892
360 9.83111
365 14.2415
370 15.3954
375 15.1148
380 15.9407
385 18.8495
390 21.236
395 22.6857
400 21.8776
405 22.1861
410 23.0969
415 23.3303
420 22.5075
425 21.4805
430 20.546
435 18.8115
440 17.2811
445 16.7251
450 16.1069
455 14.3861
460 13.3815
465 12.3396
470 11.3949
475 11.0087
480 9.57973
485 8.57398
490 7.89612
495 7.03151
500 6.56204
505 5.50316
510 4.66035
515 4.05405
520 3.82122
525 3.0577
530 2.57329
535 2.10951
540 1.80673
545 2.01503
550 1.45102
555 1.20017
560 1.09361
565 0.867435
570 0.844806
575 0.782913
580 0.681275
585 0.616448
590 0.368416
595 0.337153
600 0.0383667
Ex : 338
200 0.114993
205 0.13027
210 0.087015
215 0.0570521
220 0.127452
225 0.163403
230 0.15022
235 0.167341
240 0.102207
245 0.11854
250 0.161711
255 0.056716
260 0.128565
265 0.195434
270 0.246152
275 0.20805
280 0.253025
285 0.159471
290 0.12797
295 0.252538
300 0.108069
305 0.107483
310 0.12956
315 0.229341
320 0.431108
325 37.4615
330 593.361
335 870.912
340 211.022
345 27.7329
350 7.2536
355 4.53996
360 3.68454
365 5.86993
370 10.0346
375 10.6164
380 9.7438
385 10.4312
390 12.4584
395 13.4526
400 13.2179
405 13.5255
410 13.8924
415 14.793
420 14.0878
425 12.9231
430 12.1809
435 11.0087
440 11.1506
445 10.1589
450 9.42302
455 8.63371
460 8.05291
465 7.21511
470 6.97683
475 6.33255
480 5.70163
485 5.07563
490 4.78457
495 3.8582
500 3.75639
505 3.0555
510 2.99536
515 2.80066
520 2.56482
525 2.09947
530 1.55658
535 1.58369
540 1.31386
545 1.03182
550 1.07119
555 0.964148
560 0.851395
565 0.783059
570 0.725696
575 0.615457
580 0.462661
585 0.384098
590 0.38452
595 0.349699
600 0.572801
Ex : 343
200 0.179568
205 0.104119
210 0.0751587
215 0.0868825
220 0.135242
225 0.178342
230 0.108204
235 0.102705
240 0.118265
245 0.158538
250 0.144277
255 0.164261
260 0.13902
265 0.125709
270 0.144109
275 0.136334
280 0.161372
285 0.122363
290 0.143381
295 0.144642
300 0.160423
305 0.172403
310 0.224127
315 0.198155
320 0.359546
325 0.697622
330 43.286
335 674.751
340 980.427
345 234.733
350 30.2868
355 6.49939
360 3.65724
365 2.53128
370 3.17183
375 7.47547
380 9.17373
385 9.63805
390 10.8788
395 10.4754
400 10.2113
405 10.9927
410 11.7139
415 12.6077
420 11.838
425 10.5268
430 10.084
435 9.65992
440 10.0951
445 8.78446
450 8.19009
455 7.33926
460 6.9071
465 6.40483
470 5.95661
475 5.83763
480 5.0049
485 4.45806
490 3.94588
495 3.60763
500 3.36559
505 3.21471
510 2.90117
515 2.3607
520 2.01118
525 1.82429
530 1.54043
535 1.7357
540 1.37683
545 1.30042
550 1.05241
555 1.00041
560 0.862389
565 0.68523
570 0.670538
575 0.579127
580 0.438787
585 0.371605
590 0.405305
595 0.381246
600 0.285076
Ex : 348
200 0.156713
205 0.174802
210 0.0926428
215 0.100762
220 0.0589625
225 0.0929378
230 0.12901
235 0.106861
240 0.104457
245 0.127109
250 0.155559
255 0.0796466
260 0.186436
265 0.137808
270 0.154053
275 0.190978
280 0.163067
285 0.105657
290 0.13657
295 0.14302
300 0.0864357
305 0.132378
310 0.156883
315 0.133598
320 0.215124
325 0.435998
330 1.08901
335 42.7191
340 676.505
345 1031.69
350 260.832
355 32.8426
360 6.50068
365 3.33838
370 2.06699
375 2.32339
380 6.73091
385 12.3307
390 13.721
395 13.2905
400 11.5336
405 11.9342
410 14.155
415 15.3336
420 14.033
425 12.4259
430 11.3424
435 11.0461
440 10.6522
445 10.1245
450 9.38258
455 8.13476
460 7.79101
465 7.16115
470 6.80679
475 6.02154
480 5.19889
485 4.70832
490 4.32354
495 3.95969
500 3.65008
505 3.34709
510 3.13763
515 2.52256
520 2.16702
525 2.04532
530 1.96787
535 1.56349
540 1.30294
545 1.32495
550 1.17298
555 1.08491
560 1.21629
565 0.812394
570 0.757592
575 0.664085
580 0.462706
585 0.469376
590 0.384133
595 0.292017
600 0.503684
Ex : 353
200 0.0924347
205 0.0984608
210 0.0926819
215 0.087909
220 0.107968
225 0.107051
230 0.0961419
235 0.116478
240 0.134167
245 0.0955102
250 0.0543337
255 0.102889
260 0.121771
265 0.109093
270 0.0944635
275 0.150606
280 0.146021
285 0.126804
290 0.0928914
295 0.150096
300 0.084998
305 0.13539
310 0.178062
315 0.138504
320 0.234748
325 0.328366
330 0.502817
335 1.12654
340 44.4308
345 703.73
350 1035.84
355 251.718
360 31.7629
365 6.01726
370 2.87522
375 2.2749
380 3.316
385 8.8243
390 16.6011
395 16.9814
400 14.7026
405 13.1117
410 15.1547
415 16.9753
420 16.3321
425 14.2193
430 12.521
435 12.0651
440 11.9895
445 11.6674
450 10.4621
455 9.13828
460 8.14456
465 7.79619
470 6.8731
475 6.64685
480 5.92425
485 5.61526
490 5.14645
495 4.53317
500 4.09073
505 3.62501
510 3.31594
515 2.88212
520 2.53878
525 2.15547
530 2.0949
535 1.60692
540 1.36031
545 1.26155
550 1.28456
555 1.00882
560 0.786255
565 0.773511
570 0.635426
575 0.562956
580 0.521348
585 0.382718
590 0.369978
595 0.329143
600 0.0374552
Ex : 358
200 0.0810913
205 0.105692
210 0.147073
215 0.0534231
220 0.116053
225 0.0901107
230 0.0738063
235 0.147708
240 0.113778
245 0.0887501
250 0.0670085
255 0.0625059
260 0.0995315
265 0.0440068
270 0.0825464
275 0.121368
280 0.143396
285 0.103743
290 0.094533
295 0.0668578
300 0.105227
305 0.126748
310 0.137729
315 0.130105
320 0.203412
325 0.213451
330 0.376658
335 0.549926
340 1.2582
345 41.5392
350 673.558
355 1037.3
360 256.242
365 31.774
370 5.9368
375 3.19456
380 3.34426
385 5.9969
390 11.258
395 15.9936
400 15.0473
405 13.2625
410 13.933
415 15.5858
420 14.9063
425 12.8092
430 11.4743
435 11.1689
440 11.6573
445 11.2647
450 10.0374
455 8.69307
460 7.74105
465 7.72612
470 7.3362
475 6.84904
480 6.23497
485 5.6116
490 5.28044
495 4.69293
500 4.36487
505 3.89318
510 3.45915
515 3.17754
520 2.54276
525 2.47328
530 2.33409
535 1.8217
540 1.629
545 1.46598
550 1.25631
555 1.08309
560 0.984652
565 0.831336
570 0.684953
575 0.608019
580 0.531904
585 0.503405
590 0.33409
595 0.291203
600 0.117538
Ex : 363
200 0.0933003
205 0.138383
210 0.127288
215 0.0877091
220 0.113913
225 0.0714758
230 0.0955852
235 0.0989156
240 0.0613968
245 0.0714227
250 0.0564164
255 0.0612802
260 0.0932728
265 0.0868489
270 0.114038
275 0.105972
280 0.129055
285 0.096152
290 0.155252
295 0.115913
300 0.107029
305 0.149446
310 0.18905
315 0.16294
320 0.135395
325 0.138372
330 0.17364
335 0.353728
340 0.518431
345 1.11016
350 38.929
355 661.514
360 1037.92
365 266.247
370 33.1239
375 6.27391
380 4.80032
385 8.03146
390 11.6859
395 13.5063
400 15.7768
405 16.9077
410 17.4717
415 18.1445
420 16.4018
425 14.1579
430 12.7602
435 12.9053
440 12.7596
445 12.4658
450 10.8655
455 10.4328
460 8.95298
465 8.23179
470 8.13574
475 7.50794
480 6.7679
485 6.21078
490 5.41733
495 5.12346
500 4.57288
505 4.29249
510 3.86564
515 3.29979
520 2.94618
525 2.65217
530 2.22673
535 1.99301
540 1.70303
545 1.57856
550 1.40726
555 1.21845
560 1.01215
565 0.69266
570 0.683663
575 0.606055
580 0.469574
585 0.472414
590 0.261387
595 0.321108
600 0.435771
Ex : 368
200 0.133739
205 0.0569979
210 0.0553142
215 0.0575208
220 0.032113
225 0.136305
230 0.0762152
235 0.0771995
240 0.0726556
245 0.0617044
250 0.1106
255 0.0618249
260 0.105185
265 0.0733389
270 0.0658978
275 0.092915
280 0.0665773
285 0.0837076
290 0.113524
295 0.102162
300 0.129569
305 0.105049
310 0.0752196
315 0.117111
320 0.0641138
325 0.10803
330 0.165314
335 0.269691
340 0.332416
345 0.64761
350 1.00076
355 32.4643
360 632.884
365 1054.92
370 280.12
375 35.1132
380 8.32508
385 9.74706
390 14.6327
395 16.14
400 15.4928
405 18.2461
410 23.1373
415 23.9589
420 21.7852
425 18.1532
430 15.9393
435 15.3984
440 16.443
445 15.3499
450 13.3901
455 11.4659
460 10.6987
465 9.84157
470 9.72757
475 9.06575
480 7.82889
485 6.81915
490 6.44128
495 5.87908
500 5.14766
505 4.51455
510 4.33548
515 3.80869
520 3.32247
525 2.84552
530 2.51921
535 2.2815
540 2.03814
545 1.57484
550 1.47676
555 1.34308
560 1.09697
565 0.931018
570 0.76478
575 0.636416
580 0.489907
585 0.335701
590 0.313172
595 0.24073
600 0.0273942
Ex : 373
200 0.06028
205 0.0844948
210 0.136505
215 0.114114
220 0.0632321
225 0.0581258
230 0.101244
235 0.0648274
240 0.0933729
245 0.103704
250 0.0804638
255 0.0901436
260 0.067739
265 0.0620813
270 0.102078
275 0.109928
280 0.0662894
285 0.0566327
290 0.165837
295 0.195741
300 0.161454
305 0.132504
310 0.126305
315 0.0831279
320 0.073011
325 0.14083
330 0.0921826
335 0.170102
340 0.251359
345 0.378808
350 0.558103
355 1.22902
360 38.3242
365 643.742
370 1044.53
375 276.531
380 35.8144
385 11.1557
390 14.4783
395 17.6198
400 15.7745
405 14.9107
410 19.3841
415 25.0502
420 23.6358
425 19.7382
430 16.2616
435 15.5549
440 15.7027
445 15.0108
450 13.202
455 11.7003
460 10.4964
465 9.16679
470 8.91793
475 8.94172
480 8.04274
485 7.05963
490 6.34761
495 5.60235
500 5.15813
505 4.64946
510 4.04207
515 3.77186
520 3.3963
525 3.01944
530 2.59771
535 2.44203
540 2.12699
545 1.88024
550 1.69739
555 1.36886
560 1.20991
565 1.07426
570 0.912927
575 0.694813
580 0.458145
585 0.454879
590 0.297843
595 0.286044
600 0.315052
Ex : 378
200 0.0643068
205 0.0664919
210 0.0400926
215 0.0647259
220 0.0668082
225 0.0432398
230 0.0768012
235 0.051743
240 0.0398817
245 0.0724569
250 0.110904
255 0.0780025
260 0.0506278
265 0.0371321
270 0.0631535
275 0.0498531
280 0.0786381
285 0.0691779
290 0.0760146
295 0.106647
300 0.084701
305 0.105549
310 0.119408
315 0.0878127
320 0.0654243
325 0.172142
330 0.128704
335 0.106678
340 0.16243
345 0.232976
350 0.31835
355 0.599593
360 1.00929
365 35.806
370 645.375
375 1071.28
380 284.368
385 39.372
390 14.4856
395 13.2871
400 11.6317
405 10.9018
410 12.958
415 16.6045
420 18.9344
425 16.5975
430 13.5029
435 12.8085
440 12.0557
445 11.9424
450 10.8551
455 9.88431
460 8.84712
465 8.12392
470 7.99305
475 7.44962
480 7.1533
485 6.50668
490 5.88054
495 5.34919
500 5.08975
505 4.56052
510 4.0148
515 3.75734
520 3.14274
525 2.91376
530 2.47384
535 2.2395
540 2.08577
545 1.67041
550 1.56033
555 1.30448
560 1.15322
565 0.997366
570 0.779727
575 0.717009
580 0.468927
585 0.339357
590 0.330891
595 0.225019
600 0.248988
Ex : 383
200 0.0638597
205 0.0584314
210 0.0650119
215 0.0773791
220 0.0571029
225 0.128675
230 0.0795528
235 0.116085
240 0.0601203
245 0.060417
250 0.0879172
255 0.0957582
260 0.0923282
265 0.0862313
270 0.0513666
275 0.0639694
280 0.0552682
285 0.0707375
290 0.0921303
295 0.101077
300 0.108883
305 0.0882292
310 0.0929363
315 0.093324
320 0.109096
325 0.0973932
330 0.158529
335 0.172293
340 0.176109
345 0.174695
350 0.190287
355 0.290516
360 0.631532
365 1.10423
370 32.4932
375 640.517
380 1100.4
385 300.801
390 44.8996
395 15.2175
400 11.1801
405 11.5425
410 13.7229
415 15.2117
420 15.3413
425 15.496
430 14.9875
435 14.1049
440 13.0104
445 12.119
450 10.8017
455 9.74608
460 8.91201
465 8.34242
470 8.25553
475 7.90992
480 7.07886
485 6.24669
490 5.80891
495 5.5386
500 5.25483
505 4.6688
510 4.0935
515 3.58029
520 3.2759
525 2.90891
530 2.67846
535 2.3327
540 2.1772
545 1.94281
550 1.75214
555 1.39251
560 1.08161
565 0.926604
570 0.859774
575 0.702
580 0.583953
585 0.370219
590 0.316297
595 0.310011
600 0.160389
Ex : 388
200 0.0733598
205 0.0512367
210 0.0580745
215 0.0602348
220 0.0532093
225 0.0712371
230 0.0951118
235 0.108318
240 0.106456
245 0.0702671
250 0.129376
255 0.0631198
260 0.0447661
265 0.0399695
270 0.0558689
275 0.0541866
280 0.100472
285 0.0753704
290 0.0732397
295 0.0946184
300 0.13975
305 0.0615611
310 0.0815179
315 0.0829724
320 0.0861681
325 0.167349
330 0.0868496
335 0.146946
340 0.178547
345 0.159247
350 0.195459
355 0.234564
360 0.424538
365 0.581777
370 1.27264
375 36.3203
380 658.312
385 1100.39
390 303.057
395 48.4127
400 17.1197
405 14.7464
410 17.1269
415 18.9027
420 18.3227
425 15.8552
430 16.842
435 17.5293
440 16.51
445 14.4862
450 13.0904
455 11.069
460 10.2173
465 9.61231
470 8.87712
475 8.3082
480 7.77869
485 6.98285
490 6.0714
495 5.86597
500 5.36389
505 4.56733
510 4.49428
515 3.8353
520 3.3892
525 3.09489
530 2.66469
535 2.54864
540 2.25277
545 1.8954
550 1.63976
555 1.46155
560 1.31151
565 0.958724
570 0.827119
575 0.739451
580 0.475086
585 0.43354
590 0.438181
595 0.33015
600 0.36779
Ex : 393
200 0.105443
205 0.0499967
210 0.0538469
215 0.0594129
220 0.0309892
225 0.0837778
230 0.0982313
235 0.0696933
240 0.0943767
245 0.055378
250 0.0508907
255 0.0762707
260 0.127194
265 0.0589328
270 0.0450975
275 0.0745616
280 0.138377
285 0.0942152
290 0.110539
295 0.0675657
300 0.0861104
305 0.0711911
310 0.0521485
315 0.109528
320 0.081092
325 0.157846
330 0.088763
335 0.162834
340 0.157719
345 0.178139
350 0.126362
355 0.167918
360 0.228858
365 0.362601
370 0.622518
375 1.14632
380 32.1281
385 646.945
390 1112.15
395 312.893
400 49.169
405 17.2528
410 16.1298
415 19.8021
420 19.6194
425 16.3279
430 14.0848
435 14.3861
440 16.8253
445 15.833
450 13.7695
455 11.4524
460 9.7016
465 8.7631
470 8.72786
475 8.34487
480 7.26952
485 6.62805
490 6.07817
495 5.82951
500 5.06359
505 4.60899
510 4.24776
515 3.82111
520 3.25349
525 2.93046
530 2.71649
535 2.31449
540 2.03336
545 1.85126
550 1.67096
555 1.39487
560 1.23513
565 0.98329
570 0.783233
575 0.73716
580 0.444219
585 0.465095
590 0.416132
595 0.301884
600 0.0629405
Ex : 398
200 0.0434642
205 0.0531626
210 0.0393167
215 0.0609072
220 0.0724791
225 0.0793052
230 0.0637745
235 0.0797471
240 0.0335404
245 0.04349
250 0.0733798
255 0.0824233
260 0.0816413
265 0.0721805
270 0.0708304
275 0.0357451
280 0.0240949
285 0.0493155
290 0.0657559
295 0.0351676
300 0.0541427
305 0.0358262
310 0.0707679
315 0.0952599
320 0.110351
325 0.141531
330 0.105572
335 0.117081
340 0.117127
345 0.181612
350 0.17842
355 0.156832
360 0.173722
365 0.229461
370 0.358185
375 0.551862
380 1.17285
385 33.1003
390 660.933
395 1138.25
400 308.427
405 43.1878
410 13.4182
415 12.5691
420 12.4458
425 11.0104
430 8.91713
435 8.60599
440 9.95102
445 11.9293
450 11.2213
455 8.92801
460 8.01337
465 6.76682
470 6.48513
475 6.12947
480 6.02599
485 5.46279
490 5.2353
495 4.78798
500 4.26997
505 4.11218
510 3.71748
515 3.37275
520 2.92917
525 2.71951
530 2.42196
535 2.11813
540 1.94181
545 1.86224
550 1.63493
555 1.34972
560 1.11474
565 1.01371
570 0.796066
575 0.598434
580 0.509426
585 0.392179
590 0.283319
595 0.212314
600 0.0512892
Ex : 403
200 0.0315901
205 0.07347
210 0.0612076
215 0.0715751
220 0.0732363
225 0.0264109
230 0.0739491
235 0.10233
240 0.0834676
245 0.0434036
250 0.0500723
255 0.0896249
260 0.0764763
265 0.0659147
270 0.0415968
275 0.0669797
280 0.0737894
285 0.0720203
290 0.100869
295 0.0606796
300 0.0688657
305 0.104249
310 0.0584784
315 0.0627204
320 0.131539
325 0.072428
330 0.0697789
335 0.063866
340 0.105694
345 0.103349
350 0.139185
355 0.178165
360 0.192779
365 0.230217
370 0.236546
375 0.384683
380 0.623379
385 1.36333
390 37.8336
395 671.315
400 1105.75
405 301.139
410 39.5207
415 10.2737
420 7.0145
425 6.17983
430 5.29276
435 5.11666
440 5.50791
445 6.43328
450 7.85413
455 7.91075
460 6.42493
465 6.13078
470 5.43258
475 5.0778
480 4.84188
485 4.83881
490 4.3516
495 4.08019
500 3.89178
505 3.76845
510 3.54116
515 3.36795
520 2.72581
525 2.57941
530 2.17654
535 2.05097
540 1.76161
545 1.64729
550 1.45727
555 1.31006
560 1.23355
565 1.09111
570 0.771606
575 0.616097
580 0.452813
585 0.371792
590 0.337564
595 0.275648
600 0.395561
Ex : 408
200 0.0535234
205 0.0749847
210 0.0490356
215 0.0533227
220 0.0449949
225 0.0393141
230 0.0977661
235 0.0541394
240 0.0508922
245 0.0515099
250 0.037064
255 0.0852512
260 0.0812829
265 0.0758359
270 0.0517499
275 0.0532877
280 0.0776055
285 0.0533885
290 0.0963638
295 0.07383
300 0.0624997
305 0.0486303
310 0.0593314
315 0.0872694
320 0.0559769
325 0.044758
330 0.0710529
335 0.137612
340 0.0865038
345 0.131256
350 0.10275
355 0.122432
360 0.174069
365 0.174408
370 0.215134
375 0.265366
380 0.331212
385 0.701495
390 1.43637
395 35.2155
400 686.942
405 1132.89
410 297.288
415 39.4546
420 9.24251
425 5.46556
430 5.04867
435 4.9957
440 5.0803
445 5.31565
450 5.55544
455 6.56561
460 7.70257
465 6.75456
470 5.94603
475 5.7123
480 5.22678
485 4.61888
490 4.33331
495 4.16597
500 3.8291
505 3.61703
510 3.20535
515 3.25749
520 2.82766
525 2.60447
530 2.22243
535 2.15335
540 1.9218
545 1.63658
550 1.44529
555 1.39434
560 1.13519
565 0.96174
570 0.778289
575 0.61907
580 0.383676
585 0.357431
590 0.188254
595 0.195949
600 0.0860321
Ex : 413
200 0.123915
205 0.0914208
210 0.0492359
215 0.0368178
220 0.0706285
225 0.0640408
230 0.0688804
235 0.0579256
240 0.0462176
245 0.0783001
250 0.0565939
255 0.0844863
260 0.0771514
265 0.0909592
270 0.0548676
275 0.0744458
280 0.0650922
285 0.116447
290 0.0547031
295 0.0628669
300 0.0871085
305 0.0598116
310 0.0765783
315 0.102457
320 0.0620504
325 0.0571725
330 0.0807426
335 0.0764489
340 0.107285
345 0.113149
350 0.0838519
355 0.143177
360 0.132359
365 0.172199
370 0.14558
375 0.163087
380 0.236058
385 0.386021
390 0.717857
395 1.25278
400 39.0386
405 700.351
410 1127.15
415 290.261
420 38.1042
425 8.58645
430 4.52797
435 4.90767
440 5.18455
445 4.97107
450 4.68318
455 4.38605
460 5.50807
465 7.22026
470 6.56625
475 5.39037
480 5.28957
485 4.5085
490 4.25591
495 3.90149
500 3.4817
505 3.38464
510 3.06519
515 2.97683
520 2.69058
525 2.30876
530 2.27653
535 1.93151
540 1.77094
545 1.51169
550 1.46566
555 1.32421
560 1.2033
565 0.927265
570 0.843112
575 0.660686
580 0.5068
585 0.327168
590 0.274089
595 0.315202
600 0.700522
Ex : 418
200 0.0411876
205 0.0475191
210 0.0436041
215 0.0591581
220 0.0674568
225 0.0326072
230 0.0730853
235 0.0399419
240 0.0522859
245 0.0497909
250 0.0764331
255 0.0401205
260 0.0466485
265 0.0252686
270 0.0647085
275 0.0581042
280 0.0419292
285 0.0596603
290 0.0512292
295 0.0713991
300 0.0659224
305 0.0459379
310 0.0322111
315 0.0499681
320 0.101974
325 0.0501288
330 0.0562358
335 0.095293
340 0.0636813
345 0.108469
350 0.106466
355 0.0855222
360 0.082239
365 0.113015
370 0.149453
375 0.164813
380 0.213611
385 0.260578
390 0.40859
395 0.636807
400 1.25936
405 36.8498
410 689.945
415 1131.75
420 299.75
425 37.8342
430 6.99988
435 3.55494
440 3.6472
445 3.43991
450 3.32129
455 3.20843
460 3.08797
465 3.65457
470 5.78485
475 5.63119
480 4.51409
485 4.16977
490 3.73458
495 3.31362
500 3.33244
505 2.86417
510 2.73325
515 2.58067
520 2.30776
525 2.07709
530 2.09641
535 1.93617
540 1.62202
545 1.46534
550 1.20748
555 1.27749
560 1.0117
565 0.88875
570 0.730164
575 0.592937
580 0.522213
585 0.39569
590 0.305561
595 0.212251
600 0.197286
Ex : 423
200 0.0500155
205 0.0519283
210 0.0369212
215 0.0635504
220 0.0499803
225 0.0266013
230 0.0441433
235 0.0458404
240 0.078512
245 0.105369
250 0.0767654
255 0.077195
260 0.0716688
265 0.075905
270 0.075223
275 0.0970903
280 0.0841332
285 0.0662349
290 0.0817114
295 0.0491894
300 0.103649
305 0.0654599
310 0.0772792
315 0.0834909
320 0.143086
325 0.080652
330 0.143228
335 0.0880909
340 0.1175
345 0.104847
350 0.0948581
355 0.128899
360 0.0995686
365 0.0942352
370 0.0981642
375 0.119374
380 0.174781
385 0.233608
390 0.249554
395 0.411109
400 0.651513
405 1.32983
410 37.1598
415 711.351
420 1122.25
425 283.886
430 35.0213
435 5.90727
440 2.53264
445 2.37974
450 2.35527
455 2.06086
460 1.92835
465 2.05667
470 2.75242
475 4.28105
480 5.23106
485 3.87024
490 3.51728
495 3.15789
500 2.71363
505 2.55128
510 2.29536
515 2.25107
520 2.01655
525 1.9439
530 1.89062
535 1.74045
540 1.51314
545 1.30345
550 1.25461
555 1.22849
560 1.05359
565 0.873792
570 0.851909
575 0.608044
580 0.363581
585 0.274371
590 0.337985
595 0.208808
600 0.817892
Ex : 428
200 0.0403003
205 0.0693147
210 0.12288
215 0.0422567
220 0.0429219
225 0.0728141
230 0.0607468
235 0.0790942
240 0.0499578
245 0.0414416
250 0.0606971
255 0.0497065
260 0.035382
265 0.0974563
270 0.0562633
275 0.0622231
280 0.0787918
285 0.0967422
290 0.0742788
295 0.0425865
300 0.0797857
305 0.050383
310 0.0934148
315 0.0753167
320 0.0657452
325 0.118177
330 0.129296
335 0.11693
340 0.0842535
345 0.0790745
350 0.121507
355 0.113056
360 0.126709
365 0.0733625
370 0.152919
375 0.158156
380 0.104258
385 0.183836
390 0.211069
395 0.28321
400 0.335105
405 0.666115
410 1.35548
415 41.248
420 709.365
425 1122.91
430 292.417
435 35.6699
440 5.81781
445 2.1217
450 2.03618
455 1.86452
460 1.78477
465 1.67679
470 1.77114
475 1.98223
480 3.1254
485 4.38879
490 3.6676
495 3.09142
500 2.9907
505 2.52017
510 2.1317
515 2.1102
520 2.02807
525 1.7759
530 1.71559
535 1.56697
540 1.36405
545 1.28973
550 1.21409
555 1.05345
560 0.888992
565 0.863606
570 0.670612
575 0.560797
580 0.417485
585 0.32085
590 0.311695
595 0.198824
600 0.0226254
Ex : 433
200 0.0423675
205 0.0558289
210 0.0452593
215 0.0955109
220 0.0934109
225 0.0439297
230 0.0621318
235 0.0570478
240 0.0602205
245 0.0509632
250 0.0609819
255 0.100058
260 0.0563941
265 0.0862184
270 0.0695538
275 0.124737
280 0.0552987
285 0.0611235
290 0.0525643
295 0.0416739
300 0.0587861
305 0.0758383
310 0.0573824
315 0.0956906
320 0.0853793
325 0.067885
330 0.0619765
335 0.0604325
340 0.11965
345 0.0915777
350 0.1173
355 0.113987
360 0.099103
365 0.100339
370 0.0788992
375 0.0514764
380 0.132275
385 0.141725
390 0.179759
395 0.242592
400 0.280193
405 0.421955
410 0.621746
415 1.17821
420 44.4738
425 757.836
430 1134.24
435 284.865
440 34.6699
445 5.58692
450 2.0363
455 1.80329
460 1.97013
465 1.81168
470 1.47882
475 1.56765
480 1.83033
485 2.69963
490 4.22617
495 3.79674
500 2.90445
505 2.77361
510 2.33035
515 2.03289
520 1.72407
525 1.70755
530 1.70396
535 1.35894
540 1.34191
545 1.27612
550 1.15209
555 1.09136
560 0.941129
565 0.803885
570 0.702404
575 0.60734
580 0.468647
585 0.394871
590 0.316982
595 0.236115
600 0.127641
Ex : 438
200 0.0682677
205 0.0470491
210 0.0667131
215 0.124908
220 0.06105
225 0.0379314
230 0.0724422
235 0.0817358
240 0.0772923
245 0.0423478
250 0.0592413
255 0.0272048
260 0.0522707
265 0.102866
270 0.054074
275 0.0633962
280 0.0471054
285 0.105575
290 0.0830319
295 0.0539535
300 0.116348
305 0.0565812
310 0.0394514
315 0.0630697
320 0.0527432
325 0.0592772
330 0.0535148
335 0.0823822
340 0.0823174
345 0.0781926
350 0.140297
355 0.158699
360 0.080117
365 0.162644
370 0.136767
375 0.144682
380 0.134868
385 0.133231
390 0.165324
395 0.172853
400 0.20059
405 0.263271
410 0.339666
415 0.685334
420 1.2845
425 42.9533
430 743.846
435 1190.36
440 296.521
445 36.1363
450 5.90429
455 2.04898
460 1.82563
465 1.8891
470 1.60625
475 1.48818
480 1.60269
485 1.80421
490 2.27961
495 3.7997
500 4.149
505 2.77256
510 2.39526
515 2.21027
520 1.94372
525 1.61431
530 1.50914
535 1.45855
540 1.35427
545 1.3521
550 1.1634
555 1.07453
560 0.854264
565 0.759573
570 0.616143
575 0.582169
580 0.46858
585 0.431675
590 0.339558
595 0.260331
600 0.2689
Ex : 443
200 0.0437933
205 0.0301752
210 0.0511448
215 0.0438653
220 0.0448291
225 0.0575782
230 0.0403042
235 0.0491104
240 0.071025
245 0.0371465
250 0.0777479
255 0.0530687
260 0.0573749
265 0.0651492
270 0.045076
275 0.0551405
280 0.0572859
285 0.0789366
290 0.062791
295 0.0467868
300 0.0771824
305 0.0857181
310 0.0811682
315 0.0386381
320 0.0458409
325 0.0762186
330 0.0747537
335 0.0595476
340 0.0729569
345 0.122451
350 0.124452
355 0.0716976
360 0.140807
365 0.161413
370 0.157123
375 0.0947515
380 0.157935
385 0.0900157
390 0.122511
395 0.161131
400 0.198122
405 0.202751
410 0.277174
415 0.440958
420 0.616899
425 1.19291
430 48.2198
435 801.396
440 1203.66
445 297.922
450 36.419
455 5.85062
460 2.17658
465 1.88512
470 1.92604
475 1.6674
480 1.50753
485 1.64419
490 1.61553
495 1.76004
500 3.11439
505 4.14943
510 2.8847
515 2.1885
520 1.91825
525 1.77591
530 1.38618
535 1.42284
540 1.37001
545 1.0892
550 1.12313
555 0.95096
560 0.780985
565 0.667737
570 0.715797
575 0.497398
580 0.520997
585 0.32924
590 0.348715
595 0.328511
600 0.489347
Ex : 448
200 0.0408471
205 0.0860577
210 0.0904349
215 0.0441081
220 0.0559514
225 0.0456041
230 0.0754669
235 0.110139
240 0.101752
245 0.0419685
250 0.0571739
255 0.0344142
260 0.0246677
265 0.0468465
270 0.0734895
275 0.077602
280 0.0740789
285 0.0589323
290 0.0799927
295 0.0482579
300 0.0331698
305 0.0275122
310 0.0450492
315 0.0602838
320 0.0984233
325 0.0515375
330 0.104387
335 0.0801571
340 0.069202
345 0.12768
350 0.131787
355 0.090438
360 0.101053
365 0.0721221
370 0.115779
375 0.114066
380 0.142563
385 0.154772
390 0.124654
395 0.178498
400 0.14108
405 0.164943
410 0.266542
415 0.291791
420 0.395508
425 0.607688
430 1.29208
435 49.1263
440 838.429
445 1264.04
450 311.319
455 37.9112
460 6.19148
465 2.23353
470 1.8317
475 1.84814
480 1.75942
485 1.48023
490 1.39274
495 1.54196
500 1.58009
505 2.53784
510 3.61441
515 2.93071
520 2.14843
525 2.1515
530 1.72165
535 1.3719
540 1.27641
545 1.12327
550 0.972837
555 0.820935
560 0.867006
565 0.671595
570 0.574296
575 0.549972
580 0.445108
585 0.274775
590 0.297954
595 0.279499
600 0.120872
Ex : 453
200 0.065812
205 0.0522028
210 0.0814324
215 0.0555985
220 0.0522445
225 0.0531594
230 0.0602487
235 0.0372598
240 0.0677406
245 0.0564158
250 0.087492
255 0.0464856
260 0.0396192
265 0.0540253
270 0.0717355
275 0.0477968
280 0.0474288
285 0.0393917
290 0.104556
295 0.0694308
300 0.0758533
305 0.0694215
310 0.0720419
315 0.0642759
320 0.072823
325 0.0578372
330 0.0752555
335 0.0874875
340 0.0665719
345 0.0713023
350 0.0498334
355 0.073861
360 0.0476555
365 0.105907
370 0.0737508
375 0.153555
380 0.10992
385 0.0784691
390 0.144919
395 0.119076
400 0.169007
405 0.152966
410 0.204107
415 0.227019
420 0.302802
425 0.441697
430 0.633237
435 1.16807
440 51.5091
445 906.837
450 1319.37
455 309.618
460 37.6658
465 6.07871
470 2.09095
475 1.73829
480 1.9113
485 1.8366
490 1.42821
495 1.24723
500 1.38692
505 1.42844
510 1.96774
515 3.26267
520 3.11465
525 2.1628
530 1.80768
535 1.6904
540 1.23082
545 1.06615
550 1.02828
555 0.950075
560 0.925353
565 0.754382
570 0.693769
575 0.553669
580 0.386993
585 0.378108
590 0.39368
595 0.248404
600 0.0784299
Ex : 458
200 0.151864
205 0.119358
210 0.046294
215 0.0484568
220 0.0585575
225 0.0807272
230 0.0677514
235 0.100412
240 0.0439062
245 0.0703709
250 0.0532373
255 0.0512663
260 0.0421361
265 0.111941
270 0.06285
275 0.0862922
280 0.0559256
285 0.124794
290 0.0480563
295 0.0513616
300 0.0484814
305 0.0527268
310 0.0834475
315 0.148807
320 0.0987799
325 0.0670537
330 0.0601545
335 0.0656989
340 0.101641
345 0.086197
350 0.0806138
355 0.0770447
360 0.0801816
365 0.0714606
370 0.0742707
375 0.0930298
380 0.0839915
385 0.104516
390 0.0625298
395 0.124838
400 0.126032
405 0.130594
410 0.163763
415 0.186862
420 0.209566
425 0.248588
430 0.384618
435 0.6682
440 1.33336
445 56.9154
450 934.755
455 1392.94
460 336.175
465 40.8881
470 6.51601
475 2.24807
480 1.72517
485 1.76482
490 1.66434
495 1.32731
500 1.34423
505 1.26889
510 1.2703
515 1.54046
520 2.43217
525 3.25942
530 2.24314
535 1.69407
540 1.47314
545 1.34292
550 1.13523
555 0.920622
560 0.865633
565 0.784279
570 0.675191
575 0.534091
580 0.419497
585 0.397781
590 0.310085
595 0.244307
600 0.196325
Ex : 463
200 0.0516728
205 0.0692728
210 0.0457538
215 0.0528772
220 0.0829827
225 0.0383453
230 0.0542215
235 0.0573645
240 0.0919772
245 0.0515132
250 0.0621567
255 0.0714007
260 0.0394258
265 0.0634155
270 0.0729166
275 0.0365318
280 0.0710174
285 0.0958135
290 0.0594605
295 0.0796913
300 0.0527602
305 0.0580151
310 0.0511253
315 0.0747657
320 0.078614
325 0.0675708
330 0.119771
335 0.0661429
340 0.0655813
345 0.0569569
350 0.0811696
355 0.064385
360 0.0827429
365 0.0832607
370 0.119283
375 0.127809
380 0.0806566
385 0.09961
390 0.101854
395 0.126857
400 0.185193
405 0.113807
410 0.185527
415 0.136107
420 0.206842
425 0.23736
430 0.348665
435 0.413781
440 0.703529
445 1.35113
450 55.1818
455 969.963
460 1479.55
465 357.91
470 43.3471
475 6.6499
480 2.12401
485 1.53498
490 1.68981
495 1.56445
500 1.32009
505 1.20674
510 1.17674
515 1.19216
520 1.30096
525 2.06938
530 3.09415
535 2.34575
540 1.57799
545 1.54603
550 1.33047
555 1.09599
560 0.903729
565 0.808482
570 0.564627
575 0.544842
580 0.409459
585 0.335641
590 0.308743
595 0.240597
600 0.362407
Ex : 468
200 0.0631592
205 0.0564883
210 0.0316918
215 0.0538404
220 0.0631029
225 0.079791
230 0.0432771
235 0.0534467
240 0.0799179
245 0.069397
250 0.0728022
255 0.0612313
260 0.106637
265 0.0893526
270 0.0785682
275 0.062967
280 0.0398344
285 0.0762442
290 0.0689284
295 0.0380586
300 0.0477586
305 0.0629154
310 0.0450495
315 0.0669492
320 0.0728019
325 0.0568708
330 0.08473
335 0.058158
340 0.066176
345 0.0759716
350 0.0753275
355 0.0676251
360 0.0611573
365 0.10645
370 0.0813528
375 0.0882441
380 0.123455
385 0.127864
390 0.121327
395 0.109576
400 0.160141
405 0.106388
410 0.124379
415 0.121083
420 0.139858
425 0.171702
430 0.226534
435 0.291628
440 0.453352
445 0.753391
450 1.35902
455 61.524
460 990.363
465 1566.39
470 376.567
475 45.2851
480 6.97815
485 2.07761
490 1.56066
495 1.66672
500 1.51961
505 1.29588
510 1.11804
515 1.21494
520 1.15642
525 1.23327
530 1.57815
535 2.57757
540 2.70743
545 1.81468
550 1.49247
555 1.26543
560 1.05718
565 0.901548
570 0.723243
575 0.54323
580 0.466653
585 0.377556
590 0.381879
595 0.344657
600 0.329779
Ex : 473
200 0.0733591
205 0.0827925
210 0.0809213
215 0.0619536
220 0.0439139
225 0.0740625
230 0.0657929
235 0.089001
240 0.0505358
245 0.0956902
250 0.0572142
255 0.0539231
260 0.051406
265 0.0536699
270 0.101071
275 0.0500748
280 0.0510814
285 0.0540492
290 0.0393825
295 0.0399912
300 0.0438437
305 0.0937324
310 0.0675146
315 0.0842395
320 0.0735669
325 0.053148
330 0.0376321
335 0.0783682
340 0.0646715
345 0.071643
350 0.0834997
355 0.138077
360 0.107274
365 0.0871868
370 0.101387
375 0.101244
380 0.107242
385 0.114803
390 0.157432
395 0.121296
400 0.125376
405 0.119257
410 0.197183
415 0.138234
420 0.16126
425 0.148959
430 0.201732
435 0.240795
440 0.348583
445 0.436145
450 0.788932
455 1.45747
460 71.1812
465 1095.97
470 1536.92
475 354.061
480 42.8452
485 6.58749
490 2.09039
495 1.47901
500 1.56074
505 1.5472
510 1.29116
515 1.18065
520 1.17588
525 1.19181
530 1.12319
535 1.25337
540 2.12446
545 2.56537
550 1.78332
555 1.32051
560 1.23984
565 1.15022
570 0.812619
575 0.576232
580 0.467684
585 0.399204
590 0.313586
595 0.349791
600 0.085908
Ex : 478
200 0.0714465
205 0.0987546
210 0.0918562
215 0.0972307
220 0.104071
225 0.0848788
230 0.0373127
235 0.0650843
240 0.0712005
245 0.0707843
250 0.0627552
255 0.0763526
260 0.0562222
265 0.076556
270 0.110178
275 0.0424165
280 0.0376299
285 0.0572244
290 0.0877584
295 0.065811
300 0.0539192
305 0.0429833
310 0.0743
315 0.115567
320 0.07595
325 0.0905508
330 0.0589169
335 0.13012
340 0.0792084
345 0.0463094
350 0.125691
355 0.0760897
360 0.0936924
365 0.0786193
370 0.0702155
375 0.142501
380 0.133661
385 0.088146
390 0.0895972
395 0.123729
400 0.162066
405 0.12623
410 0.10619
415 0.139101
420 0.160706
425 0.169333
430 0.18342
435 0.192352
440 0.242023
445 0.367067
450 0.487578
455 0.984179
460 1.90031
465 78.4506
470 1138.02
475 1590.39
480 384.949
485 46.3326
490 7.03996
495 2.11715
500 1.28835
505 1.28028
510 1.41336
515 1.19852
520 1.15515
525 1.14821
530 1.16022
535 1.10469
540 1.17876
545 1.76326
550 2.30386
555 1.85616
560 1.20984
565 1.0725
570 0.988504
575 0.664638
580 0.535889
585 0.472227
590 0.3651
595 0.274114
600 0.247264
Ex : 483
200 0.113386
205 0.135319
210 0.109052
215 0.0892406
220 0.032937
225 0.0740194
230 0.0551242
235 0.048638
240 0.0694785
245 0.0794821
250 0.101723
255 0.0742506
260 0.109635
265 0.0760982
270 0.157838
275 0.0651999
280 0.0971476
285 0.107997
290 0.0636702
295 0.0505824
300 0.102561
305 0.0909653
310 0.0916329
315 0.0719294
320 0.038574
325 0.0653396
330 0.0601574
335 0.0786941
340 0.110297
345 0.0906287
350 0.0936485
355 0.0932728
360 0.166281
365 0.0867215
370 0.099522
375 0.0582666
380 0.160241
385 0.110792
390 0.102409
395 0.0964319
400 0.0938198
405 0.104163
410 0.118612
415 0.172221
420 0.166808
425 0.190787
430 0.180078
435 0.22922
440 0.217143
445 0.211081
450 0.405725
455 0.530438
460 1.03699
465 1.90755
470 62.1679
475 1131.37
480 1712.7
485 412.497
490 49.5851
495 7.1805
500 1.96866
505 1.10343
510 1.29298
515 1.37203
520 1.34594
525 1.15343
530 1.10595
535 1.09444
540 1.02752
545 1.01698
550 1.22586
555 2.00213
560 2.24245
565 1.33082
570 0.934448
575 0.786642
580 0.550573
585 0.468104
590 0.373895
595 0.361919
600 0.435393
Ex : 488
200 0.111193
205 0.0717062
210 0.0755991
215 0.112996
220 0.0637766
225 0.100607
230 0.116693
235 0.0855806
240 0.0807891
245 0.107425
250 0.0670506
255 0.0879111
260 0.0785
265 0.0508926
270 0.0688118
275 0.0295131
280 0.0484779
285 0.0679012
290 0.062469
295 0.0587774
300 0.0724728
305 0.0565588
310 0.062317
315 0.0935682
320 0.0801699
325 0.0782953
330 0.157683
335 0.102317
340 0.115021
345 0.0698165
350 0.0964183
355 0.0856865
360 0.122298
365 0.103043
370 0.113543
375 0.17706
380 0.09096
385 0.115123
390 0.175928
395 0.129263
400 0.131633
405 0.105442
410 0.116005
415 0.131154
420 0.132638
425 0.141566
430 0.150838
435 0.197472
440 0.189677
445 0.225234
450 0.279054
455 0.393651
460 0.672124
465 1.18253
470 1.93199
475 75.7237
480 1228.77
485 1717.41
490 404.376
495 48.5358
500 7.02514
505 1.95205
510 1.2084
515 1.25104
520 1.47506
525 1.32779
530 1.23352
535 1.17078
540 0.990381
545 0.824212
550 0.865981
555 0.939244
560 1.47775
565 1.90981
570 1.36084
575 0.935419
580 0.760858
585 0.543085
590 0.385055
595 0.298905
600 0.568442
Ex : 493
200 0.0800578
205 0.0530263
210 0.0699904
215 0.0491928
220 0.064918
225 0.0624192
230 0.0511815
235 0.121521
240 0.0470522
245 0.115557
250 0.0872537
255 0.122689
260 0.125714
265 0.0640654
270 0.071302
275 0.101212
280 0.0582827
285 0.0640536
290 0.0742086
295 0.0800538
300 0.0924688
305 0.0724836
310 0.0726937
315 0.0897484
320 0.0754165
325 0.106575
330 0.0879606
335 0.180894
340 0.109414
345 0.0735157
350 0.104461
355 0.0857645
360 0.117857
365 0.122558
370 0.133307
375 0.114683
380 0.121103
385 0.133769
390 0.121577
395 0.0787418
400 0.0963078
405 0.136136
410 0.0919428
415 0.154439
420 0.15743
425 0.177733
430 0.172535
435 0.200602
440 0.158429
445 0.217199
450 0.220368
455 0.291617
460 0.448593
465 0.601366
470 1.03666
475 1.77962
480 71.8816
485 1224.5
490 1824.84
495 420.936
500 50.3334
505 7.13177
510 2.17193
515 1.1927
520 1.23237
525 1.48948
530 1.32079
535 1.21103
540 0.948344
545 0.959697
550 0.968224
555 0.855393
560 0.811379
565 1.17817
570 1.63627
575 1.37148
580 0.730014
585 0.538435
590 0.513237
595 0.455516
600 0.469857
Ex : 498
200 0.0563604
205 0.0646346
210 0.0851547
215 0.0371087
220 0.053678
225 0.0715298
230 0.089785
235 0.089883
240 0.176241
245 0.0752323
250 0.0728724
255 0.055763
260 0.049947
265 0.0878631
270 0.103222
275 0.0957538
280 0.0862122
285 0.11896
290 0.0633639
295 0.0498483
300 0.0753003
305 0.111774
310 0.0741466
315 0.0939266
320 0.112406
325 0.118062
330 0.117253
335 0.0827096
340 0.0821787
345 0.113778
350 0.109405
355 0.10052
360 0.0950781
365 0.158654
370 0.106993
375 0.142448
380 0.198134
385 0.161627
390 0.0971386
395 0.121552
400 0.0851055
405 0.13612
410 0.186482
415 0.133189
420 0.124821
425 0.152264
430 0.210011
435 0.187081
440 0.229196
445 0.258489
450 0.204332
455 0.408114
460 0.283755
465 0.449979
470 0.598202
475 1.01088
480 1.89645
485 86.2599
490 1315.21
495 1792.12
500 416.155
505 49.7685
510 7.16521
515 2.15089
520 1.42492
525 1.27767
530 1.21075
535 1.19091
540 1.1611
545 0.971971
550 0.81838
555 0.752971
560 0.761531
565 0.682552
570 0.806259
575 1.27777
580 1.26845
585 0.771128
590 0.521747
595 0.514568
600 0.0696335
Ex : 503
200 0.162798
205 0.106846
210 0.120768
215 0.0883893
220 0.0620944
225 0.0994842
230 0.0885459
235 0.0536323
240 0.0805733
245 0.0746709
250 0.0760739
255 0.0879736
260 0.0585252
265 0.0741641
270 0.066162
275 0.128218
280 0.0927247
285 0.0595873
290 0.0582299
295 0.065456
300 0.101332
305 0.092902
310 0.129262
315 0.0690301
320 0.090247
325 0.0666364
330 0.0994905
335 0.151057
340 0.122485
345 0.0886784
350 0.101424
355 0.138586
360 0.103249
365 0.121188
370 0.122646
375 0.0790746
380 0.10107
385 0.104414
390 0.131708
395 0.139775
400 0.11477
405 0.128941
410 0.133851
415 0.141725
420 0.18709
425 0.208569
430 0.183546
435 0.229821
440 0.159785
445 0.194022
450 0.193896
455 0.237883
460 0.33609
465 0.437028
470 0.42512
475 0.702924
480 1.1951
485 2.18373
490 79.73
495 1320.15
500 1869.55
505 430.898
510 51.6039
515 7.62082
520 2.3154
525 1.32391
530 1.33245
535 1.30399
540 1.26774
545 1.06749
550 0.853924
555 0.844171
560 0.823099
565 0.723072
570 0.623784
575 0.621743
580 0.751779
585 0.911394
590 0.705619
595 0.426971
600 0.520969
Ex : 508
200 0.113518
205 0.0764049
210 0.0841533
215 0.0684497
220 0.0447712
225 0.0888581
230 0.038256
235 0.0521621
240 0.0610869
245 0.0870998
250 0.113147
255 0.0759677
260 0.0670268
265 0.132195
270 0.0721612
275 0.0799371
280 0.0619796
285 0.110274
290 0.0662904
295 0.0574405
300 0.0898548
305 0.131341
310 0.0845361
315 0.0617895
320 0.136789
325 0.0728687
330 0.121267
335 0.104677
340 0.0723811
345 0.129503
350 0.0938204
355 0.0815649
360 0.0898282
365 0.0649164
370 0.124886
375 0.151304
380 0.0902588
385 0.0573322
390 0.100863
395 0.132797
400 0.180145
405 0.241322
410 0.118449
415 0.102293
420 0.170586
425 0.173628
430 0.154805
435 0.207842
440 0.179272
445 0.187693
450 0.207569
455 0.166216
460 0.23677
465 0.36318
470 0.402753
475 0.465965
480 0.778338
485 1.10236
490 1.96072
495 86.5751
500 1334.23
505 1868.9
510 452.779
515 54.2379
520 7.96649
525 2.40442
530 1.44375
535 1.12119
540 1.06992
545 1.16912
550 1.03381
555 0.835375
560 0.68755
565 0.677526
570 0.667193
575 0.567002
580 0.470016
585 0.557238
590 0.774548
595 0.691718
600 0.570155
Ex : 513
200 0.0736443
205 0.108782
210 0.0667767
215 0.11496
220 0.108424
225 0.081323
230 0.222989
235 0.135816
240 0.0986517
245 0.111811
250 0.137686
255 0.111344
260 0.0585982
265 0.0724342
270 0.106181
275 0.0969291
280 0.126062
285 0.058016
290 0.0707104
295 0.0556653
300 0.0385801
305 0.0864702
310 0.0930834
315 0.166829
320 0.107675
325 0.0806838
330 0.109166
335 0.163032
340 0.120933
345 0.109307
350 0.0943342
355 0.108848
360 0.0748988
365 0.101782
370 0.0830649
375 0.184487
380 0.0885502
385 0.0997911
390 0.134437
395 0.123057
400 0.119902
405 0.117898
410 0.164768
415 0.147134
420 0.134818
425 0.220775
430 0.154974
435 0.121871
440 0.195394
445 0.161916
450 0.202799
455 0.301522
460 0.21657
465 0.244579
470 0.309738
475 0.39988
480 0.462133
485 0.644644
490 1.26431
495 2.12106
500 79.2318
505 1322.26
510 1924.29
515 471.945
520 56.5544
525 8.22533
530 2.16361
535 1.2302
540 1.01797
545 0.933368
550 0.928217
555 0.947034
560 0.772297
565 0.563505
570 0.428374
575 0.490147
580 0.475605
585 0.454458
590 0.361135
595 0.630033
600 0.554323
Ex : 518
200 0.0622988
205 0.0733236
210 0.0673629
215 0.0685826
220 0.0756683
225 0.060969
230 0.0715398
235 0.0988394
240 0.0969697
245 0.139082
250 0.126615
255 0.060986
260 0.153869
265 0.103606
270 0.117878
275 0.0796742
280 0.164145
285 0.0955713
290 0.058477
295 0.0783176
300 0.0714016
305 0.0488655
310 0.0699746
315 0.129041
320 0.0991237
325 0.0604278
330 0.0811486
335 0.142226
340 0.125097
345 0.126602
350 0.0752267
355 0.12204
360 0.135787
365 0.0621749
370 0.077857
375 0.0944321
380 0.113225
385 0.108774
390 0.080658
395 0.0860713
400 0.076953
405 0.0615621
410 0.119185
415 0.124235
420 0.0946089
425 0.214692
430 0.156801
435 0.123682
440 0.157326
445 0.138122
450 0.150287
455 0.195574
460 0.245013
465 0.397201
470 0.322915
475 0.319216
480 0.503777
485 0.451481
490 0.732269
495 1.09827
500 1.80026
505 79.9468
510 1280.94
515 1896.97
520 466.787
525 55.7373
530 7.98239
535 2.24916
540 1.22888
545 0.76737
550 0.833348
555 0.824882
560 0.869566
565 0.610142
570 0.665864
575 0.521174
580 0.530697
585 0.391287
590 0.295596
595 0.37548
600 1.0274
Ex : 523
200 0.102938
205 0.111836
210 0.067541
215 0.0431383
220 0.119992
225 0.067721
230 0.0690811
235 0.103177
240 0.161598
245 0.103011
250 0.07494
255 0.0907986
260 0.0811318
265 0.0886395
270 0.0893348
275 0.0793875
280 0.0890167
285 0.105273
290 0.0862955
295 0.0774289
300 0.123886
305 0.0650471
310 0.0744827
315 0.0832708
320 0.0772227
325 0.106856
330 0.100355
335 0.141304
340 0.0651079
345 0.0994931
350 0.115563
355 0.148001
360 0.120724
365 0.075183
370 0.0734564
375 0.148131
380 0.077573
385 0.0974585
390 0.14908
395 0.0862027
400 0.137194
405 0.0811984
410 0.17607
415 0.108403
420 0.163428
425 0.116524
430 0.188736
435 0.153203
440 0.107934
445 0.215898
450 0.115361
455 0.254445
460 0.177623
465 0.147265
470 0.244708
475 0.285673
480 0.343217
485 0.339302
490 0.470271
495 0.601732
500 1.07837
505 1.79869
510 74.1147
515 1243.78
520 1894.44
525 486.195
530 57.7971
535 8.04704
540 2.16724
545 1.29845
550 0.880362
555 0.889751
560 0.942837
565 0.564219
570 0.590137
575 0.427645
580 0.527092
585 0.508047
590 0.419862
595 0.385631
600 0.838411
Ex : 528
200 0.147321
205 0.0970524
210 0.0846683
215 0.0873223
220 0.112862
225 0.0926844
230 0.103456
235 0.0572109
240 0.0870345
245 0.078402
250 0.0753355
255 0.0989774
260 0.0925604
265 0.0970026
270 0.105673
275 0.129482
280 0.0525907
285 0.077886
290 0.0714943
295 0.108011
300 0.0802172
305 0.0527549
310 0.0566373
315 0.0948916
320 0.11058
325 0.1659
330 0.19612
335 0.12299
340 0.0691791
345 0.092797
350 0.0458116
355 0.0937352
360 0.113983
365 0.120858
370 0.148528
375 0.0978826
380 0.176123
385 0.103199
390 0.141716
395 0.103698
400 0.10366
405 0.0863183
410 0.14212
415 0.151559
420 0.184494
425 0.106154
430 0.0891839
435 0.158849
440 0.164029
445 0.215745
450 0.158163
455 0.181704
460 0.2344
465 0.227334
470 0.292112
475 0.220676
480 0.308175
485 0.274321
490 0.383468
495 0.437493
500 0.669506
505 1.0417
510 2.03698
515 70.2185
520 1240.91
525 1885.81
530 475.536
535 56.7577
540 7.89471
545 2.0581
550 0.986049
555 0.720509
560 0.590524
565 0.654738
570 0.650833
575 0.560533
580 0.39565
585 0.259429
590 0.354721
595 0.284573
600 0.273249
Ex : 533
200 0.157901
205 0.0647354
210 0.0899483
215 0.100149
220 0.119046
225 0.0868572
230 0.110121
235 0.0446933
240 0.092189
245 0.101093
250 0.142362
255 0.119923
260 0.137783
265 0.132196
270 0.0783118
275 0.0873846
280 0.152351
285 0.162746
290 0.135064
295 0.0617408
300 0.0581963
305 0.0695355
310 0.0752924
315 0.0558814
320 0.104539
325 0.116645
330 0.0944751
335 0.0948564
340 0.0720857
345 0.0666847
350 0.122832
355 0.132827
360 0.113383
365 0.12459
370 0.165788
375 0.0928385
380 0.214111
385 0.101553
390 0.204526
395 0.175673
400 0.172021
405 0.136294
410 0.27889
415 0.161694
420 0.151655
425 0.107057
430 0.172641
435 0.176359
440 0.174299
445 0.170462
450 0.154348
455 0.170773
460 0.229776
465 0.184222
470 0.252264
475 0.220079
480 0.203787
485 0.232034
490 0.264282
495 0.31955
500 0.470145
505 0.592107
510 0.961442
515 1.83847
520 70.407
525 1200.59
530 1870.32
535 484.234
540 57.5665
545 7.85552
550 1.88664
555 0.989994
560 0.693583
565 0.507175
570 0.61056
575 0.581418
580 0.360965
585 0.317429
590 0.321388
595 0.383441
600 0.206882
Ex : 538
200 0.182288
205 0.0874696
210 0.115509
215 0.0830715
220 0.0736726
225 0.102236
230 0.0910917
235 0.0990793
240 0.0617468
245 0.102537
250 0.15962
255 0.108235
260 0.0850553
265 0.0903595
270 0.113066
275 0.109862
280 0.07288
285 0.0962435
290 0.103876
295 0.0719082
300 0.152007
305 0.105953
310 0.119739
315 0.116272
320 0.0932148
325 0.0765187
330 0.0530586
335 0.0938848
340 0.15537
345 0.113339
350 0.188046
355 0.10575
360 0.122997
365 0.117387
370 0.167884
375 0.145523
380 0.141244
385 0.163812
390 0.175568
395 0.200588
400 0.1172
405 0.152213
410 0.101809
415 0.137145
420 0.138746
425 0.239806
430 0.147249
435 0.122384
440 0.127057
445 0.140877
450 0.128157
455 0.158145
460 0.172989
465 0.203925
470 0.174419
475 0.195442
480 0.225762
485 0.321788
490 0.185036
495 0.310812
500 0.368914
505 0.471296
510 0.660403
515 0.96124
520 1.72012
525 59.6294
530 1145.73
535 1875.06
540 505.593
545 60.4148
550 8.05295
555 1.87556
560 1.0256
565 0.50278
570 0.54973
575 0.502175
580 0.518814
585 0.445205
590 0.351212
595 0.493471
600 0.0561551
Ex : 543
200 0.131932
205 0.0800254
210 0.0973014
215 0.0858312
220 0.106923
225 0.12269
230 0.100464
235 0.157615
240 0.103064
245 0.0805296
250 0.109348
255 0.168491
260 0.0795858
265 0.137082
270 0.0843186
275 0.14619
280 0.183212
285 0.110999
290 0.126665
295 0.07586
300 0.172952
305 0.123322
310 0.133282
315 0.102073
320 0.0918117
325 0.132327
330 0.110854
335 0.115843
340 0.132988
345 0.0877244
350 0.136244
355 0.109219
360 0.0737213
365 0.155892
370 0.125808
375 0.171055
380 0.112619
385 0.185156
390 0.146822
395 0.147287
400 0.093905
405 0.140397
410 0.0960996
415 0.137265
420 0.11038
425 0.137719
430 0.193965
435 0.167412
440 0.124783
445 0.0982098
450 0.111781
455 0.0967161
460 0.190233
465 0.185253
470 0.224003
475 0.161327
480 0.251308
485 0.169326
490 0.214763
495 0.271434
500 0.263094
505 0.324907
510 0.518515
515 0.666752
520 1.02865
525 1.58131
530 54.324
535 1097.87
540 1862.45
545 514.285
550 61.623
555 8.22125
560 1.78192
565 0.715086
570 0.494254
575 0.491305
580 0.438582
585 0.368474
590 0.429021
595 0.34811
600 0.413788
Ex : 548
200 0.0852913
205 0.158589
210 0.130532
215 0.133902
220 0.125189
225 0.081157
230 0.169231
235 0.0761655
240 0.0784126
245 0.126896
250 0.179524
255 0.0972245
260 0.14849
265 0.0663823
270 0.0665125
275 0.175781
280 0.0898416
285 0.0987954
290 0.124315
295 0.0898396
300 0.149779
305 0.0898024
310 0.115006
315 0.139323
320 0.0881526
325 0.111539
330 0.0825425
335 0.12678
340 0.101507
345 0.122174
350 0.101205
355 0.158284
360 0.11918
365 0.16836
370 0.147366
375 0.132165
380 0.101603
385 0.172223
390 0.189636
395 0.195673
400 0.16954
405 0.188668
410 0.155761
415 0.12896
420 0.193269
425 0.124743
430 0.107318
435 0.113225
440 0.145619
445 0.162315
450 0.16153
455 0.229673
460 0.245884
465 0.213602
470 0.154792
475 0.179925
480 0.200867
485 0.25712
490 0.197101
495 0.206444
500 0.209927
505 0.259593
510 0.294048
515 0.415372
520 0.57804
525 0.932872
530 1.65855
535 61.1296
540 1104.73
545 1816.24
550 505.764
555 60.1036
560 7.80945
565 1.64301
570 0.777811
575 0.498556
580 0.449965
585 0.458907
590 0.414821
595 0.361739
600 0.180278
Ex : 553
200 0.16676
205 0.0863562
210 0.0687064
215 0.140297
220 0.15578
225 0.154523
230 0.100207
235 0.0930239
240 0.103155
245 0.0968052
250 0.135837
255 0.141986
260 0.188667
265 0.0715043
270 0.0945283
275 0.0865731
280 0.167312
285 0.153328
290 0.0868777
295 0.143151
300 0.108553
305 0.124306
310 0.136074
315 0.0677467
320 0.0999017
325 0.108447
330 0.147858
335 0.204835
340 0.0586377
345 0.114015
350 0.20806
355 0.134294
360 0.12992
365 0.11922
370 0.116106
375 0.153359
380 0.171158
385 0.107117
390 0.163352
395 0.10327
400 0.0938286
405 0.180844
410 0.229637
415 0.157944
420 0.171664
425 0.212204
430 0.136324
435 0.153499
440 0.160041
445 0.182542
450 0.186105
455 0.109496
460 0.100514
465 0.197776
470 0.1526
475 0.159546
480 0.160516
485 0.167324
490 0.312646
495 0.265976
500 0.252573
505 0.169026
510 0.279853
515 0.331632
520 0.360563
525 0.563215
530 1.02462
535 1.66536
540 51.963
545 1041.54
550 1794.85
555 502.759
560 59.9254
565 7.87208
570 1.56706
575 0.625517
580 0.412252
585 0.351318
590 0.373823
595 0.357311
600 0.885405
Ex : 558
200 0.0568976
205 0.064667
210 0.062034
215 0.0585797
220 0.0831832
225 0.165694
230 0.171013
235 0.0845293
240 0.055168
245 0.191072
250 0.179961
255 0.109992
260 0.165614
265 0.0985721
270 0.113924
275 0.0631732
280 0.0828594
285 0.0738944
290 0.0927041
295 0.0401758
300 0.0799134
305 0.0564927
310 0.0719732
315 0.06946
320 0.154609
325 0.123752
330 0.150062
335 0.106177
340 0.108724
345 0.102847
350 0.163457
355 0.127462
360 0.0818686
365 0.195512
370 0.124528
375 0.10477
380 0.0877272
385 0.118126
390 0.0957531
395 0.151381
400 0.154922
405 0.162155
410 0.17866
415 0.139625
420 0.107498
425 0.141409
430 0.213931
435 0.130803
440 0.147345
445 0.20392
450 0.213541
455 0.161788
460 0.124143
465 0.130057
470 0.155828
475 0.141145
480 0.159995
485 0.109413
490 0.17148
495 0.206851
500 0.205022
505 0.286077
510 0.278809
515 0.277621
520 0.384807
525 0.468116
530 0.620669
535 0.902959
540 1.55417
545 49.7639
550 992.309
555 1757.15
560 499.614
565 59.6448
570 7.71498
575 1.56544
580 0.65846
585 0.315902
590 0.377924
595 0.342342
600 0.377326
Ex : 563
200 0.126469
205 0.0694718
210 0.145147
215 0.105571
220 0.169034
225 0.141906
230 0.102431
235 0.130462
240 0.0913171
245 0.113644
250 0.152242
255 0.108193
260 0.0965463
265 0.125188
270 0.116557
275 0.145479
280 0.074316
285 0.0651804
290 0.120538
295 0.0730476
300 0.154853
305 0.17222
310 0.167054
315 0.15861
320 0.155674
325 0.157198
330 0.22912
335 0.0835615
340 0.111665
345 0.102347
350 0.0761442
355 0.117365
360 0.225627
365 0.100337
370 0.106689
375 0.175392
380 0.142712
385 0.154872
390 0.155205
395 0.188615
400 0.131819
405 0.164063
410 0.135924
415 0.167876
420 0.21537
425 0.220461
430 0.173371
435 0.24138
440 0.144491
445 0.145012
450 0.108104
455 0.230944
460 0.175049
465 0.191465
470 0.173456
475 0.142841
480 0.223174
485 0.20229
490 0.267834
495 0.221096
500 0.25247
505 0.216444
510 0.215231
515 0.243751
520 0.292183
525 0.35185
530 0.462009
535 0.592563
540 0.793333
545 1.44957
550 46.808
555 959.18
560 1684.48
565 487.296
570 58.1786
575 7.41306
580 1.34654
585 0.625874
590 0.302306
595 0.315086
600 0.244866
Ex : 568
200 0.119187
205 0.106746
210 0.0989732
215 0.12793
220 0.128441
225 0.119197
230 0.174165
235 0.094776
240 0.129749
245 0.0628759
250 0.114328
255 0.0794823
260 0.0752888
265 0.0946283
270 0.125255
275 0.112309
280 0.0993976
285 0.158667
290 0.107628
295 0.0986898
300 0.0563778
305 0.146523
310 0.187596
315 0.153934
320 0.0643916
325 0.0993988
330 0.189611
335 0.0747299
340 0.158734
345 0.125856
350 0.0913951
355 0.193662
360 0.190997
365 0.116626
370 0.0751832
375 0.158185
380 0.120649
385 0.127306
390 0.237006
395 0.113627
400 0.123517
405 0.167589
410 0.158657
415 0.23661
420 0.112058
425 0.116204
430 0.101223
435 0.103989
440 0.165442
445 0.160193
450 0.18557
455 0.1544
460 0.155776
465 0.191492
470 0.227391
475 0.226307
480 0.205592
485 0.167302
490 0.202708
495 0.18641
500 0.187583
505 0.156827
510 0.175149
515 0.231533
520 0.302471
525 0.345613
530 0.388745
535 0.361224
540 0.572248
545 0.802842
550 1.31306
555 35.0916
560 872.103
565 1636.08
570 491.985
575 58.9578
580 7.57406
585 1.30286
590 0.639951
595 0.275801
600 1.82106
Ex : 573
200 0.0805762
205 0.049419
210 0.189926
215 0.0771511
220 0.0678692
225 0.227928
230 0.137213
235 0.091069
240 0.15099
245 0.135947
250 0.113213
255 0.163395
260 0.079545
265 0.095029
270 0.0755024
275 0.120361
280 0.12076
285 0.122785
290 0.113307
295 0.166603
300 0.162889
305 0.104527
310 0.144365
315 0.106953
320 0.102904
325 0.193239
330 0.169189
335 0.123955
340 0.0814356
345 0.102619
350 0.137472
355 0.16719
360 0.14522
365 0.198282
370 0.147091
375 0.176283
380 0.158734
385 0.184503
390 0.209773
395 0.143355
400 0.243661
405 0.140718
410 0.0711688
415 0.217699
420 0.191069
425 0.187871
430 0.116114
435 0.0936998
440 0.187648
445 0.208694
450 0.190035
455 0.185501
460 0.154168
465 0.165929
470 0.0992654
475 0.154551
480 0.210339
485 0.195252
490 0.141005
495 0.240794
500 0.218607
505 0.139629
510 0.107166
515 0.185944
520 0.214999
525 0.200604
530 0.312364
535 0.313504
540 0.329426
545 0.488351
550 0.771244
555 1.33878
560 31.6062
565 755.782
570 1505.98
575 465.427
580 55.594
585 6.93631
590 1.18897
595 0.435085
600 0.876635
Ex : 578
200 0.0720353
205 0.087624
210 0.117646
215 0.0829338
220 0.202433
225 0.14728
230 0.0660834
235 0.070175
240 0.111664
245 0.120699
250 0.0789143
255 0.0972935
260 0.0907631
265 0.128867
270 0.157638
275 0.155796
280 0.0981338
285 0.165449
290 0.110594
295 0.17321
300 0.134267
305 0.1677
310 0.179561
315 0.153212
320 0.121857
325 0.0996853
330 0.136557
335 0.0986031
340 0.0420958
345 0.118134
350 0.113936
355 0.156165
360 0.120716
365 0.138548
370 0.130148
375 0.118984
380 0.154351
385 0.143393
390 0.169361
395 0.16345
400 0.113979
405 0.10525
410 0.192871
415 0.152332
420 0.137202
425 0.134248
430 0.204277
435 0.189573
440 0.182143
445 0.113237
450 0.175884
455 0.220407
460 0.249474
465 0.154636
470 0.191146
475 0.165429
480 0.198931
485 0.0876094
490 0.137489
495 0.122224
500 0.211118
505 0.194135
510 0.179594
515 0.258274
520 0.211771
525 0.200058
530 0.208182
535 0.351143
540 0.3244
545 0.436397
550 0.42751
555 0.681735
560 0.986084
565 27.2625
570 674.796
575 1326.22
580 404.603
585 48.1917
590 6.04317
595 1.15511
600 2.32019
Ex : 583
200 0.222764
205 0.16049
210 0.0762153
215 0.138021
220 0.119939
225 0.0803312
230 0.0568403
235 0.122294
240 0.171949
245 0.0982809
250 0.110236
255 0.211577
260 0.167259
265 0.0605439
270 0.161724
275 0.114084
280 0.0865199
285 0.201757
290 0.165823
295 0.103292
300 0.149522
305 0.115898
310 0.100157
315 0.132162
320 0.0769512
325 0.106342
330 0.13205
335 0.136111
340 0.0677154
345 0.234022
350 0.181571
355 0.209197
360 0.122674
365 0.144328
370 0.11451
375 0.0986428
380 0.126092
385 0.187662
390 0.109961
395 0.124182
400 0.129124
405 0.121667
410 0.102826
415 0.100517
420 0.155381
425 0.137338
430 0.153
435 0.145788
440 0.142546
445 0.158104
450 0.166391
455 0.149826
460 0.1483
465 0.192668
470 0.200548
475 0.173894
480 0.160054
485 0.107552
490 0.113339
495 0.147693
500 0.150949
505 0.157183
510 0.159949
515 0.116018
520 0.286551
525 0.252066
530 0.216845
535 0.224091
540 0.243472
545 0.180309
550 0.440652
555 0.4534
560 0.668163
565 0.948722
570 22.5485
575 601.841
580 1147.1
585 333.959
590 39.7055
595 4.97196
600 0.666352
Ex : 588
200 0.234142
205 0.177088
210 0.109189
215 0.162519
220 0.15127
225 0.0946116
230 0.0811447
235 0.203699
240 0.29085
245 0.145738
250 0.08771
255 0.149149
260 0.139554
265 0.166137
270 0.138554
275 0.149589
280 0.0616193
285 0.0825258
290 0.0841535
295 0.116661
300 0.110742
305 0.14817
310 0.121275
315 0.0937729
320 0.111485
325 0.0614487
330 0.123701
335 0.075653
340 0.0759921
345 0.127098
350 0.190557
355 0.1207
360 0.14564
365 0.215482
370 0.118653
375 0.114186
380 0.181699
385 0.131549
390 0.139831
395 0.164384
400 0.126818
405 0.188085
410 0.232234
415 0.18568
420 0.116678
425 0.104019
430 0.100536
435 0.11755
440 0.147819
445 0.267982
450 0.212698
455 0.170875
460 0.157288
465 0.230352
470 0.110621
475 0.167231
480 0.162235
485 0.224014
490 0.130107
495 0.185158
500 0.123289
505 0.152307
510 0.176165
515 0.196417
520 0.165531
525 0.206378
530 0.118139
535 0.0911972
540 0.119485
545 0.146442
550 0.264833
555 0.407534
560 0.388882
565 0.476737
570 0.827676
575 19.9518
580 504.522
585 985.711
590 295.653
595 35.0329
600 4.48588
Ex : 593
200 0.0862006
205 0.0685865
210 0.0596212
215 0.105987
220 0.0938444
225 0.163417
230 0.122204
235 0.0843759
240 0.0928345
245 0.122371
250 0.0764677
255 0.125523
260 0.109963
265 0.158026
270 0.1684
275 0.143015
280 0.222308
285 0.0957033
290 0.10313
295 0.151834
300 0.0763691
305 0.0631716
310 0.0864849
315 0.0815781
320 0.122519
325 0.124516
330 0.126475
335 0.123449
340 0.172978
345 0.107238
350 0.10646
355 0.271975
360 0.11803
365 0.0791061
370 0.0753988
375 0.114627
380 0.147425
385 0.166175
390 0.15515
395 0.137654
400 0.101165
405 0.11174
410 0.114135
415 0.163211
420 0.127144
425 0.246982
430 0.103769
435 0.122726
440 0.14747
445 0.282208
450 0.111512
455 0.122016
460 0.128317
465 0.16103
470 0.131196
475 0.155154
480 0.13248
485 0.119306
490 0.149443
495 0.135816
500 0.145081
505 0.113004
510 0.136478
515 0.164123
520 0.187662
525 0.122525
530 0.257291
535 0.149032
540 0.178102
545 0.254812
550 0.243331
555 0.225758
560 0.247322
565 0.344439
570 0.497471
575 0.79131
580 16.8499
585 443.714
590 839.413
595 252.716
600 35.2457
Ex : 598
200 0.156504
205 0.118026
210 0.212177
215 0.138986
220 0.106765
225 0.115323
230 0.164119
235 0.0767517
240 0.124421
245 0.128557
250 0.0786697
255 0.102995
260 0.105395
265 0.0601385
270 0.0560488
275 0.139932
280 0.16599
285 0.0849857
290 0.0721131
295 0.114123
300 0.0782287
305 0.120207
310 0.10208
315 0.0928276
320 0.096644
325 0.11798
330 0.146602
335 0.180763
340 0.133518
345 0.0934732
350 0.178104
355 0.110991
360 0.156111
365 0.262411
370 0.151264
375 0.167876
380 0.0896087
385 0.203431
390 0.173322
395 0.0976781
400 0.167365
405 0.159595
410 0.11826
415 0.154133
420 0.303094
425 0.150592
430 0.158514
435 0.073605
440 0.105473
445 0.196124
450 0.163661
455 0.176122
460 0.155263
465 0.158709
470 0.125562
475 0.234185
480 0.150762
485 0.376337
490 0.189822
495 0.199551
500 0.124532
505 0.117835
510 0.12968
515 0.137174
520 0.0988286
525 0.192923
530 0.221843
535 0.129514
540 0.235652
545 0.200244
550 0.287583
555 0.294055
560 0.248537
565 0.472657
570 0.501867
575 0.419564
580 0.571226
585 16.2779
590 398.255
595 739.605
600 466.043
Ex : 603
200 0.0988556
205 0.105834
210 0.0732033
215 0.0654877
220 0.166519
225 0.113704
230 0.138675
235 0.109941
240 0.129849
245 0.112183
250 0.09426
255 0.0902867
260 0.150183
265 0.227129
270 0.174929
275 0.117431
280 0.109283
285 0.121302
290 0.16579
295 0.104839
300 0.178115
305 0.112776
310 0.0994681
315 0.129739
320 0.085653
325 0.073211
330 0.0971639
335 0.108046
340 0.151999
345 0.128956
350 0.0759078
355 0.281087
360 0.163517
365 0.18206
370 0.0966831
375 0.0883776
380 0.0936545
385 0.0987873
390 0.139501
395 0.17002
400 0.167224
405 0.260436
410 0.151546
415 0.121038
420 0.151182
425 0.15411
430 0.184557
435 0.187021
440 0.147959
445 0.0650348
450 0.184535
455 0.23283
460 0.105445
465 0.0788427
470 0.0932716
475 0.144694
480 0.126121
485 0.11857
490 0.215312
495 0.19899
500 0.09916
505 0.115096
510 0.116001
515 0.159753
520 0.256303
525 0.104427
530 0.203178
535 0.19219
540 0.22324
545 0.307514
550 0.202492
555 0.232266
560 0.234412
565 0.219703
570 0.164355
575 0.364824
580 0.50894
585 0.641324
590 15.3076
595 342.822
600 706.962
