File format V 1.0
jeu. 5. janv. 19:09:12 2017
Operator : 
Comments : 

=============================================
SpectroFluorometer parameters
Mode : 3D measurement
Data : Fluorescence
Phospho. : Ordinary
Spectrum : Fluorescence

Scan speed : 2400 nm/mn
Response : 100 ms
PM Voltage : 700 V
Shutter : On

Lambda Ex. Start : 203
Lambda Ex. End : 603
Lambda Ex. Step : 5
Ex. Slit : 5 nm

Lambda Em. Start : 200
Lambda Em. End : 600
Lambda Em. Step : 5
Em. Slit : 5 nm

Repetition : 1
Decal lambda em : 10
=============================================
DATA
Ex : 203
200 5.39412
205 6.85028
210 3.38097
215 5.00646
220 7.82047
225 4.45097
230 2.8308
235 5.9198
240 6.57649
245 6.11773
250 4.3524
255 2.81185
260 5.43911
265 5.71729
270 7.84795
275 7.09173
280 2.72433
285 6.70536
290 4.99361
295 3.15473
300 4.18204
305 5.71584
310 3.50478
315 6.15164
320 6.87143
325 5.73947
330 3.57966
335 5.3325
340 4.47435
345 4.20418
350 6.7557
355 3.82887
360 5.52725
365 4.10166
370 4.37827
375 4.97879
380 5.72081
385 6.52481
390 5.95711
395 4.00365
400 6.15481
405 6.97811
410 5.37944
415 4.04486
420 4.64109
425 4.38829
430 4.93039
435 7.61064
440 3.6528
445 4.46183
450 3.22336
455 6.85852
460 6.37562
465 7.3942
470 9.53514
475 5.53045
480 4.44834
485 2.36671
490 7.59385
495 6.24146
500 4.81365
505 8.0029
510 3.42161
515 3.84355
520 2.75079
525 4.68704
530 3.25707
535 7.7341
540 7.63741
545 4.34137
550 5.70786
555 8.67875
560 4.11292
565 7.40487
570 8.06128
575 9.09811
580 5.66272
585 3.66255
590 4.9005
595 5.88624
600 0.669832
Ex : 208
200 4.41451
205 3.29053
210 4.50827
215 5.46627
220 3.87607
225 6.46078
230 4.09219
235 3.07681
240 3.71874
245 3.63442
250 3.86511
255 7.10012
260 4.39217
265 1.93018
270 4.51938
275 6.82786
280 6.67767
285 5.1456
290 4.08654
295 10.4651
300 4.82288
305 5.15608
310 7.54977
315 6.79263
320 4.93707
325 6.34162
330 8.32072
335 4.23342
340 9.72055
345 6.18217
350 9.29287
355 4.24361
360 5.58229
365 6.06004
370 3.9068
375 5.21847
380 6.32134
385 7.48953
390 5.35067
395 5.58727
400 11.3549
405 5.87337
410 4.51952
415 8.43346
420 5.28188
425 6.56091
430 9.20487
435 8.58021
440 5.0197
445 5.02261
450 4.00696
455 3.72421
460 7.88419
465 6.50128
470 5.36438
475 5.38802
480 3.78343
485 5.55713
490 6.9919
495 5.4367
500 4.71304
505 3.92996
510 4.47541
515 3.91579
520 9.57871
525 7.8315
530 4.80437
535 4.20669
540 10.2479
545 6.30616
550 5.159
555 2.50306
560 3.29393
565 7.93607
570 5.15687
575 5.66146
580 3.60901
585 6.09634
590 8.69863
595 8.02411
600 0.913114
Ex : 213
200 8.29444
205 5.78582
210 3.63927
215 4.17801
220 3.8601
225 6.83787
230 4.49283
235 5.98128
240 6.35645
245 5.75073
250 6.74579
255 3.96925
260 4.58059
265 4.13384
270 3.24785
275 3.51878
280 3.28426
285 3.03235
290 3.87396
295 4.60451
300 7.81325
305 10.1132
310 4.00233
315 7.12833
320 6.08812
325 3.54891
330 5.36659
335 4.77895
340 7.1715
345 6.00165
350 2.55223
355 5.01338
360 4.61802
365 3.56988
370 10.5851
375 6.7214
380 5.65151
385 4.20386
390 5.23072
395 5.02133
400 6.75862
405 6.97768
410 10.5423
415 7.39791
420 5.90731
425 6.62022
430 9.26091
435 5.09047
440 6.08198
445 5.79542
450 8.14792
455 6.33357
460 4.79524
465 5.9207
470 5.50665
475 7.92036
480 5.67117
485 4.68995
490 7.21079
495 10.6589
500 7.0225
505 4.51919
510 6.89692
515 5.52343
520 4.27021
525 4.41355
530 4.20819
535 3.02796
540 5.9622
545 7.24596
550 4.8532
555 6.88383
560 6.86231
565 4.44422
570 5.51018
575 3.8582
580 7.31957
585 2.95491
590 5.91681
595 6.5577
600 1.63245
Ex : 218
200 6.44199
205 4.60764
210 2.61103
215 3.52233
220 6.52915
225 6.3709
230 3.99128
235 4.5374
240 3.55184
245 4.49057
250 3.77889
255 4.66638
260 4.06122
265 3.72299
270 3.44332
275 5.36745
280 7.19195
285 6.38045
290 5.79972
295 5.37058
300 2.63957
305 6.41615
310 2.90033
315 4.21465
320 3.10257
325 4.29827
330 7.48381
335 4.86647
340 4.21507
345 4.47285
350 3.41458
355 6.53986
360 4.20178
365 6.25085
370 13.0631
375 9.17044
380 4.81386
385 3.94313
390 5.77493
395 5.38518
400 6.25276
405 8.72073
410 4.64146
415 4.25881
420 7.50042
425 6.0575
430 3.58139
435 3.9824
440 6.44211
445 11.0111
450 5.75872
455 4.97429
460 6.25879
465 5.4304
470 5.13163
475 5.55176
480 3.47992
485 4.56369
490 5.48542
495 5.95157
500 3.02546
505 6.37467
510 5.21685
515 5.09894
520 6.94261
525 7.56023
530 3.6516
535 5.5172
540 5.34441
545 6.99202
550 3.22229
555 6.50428
560 7.00578
565 4.67369
570 6.02212
575 4.32291
580 3.72538
585 7.46058
590 4.85349
595 3.45261
600 3.49461
Ex : 223
200 4.44974
205 5.85824
210 5.21414
215 4.00883
220 5.02176
225 6.87221
230 6.19558
235 3.5852
240 5.0922
245 8.26157
250 4.40689
255 5.90103
260 8.04815
265 4.36486
270 4.48462
275 2.62398
280 4.89638
285 3.94358
290 3.66187
295 2.16053
300 3.66862
305 6.91121
310 5.24687
315 5.13291
320 6.27058
325 5.45081
330 4.6082
335 4.22468
340 5.42304
345 5.08585
350 7.8875
355 3.28499
360 4.97741
365 3.48415
370 6.09901
375 5.29567
380 6.18105
385 5.69411
390 7.57113
395 5.62159
400 4.15026
405 5.50063
410 4.28044
415 4.45085
420 5.01095
425 6.91978
430 5.42058
435 6.65078
440 4.82489
445 5.64473
450 5.03871
455 4.93968
460 6.24304
465 4.16563
470 4.85999
475 8.95721
480 3.99675
485 3.26955
490 5.12352
495 6.27189
500 3.39282
505 4.91278
510 4.43729
515 5.1781
520 3.42891
525 4.56254
530 3.00832
535 6.25036
540 5.99324
545 5.16354
550 3.87351
555 6.69903
560 3.12394
565 4.49111
570 4.18461
575 3.18145
580 3.52056
585 2.83769
590 2.8095
595 2.8755
600 4.09359
Ex : 228
200 6.41753
205 4.15535
210 4.28007
215 3.42117
220 4.48163
225 3.31549
230 2.46653
235 3.24569
240 3.53727
245 5.5859
250 5.29046
255 5.14113
260 3.63449
265 4.19754
270 7.47677
275 4.07786
280 2.7085
285 5.49749
290 4.20011
295 6.44098
300 3.35024
305 7.97728
310 6.28409
315 8.71476
320 6.65465
325 5.39449
330 8.24608
335 7.67831
340 3.00351
345 4.75453
350 1.77636
355 3.87356
360 4.81433
365 2.83901
370 6.91421
375 4.82771
380 6.1812
385 6.51457
390 3.86963
395 5.11705
400 6.23309
405 5.29197
410 5.01931
415 5.593
420 8.33855
425 6.10236
430 4.77677
435 6.91778
440 5.96949
445 6.70639
450 5.54866
455 4.83967
460 5.57106
465 3.53012
470 4.4404
475 5.82252
480 7.3578
485 4.4091
490 4.79025
495 3.3745
500 4.73107
505 6.19749
510 7.01449
515 5.1636
520 4.7786
525 2.484
530 3.09562
535 5.63237
540 3.89199
545 7.84503
550 6.29012
555 5.92875
560 7.95354
565 4.31828
570 3.48872
575 5.25861
580 5.1507
585 3.07745
590 5.29304
595 6.53135
600 6.06046
Ex : 233
200 4.24121
205 3.62258
210 4.62492
215 5.16914
220 5.00554
225 4.2357
230 3.56617
235 2.49503
240 4.12131
245 4.16585
250 5.90468
255 3.79119
260 2.90257
265 5.99734
270 9.35461
275 7.52551
280 3.76329
285 6.77563
290 6.19355
295 5.45887
300 4.13943
305 5.26482
310 6.48704
315 3.88172
320 3.3132
325 4.93337
330 5.57713
335 6.90074
340 6.8879
345 4.24444
350 5.50054
355 3.95592
360 3.32269
365 3.25128
370 4.60914
375 5.82907
380 5.90601
385 4.64684
390 3.44934
395 4.90522
400 4.09862
405 6.54069
410 7.43027
415 3.3653
420 3.75224
425 3.89722
430 2.87612
435 6.10707
440 5.94972
445 4.93352
450 4.49316
455 4.45702
460 6.23207
465 6.23662
470 6.685
475 5.31891
480 4.97503
485 4.44276
490 4.978
495 4.16292
500 7.03333
505 8.69486
510 5.95971
515 7.48151
520 5.45363
525 9.04572
530 5.29422
535 4.60108
540 5.91824
545 4.99868
550 4.51687
555 4.88508
560 4.57453
565 2.23926
570 2.65702
575 5.02587
580 2.77866
585 4.43392
590 3.53353
595 1.94651
600 0.221505
Ex : 238
200 6.0375
205 2.89845
210 2.5924
215 5.23529
220 5.30009
225 4.23697
230 3.178
235 4.2422
240 4.23237
245 7.42105
250 5.16521
255 3.45924
260 3.39191
265 4.45596
270 3.98832
275 3.23849
280 3.33468
285 3.91668
290 4.94762
295 4.95013
300 4.79221
305 3.16927
310 3.72896
315 4.01946
320 3.74901
325 6.52371
330 7.13258
335 6.57779
340 5.30447
345 5.77315
350 2.62371
355 4.02383
360 3.19503
365 3.56286
370 2.4157
375 3.11686
380 3.96197
385 4.65933
390 4.36255
395 3.92204
400 2.50276
405 2.13778
410 4.30436
415 4.51839
420 3.65298
425 3.59744
430 5.32243
435 4.29493
440 4.44473
445 5.95459
450 3.98249
455 4.08184
460 3.3905
465 4.87223
470 4.06367
475 6.85522
480 7.85397
485 4.35474
490 3.9598
495 5.26812
500 4.10578
505 6.98139
510 2.67666
515 3.26115
520 5.14049
525 5.90219
530 3.21397
535 3.80277
540 2.86879
545 4.33566
550 4.77044
555 9.35277
560 5.61509
565 3.99273
570 3.70631
575 3.52918
580 7.54789
585 5.05693
590 5.05488
595 10.13
600 1.15275
Ex : 243
200 1.98438
205 2.77769
210 4.1202
215 3.69275
220 4.68293
225 3.0274
230 3.39736
235 3.41587
240 2.6843
245 2.40168
250 2.97745
255 2.23254
260 3.24715
265 2.85704
270 4.08193
275 4.66949
280 4.70134
285 2.83075
290 3.90641
295 3.15569
300 3.26641
305 2.71142
310 3.38676
315 2.75582
320 4.26277
325 2.64769
330 4.46201
335 3.64022
340 4.21126
345 3.29301
350 3.89196
355 2.44119
360 3.74992
365 3.46318
370 3.07926
375 3.09082
380 3.47471
385 3.42061
390 4.69269
395 5.08542
400 5.61876
405 5.34668
410 3.47337
415 2.86783
420 3.99306
425 3.8075
430 4.62198
435 4.5608
440 3.52262
445 2.2532
450 2.65155
455 3.37851
460 3.57946
465 2.78503
470 2.86431
475 4.17659
480 4.10806
485 4.28816
490 2.65613
495 4.41678
500 4.52137
505 3.32786
510 5.53385
515 2.92405
520 1.7269
525 3.97472
530 4.24011
535 1.91716
540 3.57571
545 4.14787
550 2.34968
555 3.42322
560 4.82057
565 4.58965
570 5.23972
575 4.65414
580 3.76107
585 2.99735
590 3.5905
595 4.29117
600 0.488319
Ex : 248
200 4.54485
205 1.87641
210 1.76514
215 4.31435
220 1.89411
225 2.94753
230 4.5567
235 4.09148
240 6.84917
245 2.90395
250 3.33505
255 1.95666
260 2.44107
265 1.94433
270 3.96525
275 2.58512
280 2.04512
285 2.78842
290 4.41414
295 2.67255
300 3.54955
305 2.70318
310 4.43039
315 2.61559
320 2.70868
325 2.10629
330 3.0249
335 3.169
340 2.58493
345 3.37239
350 2.51884
355 5.69513
360 3.73242
365 4.15735
370 4.995
375 3.42591
380 2.55219
385 3.11502
390 3.16527
395 3.28467
400 2.48407
405 3.45312
410 2.11645
415 3.51951
420 2.69976
425 5.16783
430 5.37419
435 2.35584
440 3.09933
445 3.10143
450 2.94314
455 5.107
460 3.83737
465 2.65219
470 1.98295
475 3.52186
480 1.65281
485 4.72988
490 3.86151
495 5.0211
500 3.64336
505 3.2082
510 2.81653
515 5.8466
520 2.83363
525 2.17709
530 2.40571
535 2.94427
540 3.1399
545 3.29411
550 2.17074
555 3.05431
560 4.15321
565 3.37868
570 3.70846
575 5.87715
580 4.19546
585 4.43542
590 2.2115
595 2.67452
600 1.04285
Ex : 253
200 2.20479
205 3.50863
210 4.54993
215 1.77403
220 3.93572
225 3.23786
230 2.95717
235 2.19484
240 2.96361
245 1.9961
250 2.50666
255 2.4839
260 1.87686
265 2.77292
270 2.62017
275 1.89131
280 2.68255
285 2.5628
290 2.47382
295 3.30255
300 2.10717
305 5.84515
310 5.24346
315 2.14199
320 1.90254
325 1.78477
330 1.73984
335 2.37595
340 1.45282
345 1.80834
350 2.01172
355 3.1854
360 3.42841
365 2.1844
370 2.48122
375 2.72672
380 2.68512
385 2.46552
390 3.45186
395 3.35752
400 3.8555
405 2.70402
410 4.15496
415 3.46376
420 3.11573
425 1.45402
430 2.19453
435 2.35904
440 2.36156
445 3.66184
450 2.78644
455 4.84519
460 3.00678
465 2.57453
470 2.50369
475 2.14476
480 3.45474
485 3.30766
490 2.95358
495 3.81745
500 4.42751
505 3.56419
510 2.31844
515 3.34703
520 3.13768
525 2.67333
530 1.60365
535 2.18502
540 2.97466
545 1.99148
550 2.94077
555 2.79002
560 2.57901
565 2.33708
570 2.19768
575 2.73048
580 1.40863
585 3.37217
590 1.41319
595 1.75647
600 0.19988
Ex : 258
200 2.93657
205 1.38798
210 1.40257
215 1.6746
220 1.87454
225 2.49269
230 2.70865
235 2.91686
240 1.57529
245 2.93289
250 2.35406
255 2.87414
260 1.6701
265 1.9078
270 1.82099
275 1.45845
280 1.1785
285 0.983629
290 1.175
295 2.42323
300 2.70936
305 1.87119
310 3.37603
315 2.26331
320 1.67012
325 3.34878
330 2.6793
335 2.20248
340 1.51286
345 2.74494
350 2.85555
355 2.11301
360 2.9999
365 1.32583
370 1.96418
375 2.52725
380 2.33237
385 1.65122
390 1.62489
395 2.72322
400 2.44432
405 1.98997
410 2.41647
415 2.75079
420 2.46174
425 1.64742
430 1.88991
435 1.33614
440 2.55413
445 3.72321
450 2.85574
455 2.35826
460 2.61864
465 2.18995
470 2.70209
475 2.14488
480 2.62956
485 2.19124
490 2.19203
495 2.28479
500 1.83463
505 2.36866
510 2.40414
515 2.84105
520 3.54675
525 4.48999
530 2.96315
535 2.63788
540 3.0718
545 2.0384
550 2.2491
555 3.14947
560 1.8143
565 2.53597
570 2.11505
575 2.7366
580 2.95847
585 2.18228
590 1.52118
595 2.51535
600 0.286238
Ex : 263
200 0.670103
205 1.4288
210 1.26806
215 1.93832
220 1.86141
225 2.03971
230 1.42036
235 1.20015
240 1.35763
245 2.65598
250 2.82141
255 1.58196
260 1.31122
265 2.23386
270 1.034
275 1.03132
280 0.776647
285 0.96844
290 0.805416
295 2.87111
300 1.2437
305 1.70082
310 1.18561
315 1.0652
320 0.810486
325 1.74925
330 1.54128
335 2.4533
340 2.56127
345 2.01762
350 1.00861
355 1.26126
360 2.03712
365 1.37669
370 2.19097
375 1.31337
380 1.17461
385 1.9233
390 1.84798
395 1.83349
400 1.65497
405 1.77514
410 1.89967
415 1.95514
420 2.36453
425 2.14862
430 2.29136
435 1.7631
440 1.63019
445 1.42068
450 1.88663
455 1.09499
460 1.50247
465 1.24826
470 1.28079
475 1.58137
480 1.9327
485 1.36174
490 1.80901
495 1.35761
500 1.71575
505 2.78569
510 2.41181
515 2.35672
520 1.91377
525 2.19343
530 2.23774
535 2.36164
540 1.90646
545 1.83787
550 1.65248
555 1.5015
560 1.92954
565 2.05992
570 0.835873
575 1.393
580 1.3759
585 2.24047
590 1.09193
595 1.14423
600 1.45951
Ex : 268
200 1.39535
205 0.963764
210 0.643857
215 0.668101
220 1.13289
225 1.05317
230 1.08998
235 1.22644
240 1.1575
245 0.844827
250 1.64851
255 1.8744
260 1.35182
265 1.34391
270 0.955828
275 1.03292
280 1.14055
285 1.40852
290 1.439
295 0.791685
300 1.08753
305 0.961666
310 1.29631
315 1.49445
320 1.54446
325 1.38878
330 0.858187
335 1.69603
340 2.41335
345 1.00926
350 1.15444
355 1.33071
360 1.26882
365 0.957241
370 1.12225
375 1.31747
380 1.58074
385 2.31941
390 1.31813
395 2.23504
400 1.38191
405 1.19298
410 1.7655
415 1.48871
420 2.24702
425 1.51467
430 1.15799
435 1.36587
440 1.31478
445 1.82074
450 1.1191
455 1.73676
460 1.78049
465 1.75407
470 2.0145
475 1.04078
480 1.39106
485 1.00635
490 1.99859
495 1.67636
500 1.80015
505 1.60406
510 1.07968
515 1.83058
520 1.83708
525 1.55535
530 2.4572
535 2.20786
540 1.6205
545 1.81423
550 1.07799
555 1.56275
560 1.92737
565 1.04483
570 0.661819
575 0.850439
580 2.03131
585 0.939155
590 1.03297
595 1.37168
600 0.156092
Ex : 273
200 1.19956
205 1.03527
210 0.920502
215 0.992897
220 1.39649
225 0.564765
230 0.716096
235 1.20705
240 1.20691
245 1.29335
250 1.09892
255 1.2703
260 0.881908
265 1.57144
270 0.957431
275 1.18938
280 0.407721
285 0.71907
290 2.05215
295 1.24085
300 0.617329
305 2.20555
310 0.851949
315 0.775871
320 1.11023
325 1.25477
330 1.54122
335 1.48163
340 1.46299
345 1.48299
350 1.24111
355 1.34969
360 1.30733
365 2.10874
370 1.59721
375 1.1814
380 1.55101
385 1.45569
390 1.54519
395 1.02918
400 1.11202
405 1.4317
410 2.494
415 1.91399
420 1.73618
425 1.15444
430 1.24918
435 1.15733
440 1.34456
445 1.24913
450 1.6442
455 1.09626
460 0.847576
465 1.28811
470 1.43231
475 1.15437
480 1.64683
485 2.15608
490 1.23961
495 1.14209
500 1.6221
505 1.34657
510 1.0453
515 2.10537
520 1.47239
525 1.10004
530 1.63911
535 1.99363
540 1.70713
545 1.69738
550 1.08035
555 0.911112
560 1.16693
565 1.23432
570 1.01586
575 0.906576
580 0.630286
585 0.853844
590 1.10133
595 1.30114
600 1.65076
Ex : 278
200 0.863472
205 0.401201
210 0.897991
215 0.866019
220 0.673494
225 1.3106
230 0.888051
235 1.00731
240 0.675944
245 0.616912
250 1.0699
255 0.857845
260 0.796496
265 0.667185
270 0.739968
275 1.28146
280 1.07768
285 0.702726
290 0.773867
295 0.540371
300 1.11977
305 1.11688
310 0.643449
315 0.750672
320 1.20097
325 0.770245
330 0.812282
335 0.694445
340 0.764076
345 1.44355
350 1.35283
355 0.729131
360 1.27316
365 1.24064
370 0.923645
375 0.898662
380 0.89629
385 0.907266
390 0.94614
395 1.60524
400 1.19009
405 0.954532
410 1.32675
415 1.62557
420 1.36791
425 0.986231
430 1.05479
435 0.785284
440 0.948956
445 1.0047
450 1.62186
455 1.54136
460 1.23611
465 0.972035
470 0.880448
475 0.973598
480 0.926969
485 0.994918
490 0.53762
495 0.946577
500 1.37602
505 1.24836
510 0.627704
515 1.4432
520 1.04804
525 0.763627
530 1.06285
535 1.23416
540 0.632599
545 0.908105
550 1.51789
555 1.53317
560 1.20111
565 1.23023
570 0.616309
575 1.25877
580 0.943066
585 0.880613
590 0.482195
595 0.727109
600 1.00177
Ex : 283
200 0.677014
205 0.501639
210 0.403947
215 0.495376
220 0.923209
225 0.525326
230 0.444022
235 0.605073
240 0.764164
245 0.545132
250 0.84088
255 0.727252
260 0.546865
265 0.604832
270 0.520945
275 0.815715
280 1.12986
285 0.670549
290 0.539131
295 0.846502
300 1.11136
305 0.67295
310 0.569359
315 0.562568
320 0.886248
325 0.582586
330 0.875642
335 0.487234
340 0.602671
345 0.538839
350 0.761339
355 0.970847
360 0.839709
365 0.606395
370 0.998815
375 1.03765
380 0.725516
385 1.13559
390 1.01543
395 1.47391
400 0.980413
405 0.80032
410 1.0427
415 0.983521
420 1.09331
425 0.740817
430 1.28111
435 0.933886
440 0.915067
445 0.895361
450 1.36473
455 1.31177
460 0.770489
465 1.22632
470 0.934725
475 0.926388
480 0.776706
485 0.675215
490 0.79231
495 1.21529
500 0.565211
505 1.02683
510 0.466102
515 0.582764
520 0.545523
525 0.427729
530 0.741843
535 0.719442
540 0.879723
545 0.502809
550 0.670794
555 1.3549
560 1.76131
565 1.17406
570 0.840027
575 0.990458
580 0.826816
585 0.610874
590 0.497383
595 0.368486
600 0.27063
Ex : 288
200 0.435993
205 0.739627
210 0.512144
215 0.394657
220 0.721092
225 0.902514
230 0.676981
235 0.539741
240 0.426426
245 0.34764
250 0.503868
255 0.548328
260 0.449767
265 0.491201
270 1.00836
275 0.906438
280 0.57701
285 0.742699
290 0.544715
295 0.476781
300 0.398922
305 0.651423
310 0.782981
315 0.909186
320 0.527469
325 0.587566
330 0.632631
335 0.621895
340 0.523594
345 0.636389
350 0.877701
355 0.436469
360 0.551702
365 0.967263
370 0.865595
375 0.740791
380 0.614687
385 0.686511
390 0.51539
395 0.728883
400 0.697951
405 1.02881
410 1.12996
415 0.680646
420 0.869936
425 0.723897
430 0.758675
435 0.742823
440 0.934391
445 0.652878
450 0.726616
455 1.01831
460 0.859147
465 1.00569
470 0.778128
475 0.645954
480 0.871312
485 0.910244
490 0.641198
495 0.751535
500 0.576921
505 0.658491
510 0.507551
515 0.520391
520 0.540947
525 0.691053
530 0.604858
535 0.614187
540 0.657887
545 0.626108
550 0.509359
555 0.54366
560 0.821706
565 1.01208
570 1.12392
575 0.923932
580 0.815107
585 0.875798
590 0.873632
595 0.986176
600 1.50141
Ex : 293
200 0.420298
205 0.723955
210 0.537358
215 0.820685
220 0.523341
225 0.271008
230 0.55481
235 0.491835
240 0.290204
245 0.447873
250 0.523163
255 0.390031
260 0.495828
265 0.443337
270 0.4312
275 0.38658
280 0.584418
285 0.605974
290 0.56245
295 0.284963
300 0.547684
305 0.45688
310 0.412441
315 0.616264
320 0.609087
325 0.50367
330 0.363503
335 0.847436
340 0.747724
345 0.589615
350 0.49641
355 0.504356
360 0.524544
365 0.653485
370 0.550966
375 0.674984
380 0.736025
385 0.79687
390 0.760246
395 1.08668
400 0.837122
405 0.730039
410 0.778871
415 1.04865
420 0.75051
425 0.613336
430 0.662203
435 0.603408
440 0.661038
445 0.728817
450 0.964389
455 0.629958
460 0.439563
465 0.676801
470 0.882657
475 1.21395
480 0.571999
485 0.667899
490 0.629822
495 0.365182
500 0.825487
505 0.769928
510 0.486004
515 0.630837
520 0.672683
525 0.454795
530 0.936993
535 0.595632
540 0.637111
545 0.472583
550 0.356706
555 0.520245
560 0.440431
565 0.552572
570 0.643172
575 1.0941
580 1.04946
585 0.93914
590 0.665094
595 0.73533
600 0.0836777
Ex : 298
200 0.361997
205 0.49731
210 0.283257
215 0.544545
220 0.521817
225 0.3915
230 0.497977
235 0.555511
240 0.513493
245 0.273672
250 0.204162
255 0.433138
260 0.304878
265 0.387185
270 0.385952
275 0.367036
280 0.28096
285 0.419125
290 0.672719
295 0.658317
300 0.331403
305 0.519087
310 0.659774
315 0.328691
320 0.596722
325 0.501938
330 0.438702
335 0.563616
340 0.502536
345 0.837734
350 0.56819
355 0.627445
360 0.665891
365 0.76915
370 0.653758
375 0.602574
380 1.07384
385 0.601506
390 0.67392
395 0.695593
400 0.64028
405 0.832523
410 0.627611
415 0.602152
420 0.574807
425 0.837557
430 0.674847
435 0.728814
440 0.772435
445 0.60383
450 0.613377
455 0.537669
460 0.763979
465 0.779272
470 0.592982
475 0.529137
480 0.428917
485 0.629397
490 0.520448
495 0.471479
500 0.417497
505 0.377931
510 0.593235
515 0.616052
520 0.498913
525 0.700647
530 0.370954
535 0.52272
540 0.460395
545 0.576339
550 0.451552
555 0.340203
560 0.433496
565 0.504485
570 0.479705
575 0.330047
580 0.488419
585 0.846878
590 1.29861
595 1.12961
600 0.493453
Ex : 303
200 0.321101
205 0.420573
210 0.252096
215 0.417631
220 0.32433
225 0.541225
230 0.418518
235 0.403873
240 0.352012
245 0.208892
250 0.218183
255 0.476973
260 0.251449
265 0.342248
270 0.221955
275 0.273184
280 0.467993
285 0.456888
290 0.491349
295 0.501485
300 0.798577
305 0.325824
310 0.282175
315 0.435383
320 0.362197
325 0.463082
330 0.516882
335 0.401556
340 0.43209
345 0.606507
350 0.467739
355 0.527119
360 0.581134
365 0.854144
370 0.60168
375 0.692751
380 0.685052
385 0.590182
390 0.538591
395 0.728503
400 0.650326
405 0.615315
410 0.824124
415 0.929642
420 0.490416
425 0.605339
430 0.716962
435 0.573685
440 0.530048
445 0.847462
450 0.791926
455 0.580374
460 0.668054
465 0.663974
470 0.564657
475 0.699027
480 0.964331
485 0.402632
490 0.530433
495 0.267425
500 0.530342
505 0.379441
510 0.456385
515 0.520003
520 0.453475
525 0.28915
530 0.299629
535 0.41911
540 0.392288
545 0.327941
550 0.508478
555 0.324928
560 0.421421
565 0.239405
570 0.221923
575 0.36045
580 0.337843
585 0.295053
590 0.246507
595 0.576233
600 1.12902
Ex : 308
200 0.241367
205 0.290966
210 0.244422
215 0.288353
220 0.257389
225 0.23363
230 0.252114
235 0.315021
240 0.219136
245 0.478243
250 0.392927
255 0.241408
260 0.253709
265 0.203739
270 0.218292
275 0.353294
280 0.260669
285 0.391577
290 0.315232
295 0.546328
300 0.668764
305 0.490528
310 0.430933
315 0.241814
320 0.277552
325 0.475152
330 0.386202
335 0.502394
340 0.597894
345 0.60088
350 0.582083
355 0.500817
360 0.762546
365 0.612436
370 0.474717
375 0.720217
380 0.617658
385 0.492259
390 0.674507
395 0.673264
400 0.703064
405 0.706232
410 0.498317
415 0.386125
420 0.437117
425 0.53174
430 0.482024
435 0.7434
440 0.502453
445 0.734515
450 0.447872
455 0.593413
460 0.493238
465 0.602817
470 0.591471
475 0.616208
480 0.570657
485 0.460659
490 0.256381
495 0.55891
500 0.44225
505 0.485015
510 0.214247
515 0.425201
520 0.365154
525 0.400616
530 0.491835
535 0.555974
540 0.389336
545 0.456998
550 0.437458
555 0.330833
560 0.415939
565 0.346872
570 0.441082
575 0.375967
580 0.247817
585 0.224209
590 0.408108
595 0.232223
600 0.0264261
Ex : 313
200 0.204069
205 0.289029
210 0.223123
215 0.393694
220 0.297767
225 0.396162
230 0.198767
235 0.207324
240 0.288473
245 0.395067
250 0.311499
255 0.194829
260 0.174674
265 0.145072
270 0.37224
275 0.177359
280 0.286479
285 0.136908
290 0.286349
295 0.225071
300 0.264966
305 0.452309
310 0.581499
315 0.487249
320 0.528216
325 0.291773
330 0.365529
335 0.381902
340 0.611141
345 0.415428
350 0.300283
355 0.514732
360 0.410787
365 0.491618
370 0.589514
375 0.704749
380 0.55313
385 0.631023
390 0.70761
395 0.977578
400 0.817725
405 0.906663
410 1.01491
415 0.765756
420 0.881008
425 0.868693
430 0.851879
435 0.720839
440 0.679833
445 0.605989
450 0.659852
455 0.41992
460 0.4887
465 0.733777
470 0.499028
475 0.438621
480 0.418418
485 0.532513
490 0.435582
495 0.398011
500 0.47859
505 0.363533
510 0.312404
515 0.369333
520 0.418713
525 0.228511
530 0.351593
535 0.454385
540 0.261562
545 0.305818
550 0.316862
555 0.416795
560 0.695805
565 0.385756
570 0.226606
575 0.357466
580 0.357141
585 0.280221
590 0.424781
595 0.375266
600 0.0427039
Ex : 318
200 0.216093
205 0.29899
210 0.299041
215 0.267406
220 0.239034
225 0.260197
230 0.266465
235 0.394707
240 0.301304
245 0.127623
250 0.316179
255 0.313925
260 0.195192
265 0.172907
270 0.297352
275 0.20586
280 0.18372
285 0.269053
290 0.497292
295 0.549542
300 0.434567
305 0.327591
310 0.39017
315 1.11494
320 0.516893
325 0.41872
330 0.577776
335 0.659103
340 0.811782
345 1.12656
350 1.52773
355 2.18202
360 2.46477
365 3.37778
370 3.72877
375 4.54255
380 5.20283
385 5.31904
390 6.3522
395 6.0701
400 6.58847
405 6.94182
410 6.94999
415 6.84677
420 6.44813
425 6.49688
430 6.20068
435 5.79779
440 5.53232
445 5.27287
450 4.96155
455 4.53227
460 4.49281
465 3.90416
470 3.66891
475 3.36823
480 3.23755
485 2.62984
490 2.48233
495 2.01646
500 1.85485
505 1.48691
510 1.49561
515 1.24321
520 1.07879
525 0.957872
530 0.916682
535 0.535421
540 0.774115
545 0.464884
550 0.499701
555 0.382408
560 0.26428
565 0.422281
570 0.343135
575 0.288209
580 0.1809
585 0.247842
590 0.329715
595 0.31933
600 0.0465248
Ex : 323
200 0.182775
205 0.16511
210 0.100035
215 0.21246
220 0.274017
225 0.189456
230 0.330781
235 0.1921
240 0.16049
245 0.227099
250 0.341673
255 0.320212
260 0.133327
265 0.199036
270 0.377174
275 0.235499
280 0.228727
285 0.214527
290 0.170148
295 0.332052
300 0.222992
305 0.289452
310 0.288694
315 5.38232
320 25.4576
325 11.2323
330 2.65349
335 2.60828
340 3.79659
345 4.81266
350 7.04407
355 10.7087
360 12.6999
365 15.5162
370 18.0291
375 22.0935
380 24.3841
385 27.8012
390 28.9652
395 31.3174
400 32.2504
405 32.1706
410 32.2344
415 32.1445
420 31.2234
425 29.2268
430 27.8712
435 28.0208
440 26.6458
445 25.8008
450 24.0606
455 21.9843
460 20.243
465 19.1566
470 17.8238
475 15.9663
480 14.6789
485 13.4218
490 12.5363
495 10.7054
500 8.78586
505 8.30651
510 6.66377
515 6.20693
520 5.26645
525 4.50001
530 3.81735
535 3.26733
540 2.74375
545 2.50341
550 2.04333
555 1.64564
560 1.39422
565 1.02399
570 1.00252
575 0.526788
580 0.544542
585 0.669252
590 0.401598
595 0.461148
600 0.535063
Ex : 328
200 0.217261
205 0.227836
210 0.178986
215 0.147493
220 0.0917127
225 0.222588
230 0.213405
235 0.312205
240 0.129817
245 0.070124
250 0.276748
255 0.179386
260 0.187499
265 0.193799
270 0.201327
275 0.197096
280 0.285485
285 0.362117
290 0.310704
295 0.144573
300 0.378018
305 0.255174
310 0.299581
315 1.57944
320 63.6005
325 161.102
330 49.4659
335 9.28664
340 5.85524
345 7.1652
350 9.152
355 12.6925
360 17.9879
365 20.0457
370 21.8335
375 24.5982
380 28.1501
385 31.2368
390 34.0882
395 35.707
400 38.1681
405 38.7404
410 38.183
415 37.8917
420 37.7115
425 34.9015
430 33.6764
435 32.2988
440 31.8231
445 29.1354
450 27.9109
455 26.0543
460 23.932
465 23.0764
470 20.5836
475 19.2082
480 17.4764
485 15.3741
490 13.7515
495 13.2911
500 10.775
505 9.47959
510 8.14271
515 7.10894
520 6.66274
525 5.68395
530 4.67578
535 3.8997
540 3.59147
545 2.96981
550 2.61081
555 2.06491
560 1.63739
565 1.44201
570 0.969526
575 1.03958
580 0.88615
585 0.703111
590 0.501995
595 0.527764
600 0.543441
Ex : 333
200 0.151808
205 0.111834
210 0.128781
215 0.112476
220 0.185586
225 0.178135
230 0.192917
235 0.241369
240 0.256823
245 0.326073
250 0.199878
255 0.174601
260 0.177455
265 0.14096
270 0.204213
275 0.271508
280 0.181895
285 0.302127
290 0.200892
295 0.217543
300 0.164885
305 0.154822
310 0.17968
315 0.412894
320 8.95014
325 194.742
330 337.975
335 90.8067
340 14.2209
345 6.42329
350 5.97535
355 6.91057
360 10.1702
365 14.6348
370 15.7017
375 15.4987
380 16.954
385 19.212
390 21.7311
395 23.1201
400 23.8267
405 23.8781
410 24.0287
415 25.381
420 24.2175
425 21.9874
430 20.9173
435 19.5659
440 18.6913
445 17.8954
450 16.7168
455 15.352
460 13.9428
465 13.3937
470 11.8145
475 11.0488
480 9.94005
485 8.88012
490 8.31891
495 7.28223
500 6.71127
505 5.72496
510 5.0342
515 4.54376
520 3.79226
525 3.75281
530 2.66069
535 2.43352
540 2.23832
545 1.84051
550 1.68511
555 1.59777
560 1.23583
565 1.03775
570 0.849855
575 0.669992
580 0.594361
585 0.515534
590 0.418555
595 0.37028
600 0.654821
Ex : 338
200 0.0818744
205 0.199038
210 0.151633
215 0.182275
220 0.152983
225 0.137111
230 0.140049
235 0.14641
240 0.156563
245 0.200664
250 0.193612
255 0.217712
260 0.113411
265 0.166519
270 0.178832
275 0.271016
280 0.171619
285 0.17317
290 0.239436
295 0.221977
300 0.164201
305 0.283131
310 0.256735
315 0.350148
320 0.362231
325 18.4274
330 300.261
335 450.111
340 113.249
345 16.3021
350 5.4296
355 4.22572
360 4.15244
365 5.96854
370 10.6665
375 10.7457
380 10.2831
385 10.8397
390 13.1518
395 14.2225
400 14.2012
405 14.1928
410 14.6698
415 15.5697
420 14.4787
425 13.3409
430 12.4537
435 11.9259
440 11.1022
445 11.2127
450 10.1855
455 9.05505
460 8.44098
465 7.9323
470 7.34114
475 6.71267
480 6.41185
485 5.20967
490 5.04798
495 4.17462
500 3.95937
505 3.50552
510 3.27312
515 2.88567
520 2.6957
525 2.15662
530 1.82202
535 1.80817
540 1.3578
545 1.44642
550 0.929175
555 0.896469
560 0.90237
565 0.941657
570 0.683039
575 0.736947
580 0.641256
585 0.540346
590 0.381135
595 0.431362
600 0.677366
Ex : 343
200 0.183951
205 0.243528
210 0.207173
215 0.217003
220 0.179366
225 0.109552
230 0.252989
235 0.163247
240 0.13812
245 0.221596
250 0.124722
255 0.256187
260 0.163887
265 0.163936
270 0.220404
275 0.290181
280 0.165114
285 0.231235
290 0.259616
295 0.175425
300 0.233923
305 0.185733
310 0.389919
315 0.25261
320 0.306326
325 0.549585
330 21.6367
335 351.472
340 512.841
345 125.914
350 16.9933
355 4.66254
360 3.15945
365 2.77357
370 3.55311
375 7.26455
380 9.45473
385 9.66266
390 10.5199
395 10.552
400 10.1968
405 11.0142
410 11.9697
415 12.7632
420 12.4598
425 11.0973
430 10.3102
435 9.79493
440 9.70865
445 9.50732
450 8.48898
455 7.67196
460 7.12356
465 6.69571
470 6.08191
475 5.70463
480 5.15336
485 4.74756
490 4.23419
495 3.69316
500 3.60285
505 3.00344
510 2.3861
515 2.55187
520 2.32455
525 1.93834
530 1.91405
535 1.5438
540 1.30333
545 1.12514
550 0.952959
555 0.894491
560 0.922082
565 0.703923
570 0.663235
575 0.555459
580 0.664665
585 0.396746
590 0.469349
595 0.32995
600 0.115919
Ex : 348
200 0.127578
205 0.0883682
210 0.152979
215 0.119886
220 0.0833809
225 0.139027
230 0.126431
235 0.128034
240 0.136097
245 0.123948
250 0.194027
255 0.196653
260 0.153167
265 0.21373
270 0.293052
275 0.121362
280 0.217199
285 0.184847
290 0.135806
295 0.328799
300 0.143533
305 0.143311
310 0.152087
315 0.152819
320 0.20353
325 0.424528
330 0.55654
335 22.5234
340 362.84
345 553.966
350 142.715
355 18.6792
360 4.67201
365 2.57032
370 2.12599
375 2.52734
380 7.29269
385 12.3474
390 14.0926
395 13.3262
400 11.9137
405 12.4767
410 14.2291
415 15.4948
420 14.6685
425 13.053
430 11.7869
435 11.3257
440 11.6029
445 11.1754
450 9.25293
455 8.97872
460 8.22748
465 7.45262
470 6.62939
475 6.45803
480 5.77378
485 5.09519
490 4.7164
495 4.08258
500 3.84023
505 3.35286
510 3.07159
515 2.76745
520 2.0789
525 1.85106
530 1.86361
535 1.58829
540 1.28048
545 1.17889
550 1.15428
555 1.01437
560 1.19841
565 1.02547
570 0.776964
575 0.556726
580 0.531851
585 0.461827
590 0.326946
595 0.322075
600 0.218295
Ex : 353
200 0.107046
205 0.095382
210 0.082342
215 0.1185
220 0.128661
225 0.186506
230 0.165372
235 0.146337
240 0.113826
245 0.140275
250 0.114362
255 0.188722
260 0.17669
265 0.161584
270 0.0990968
275 0.176935
280 0.194518
285 0.168149
290 0.173214
295 0.167412
300 0.177765
305 0.162873
310 0.123658
315 0.154147
320 0.211633
325 0.249217
330 0.287866
335 0.481605
340 23.6457
345 381.065
350 557.642
355 137.611
360 17.9672
365 4.17773
370 2.73314
375 1.92262
380 3.4438
385 9.02656
390 16.1342
395 16.2546
400 14.2858
405 13.8018
410 14.9223
415 16.7467
420 16.6664
425 14.6844
430 12.8669
435 12.4145
440 12.5138
445 11.9816
450 11.0822
455 9.3932
460 8.49921
465 7.83031
470 7.64039
475 6.99385
480 6.08617
485 5.89886
490 5.11415
495 4.67283
500 4.39774
505 3.62023
510 3.21093
515 3.08004
520 2.6703
525 2.28795
530 1.97241
535 1.62913
540 1.66142
545 1.44476
550 1.18174
555 1.01102
560 0.86485
565 0.868217
570 0.820128
575 0.579897
580 0.577804
585 0.493026
590 0.479999
595 0.414186
600 0.258379
Ex : 358
200 0.140025
205 0.155211
210 0.118561
215 0.149139
220 0.171237
225 0.131712
230 0.141066
235 0.148847
240 0.101149
245 0.139854
250 0.125324
255 0.145345
260 0.175807
265 0.115172
270 0.0987002
275 0.143902
280 0.155944
285 0.166777
290 0.0958819
295 0.178471
300 0.163066
305 0.140819
310 0.199683
315 0.102546
320 0.148835
325 0.245326
330 0.238885
335 0.26599
340 0.536267
345 23.0176
350 368.335
355 566.491
360 142.289
365 18.1808
370 3.94256
375 2.77513
380 3.57668
385 6.44452
390 11.3199
395 16.5014
400 14.9797
405 13.6375
410 14.7353
415 16.0689
420 15.8621
425 13.5632
430 12.4615
435 12.0189
440 11.9135
445 11.8283
450 10.606
455 9.58195
460 8.32989
465 8.29879
470 7.55613
475 7.10153
480 6.40158
485 5.64003
490 5.17865
495 4.64033
500 4.40149
505 3.72962
510 3.34627
515 2.9647
520 2.96383
525 2.48219
530 1.93844
535 1.78202
540 1.63322
545 1.52211
550 1.35316
555 1.22526
560 0.980524
565 0.873672
570 0.77631
575 0.573219
580 0.555434
585 0.480925
590 0.370046
595 0.346305
600 0.7577
Ex : 363
200 0.081623
205 0.138088
210 0.0784286
215 0.116975
220 0.200644
225 0.130898
230 0.128363
235 0.170389
240 0.117077
245 0.175922
250 0.123545
255 0.0860365
260 0.0889824
265 0.173994
270 0.113526
275 0.185289
280 0.13446
285 0.135575
290 0.142617
295 0.166052
300 0.135276
305 0.0957939
310 0.19057
315 0.168717
320 0.176518
325 0.139333
330 0.233367
335 0.308039
340 0.3841
345 0.758973
350 21.4304
355 358.201
360 573.096
365 150
370 19.1705
375 4.40804
380 4.72996
385 8.0646
390 11.3889
395 13.5544
400 15.8838
405 17.125
410 18.4662
415 18.7221
420 17.6187
425 15.2011
430 13.8697
435 13.8179
440 13.7215
445 12.8712
450 12.1018
455 10.6635
460 9.57332
465 8.80567
470 8.56341
475 7.73413
480 7.11282
485 6.48152
490 5.776
495 5.09561
500 4.77148
505 4.25215
510 3.57243
515 3.14339
520 2.85856
525 2.58997
530 2.41144
535 1.97083
540 1.78602
545 1.58593
550 1.40785
555 1.15781
560 1.02804
565 0.912129
570 0.802768
575 0.620942
580 0.487841
585 0.388622
590 0.450542
595 0.363458
600 0.432332
Ex : 368
200 0.111529
205 0.0898773
210 0.0952345
215 0.144184
220 0.123871
225 0.11392
230 0.118223
235 0.112711
240 0.14023
245 0.101853
250 0.13623
255 0.10738
260 0.100909
265 0.120125
270 0.164412
275 0.149074
280 0.134794
285 0.100445
290 0.139354
295 0.144634
300 0.15381
305 0.13353
310 0.164135
315 0.169433
320 0.0892651
325 0.171439
330 0.212546
335 0.247242
340 0.293057
345 0.433519
350 0.736086
355 17.772
360 353.379
365 584.121
370 157.697
375 20.2699
380 6.39244
385 9.53103
390 14.3031
395 16.2761
400 15.267
405 18.7357
410 24.0339
415 25.4387
420 23.1877
425 19.0643
430 17.0502
435 16.7492
440 17.0941
445 16.3226
450 14.6652
455 12.6541
460 11.1505
465 10.3481
470 10.1231
475 9.47892
480 8.4441
485 7.51915
490 6.76084
495 5.97556
500 5.19275
505 4.62746
510 4.27836
515 3.74556
520 3.14633
525 2.71225
530 2.54997
535 2.06779
540 1.80637
545 1.71006
550 1.56438
555 1.23668
560 1.22162
565 1.02788
570 0.84602
575 0.702498
580 0.559195
585 0.364535
590 0.568653
595 0.324283
600 0.161136
Ex : 373
200 0.16321
205 0.177053
210 0.144554
215 0.163808
220 0.167825
225 0.124783
230 0.112395
235 0.132429
240 0.114637
245 0.113248
250 0.127116
255 0.111423
260 0.104849
265 0.0913887
270 0.119191
275 0.103493
280 0.113535
285 0.0857776
290 0.0843008
295 0.167997
300 0.143397
305 0.0894089
310 0.130515
315 0.0999619
320 0.0907006
325 0.129546
330 0.18152
335 0.148842
340 0.223253
345 0.302502
350 0.439349
355 0.627223
360 20.943
365 362.624
370 594.762
375 159.73
380 21.531
385 9.16739
390 14.5988
395 17.2676
400 15.5178
405 14.7278
410 19.7897
415 26.2588
420 24.8536
425 20.3199
430 16.8432
435 15.9858
440 16.3823
445 16.1636
450 14.4081
455 12.4888
460 10.8515
465 10.2652
470 9.78511
475 8.90989
480 8.31544
485 7.56294
490 6.66715
495 5.64662
500 5.22935
505 4.57576
510 4.42995
515 3.65876
520 3.39577
525 3.03682
530 2.43615
535 2.09565
540 1.95815
545 1.68015
550 1.42293
555 1.38704
560 1.19209
565 1.00978
570 0.725395
575 0.652036
580 0.538895
585 0.415731
590 0.351113
595 0.303429
600 0.136482
Ex : 378
200 0.118831
205 0.100395
210 0.114494
215 0.110391
220 0.100258
225 0.104377
230 0.150774
235 0.124579
240 0.128234
245 0.178374
250 0.100798
255 0.114167
260 0.1017
265 0.0613539
270 0.126644
275 0.156845
280 0.107319
285 0.0900505
290 0.0702187
295 0.0629272
300 0.0928628
305 0.16495
310 0.0973308
315 0.0705904
320 0.095273
325 0.177627
330 0.144619
335 0.22365
340 0.232971
345 0.165906
350 0.234977
355 0.340293
360 0.640571
365 19.7948
370 362.861
375 603.265
380 163.344
385 24.4895
390 12.5122
395 12.6775
400 11.5063
405 11.1296
410 13.7257
415 17.7022
420 19.9485
425 17.3025
430 14.1148
435 13.3234
440 13.022
445 12.689
450 11.4627
455 10.2102
460 8.94631
465 8.57387
470 8.22372
475 7.85525
480 7.14924
485 6.41555
490 5.60309
495 5.29555
500 4.85759
505 4.38406
510 3.87925
515 3.44436
520 3.20311
525 2.66104
530 2.43716
535 2.11001
540 1.89178
545 1.73483
550 1.48936
555 1.33309
560 1.22994
565 1.04839
570 0.822075
575 0.754724
580 0.505865
585 0.369386
590 0.49244
595 0.262889
600 0.128383
Ex : 383
200 0.16025
205 0.162909
210 0.0944628
215 0.0895008
220 0.118703
225 0.0746716
230 0.0645256
235 0.0690187
240 0.0642633
245 0.0687978
250 0.108473
255 0.0821433
260 0.0820091
265 0.215555
270 0.172398
275 0.124536
280 0.0678379
285 0.111049
290 0.0666338
295 0.0710626
300 0.0505175
305 0.10429
310 0.117819
315 0.166557
320 0.102098
325 0.119885
330 0.12361
335 0.164082
340 0.121446
345 0.156297
350 0.202244
355 0.233401
360 0.352722
365 0.712908
370 18.173
375 358.373
380 625.162
385 174.195
390 29.692
395 13.4117
400 11.2926
405 11.8628
410 14.0956
415 16.1671
420 16.1073
425 16.4849
430 16.016
435 14.7481
440 14.0691
445 12.9156
450 11.2262
455 10.4856
460 9.57186
465 9.05081
470 8.4264
475 7.77458
480 7.30113
485 6.94033
490 6.0513
495 5.474
500 5.085
505 4.31535
510 3.92732
515 3.47186
520 3.24138
525 2.89353
530 2.43683
535 2.13319
540 1.77303
545 1.68685
550 1.5845
555 1.32831
560 1.14508
565 0.921383
570 0.851898
575 0.688559
580 0.456477
585 0.42485
590 0.317782
595 0.342076
600 0.306526
Ex : 388
200 0.124518
205 0.105533
210 0.108397
215 0.114166
220 0.107873
225 0.0781133
230 0.116513
235 0.128858
240 0.100939
245 0.166713
250 0.127621
255 0.117149
260 0.109684
265 0.0810318
270 0.0994136
275 0.13519
280 0.0644345
285 0.116573
290 0.116984
295 0.0962396
300 0.0937542
305 0.164169
310 0.0943918
315 0.0986031
320 0.0904164
325 0.119019
330 0.122123
335 0.116139
340 0.25045
345 0.223518
350 0.181815
355 0.210347
360 0.278399
365 0.449527
370 0.726488
375 20.641
380 373.595
385 634.569
390 180.821
395 33.9163
400 15.5996
405 14.6782
410 17.7162
415 19.9445
420 19.3847
425 16.9195
430 17.3886
435 18.2247
440 17.5409
445 16.2468
450 13.9469
455 11.8832
460 10.6838
465 9.73724
470 9.34763
475 8.74432
480 8.03494
485 7.3734
490 6.46574
495 5.72224
500 5.48795
505 4.77601
510 4.65203
515 3.86766
520 3.34057
525 2.97577
530 2.54845
535 2.32809
540 1.84719
545 1.91585
550 1.55315
555 1.50795
560 1.14397
565 0.955255
570 0.842958
575 0.698483
580 0.514688
585 0.496702
590 0.330122
595 0.255668
600 0.0290941
Ex : 393
200 0.0915295
205 0.163202
210 0.16424
215 0.0908565
220 0.106466
225 0.149319
230 0.0891972
235 0.099368
240 0.175102
245 0.0823594
250 0.0695715
255 0.105875
260 0.116707
265 0.0879703
270 0.0901441
275 0.126494
280 0.103546
285 0.093156
290 0.122218
295 0.0831366
300 0.142338
305 0.108958
310 0.0817913
315 0.0800996
320 0.105016
325 0.087589
330 0.10253
335 0.130576
340 0.151973
345 0.136166
350 0.163463
355 0.241584
360 0.184912
365 0.22401
370 0.34975
375 0.887085
380 18.2765
385 378.804
390 655.231
395 187.966
400 34.2931
405 15.4209
410 16.1306
415 20.1451
420 20.3841
425 17.2537
430 14.4435
435 14.9982
440 18.0171
445 17.0039
450 14.4458
455 12.0075
460 9.7507
465 9.29033
470 9.01477
475 8.31079
480 7.46686
485 6.79912
490 6.29158
495 5.55369
500 5.02274
505 4.70787
510 4.08992
515 3.70611
520 3.05328
525 2.91827
530 2.45925
535 2.29386
540 1.95175
545 1.9092
550 1.53744
555 1.60855
560 1.27104
565 1.0846
570 0.799982
575 0.567517
580 0.511264
585 0.45826
590 0.400566
595 0.341086
600 0.15592
Ex : 398
200 0.120716
205 0.0852155
210 0.0657668
215 0.0644233
220 0.0936844
225 0.116325
230 0.0822402
235 0.113306
240 0.142601
245 0.0771643
250 0.076867
255 0.0631097
260 0.0823892
265 0.0853751
270 0.0954863
275 0.0582187
280 0.126667
285 0.181575
290 0.097821
295 0.110054
300 0.0851977
305 0.116346
310 0.111088
315 0.113856
320 0.0825517
325 0.114223
330 0.0805088
335 0.0982734
340 0.116468
345 0.10155
350 0.113323
355 0.208698
360 0.195436
365 0.190193
370 0.310472
375 0.48547
380 0.945057
385 20.1106
390 382.638
395 666.605
400 184.739
405 28.3771
410 11.8855
415 12.7583
420 12.8844
425 11.0001
430 9.36523
435 9.1285
440 10.1581
445 12.4025
450 11.4041
455 9.34004
460 7.85224
465 6.94642
470 6.6887
475 6.33825
480 5.92145
485 5.60819
490 4.94188
495 4.48735
500 4.21771
505 3.93286
510 3.6319
515 3.0542
520 3.02164
525 2.60192
530 2.2738
535 2.06248
540 1.88994
545 1.59609
550 1.43247
555 1.1662
560 1.04042
565 0.953575
570 0.83935
575 0.675124
580 0.479837
585 0.386939
590 0.428566
595 0.295169
600 0.353105
Ex : 403
200 0.0826842
205 0.154864
210 0.120458
215 0.077308
220 0.120386
225 0.0913539
230 0.109066
235 0.104416
240 0.100124
245 0.0681682
250 0.101897
255 0.111675
260 0.090185
265 0.0780866
270 0.0888415
275 0.0930643
280 0.101871
285 0.087592
290 0.0957176
295 0.104993
300 0.108836
305 0.0741458
310 0.0742805
315 0.0945875
320 0.105033
325 0.0952179
330 0.113911
335 0.127983
340 0.11907
345 0.134369
350 0.155023
355 0.110068
360 0.152364
365 0.161763
370 0.206564
375 0.255806
380 0.368791
385 1.01875
390 21.3204
395 392.161
400 656.018
405 178.774
410 25.5522
415 9.04731
420 7.48498
425 6.60913
430 5.84696
435 5.7634
440 6.45889
445 7.18017
450 8.89608
455 8.68285
460 7.04262
465 6.23061
470 5.75696
475 5.44891
480 5.11261
485 4.76946
490 4.36832
495 3.96173
500 3.66811
505 3.49869
510 3.24801
515 2.9771
520 2.70279
525 2.53457
530 2.14124
535 1.8705
540 1.58404
545 1.61357
550 1.39473
555 1.19529
560 1.0548
565 0.905225
570 0.847207
575 0.735866
580 0.644683
585 0.42294
590 0.294897
595 0.256846
600 0.309402
Ex : 408
200 0.0543981
205 0.138155
210 0.0470374
215 0.0843657
220 0.170577
225 0.133665
230 0.0693848
235 0.131539
240 0.100471
245 0.0874819
250 0.0556076
255 0.0763312
260 0.0962017
265 0.0654897
270 0.100231
275 0.0772213
280 0.143486
285 0.182947
290 0.066356
295 0.0714444
300 0.0905693
305 0.142757
310 0.0671449
315 0.0979232
320 0.0907134
325 0.123846
330 0.0847851
335 0.137072
340 0.0977103
345 0.151961
350 0.132761
355 0.122836
360 0.158209
365 0.174528
370 0.219186
375 0.201851
380 0.291703
385 0.402476
390 0.933225
395 20.4858
400 403.62
405 675.482
410 181.351
415 26.0777
420 8.50387
425 6.04825
430 5.95744
435 6.02765
440 6.25627
445 6.64314
450 6.43625
455 7.43057
460 8.6418
465 7.2146
470 6.28939
475 5.84284
480 5.10803
485 4.88583
490 4.2996
495 4.19724
500 3.76921
505 3.5648
510 3.3788
515 2.9141
520 2.75639
525 2.33508
530 2.14088
535 1.91787
540 1.75684
545 1.52116
550 1.38236
555 1.18408
560 1.01257
565 0.933483
570 0.724856
575 0.63056
580 0.557435
585 0.385978
590 0.23723
595 0.257208
600 0.217887
Ex : 413
200 0.105894
205 0.0784786
210 0.136109
215 0.104981
220 0.0905629
225 0.0800286
230 0.115665
235 0.0831817
240 0.0971497
245 0.0738911
250 0.132943
255 0.0814367
260 0.079575
265 0.168254
270 0.0658968
275 0.0696103
280 0.104266
285 0.100902
290 0.104804
295 0.100298
300 0.112365
305 0.110767
310 0.10467
315 0.0813065
320 0.0875806
325 0.146278
330 0.143849
335 0.0992233
340 0.117667
345 0.130709
350 0.12643
355 0.110503
360 0.159296
365 0.163418
370 0.170824
375 0.174269
380 0.165503
385 0.363181
390 0.42623
395 0.835461
400 23.225
405 414.643
410 676.922
415 175.523
420 25.1896
425 7.28498
430 5.40455
435 5.44893
440 5.9681
445 5.62079
450 5.41957
455 5.11633
460 6.00013
465 7.62817
470 6.52233
475 5.62435
480 5.13011
485 4.67869
490 4.19148
495 3.51338
500 3.35757
505 3.25455
510 2.87785
515 2.84911
520 2.5816
525 2.12998
530 2.05888
535 1.86374
540 1.56017
545 1.5108
550 1.41826
555 1.24289
560 1.09746
565 0.904962
570 0.766235
575 0.660824
580 0.509575
585 0.452115
590 0.387954
595 0.298442
600 0.0339615
Ex : 418
200 0.104767
205 0.131298
210 0.0878376
215 0.0515528
220 0.106061
225 0.128941
230 0.0790753
235 0.0616943
240 0.0914176
245 0.0895445
250 0.0752617
255 0.0971638
260 0.0665018
265 0.103146
270 0.0763646
275 0.131683
280 0.142867
285 0.100508
290 0.0990562
295 0.0940595
300 0.087499
305 0.0818285
310 0.12856
315 0.091551
320 0.106829
325 0.0962424
330 0.0872566
335 0.105642
340 0.105
345 0.117353
350 0.0767898
355 0.110235
360 0.157893
365 0.113354
370 0.131163
375 0.184149
380 0.183202
385 0.190546
390 0.37138
395 0.475149
400 0.823591
405 21.8729
410 408.469
415 677.739
420 182.197
425 24.1782
430 5.44768
435 3.73586
440 3.89102
445 3.83736
450 3.44673
455 3.16287
460 3.44097
465 4.11431
470 5.78962
475 5.8378
480 4.47673
485 4.10052
490 3.55602
495 3.07333
500 2.85623
505 2.71161
510 2.40104
515 2.24058
520 2.01321
525 1.82994
530 1.81164
535 1.43015
540 1.32024
545 1.38285
550 1.13453
555 1.02294
560 1.06105
565 0.910903
570 0.639413
575 0.639746
580 0.601004
585 0.410653
590 0.328625
595 0.231137
600 1.88087
Ex : 423
200 0.0951607
205 0.079211
210 0.0903425
215 0.0974789
220 0.068991
225 0.0836881
230 0.0559339
235 0.0836681
240 0.075821
245 0.0943808
250 0.0820862
255 0.0940946
260 0.0964469
265 0.108367
270 0.0885234
275 0.0845469
280 0.112882
285 0.133982
290 0.0943061
295 0.118597
300 0.117401
305 0.111911
310 0.119002
315 0.104035
320 0.0984805
325 0.123599
330 0.114772
335 0.0884954
340 0.0914956
345 0.080944
350 0.16219
355 0.145295
360 0.117088
365 0.119716
370 0.123109
375 0.139357
380 0.150792
385 0.151038
390 0.25862
395 0.323608
400 0.43846
405 0.848168
410 21.8767
415 428.374
420 671.681
425 171.472
430 21.8171
435 4.48685
440 2.39904
445 2.51585
450 2.40384
455 2.08935
460 1.96477
465 2.0076
470 2.70696
475 4.25435
480 5.07888
485 3.68465
490 3.14938
495 2.8139
500 2.43475
505 2.32773
510 2.13376
515 1.88065
520 1.95038
525 1.74619
530 1.66392
535 1.50656
540 1.39228
545 1.18814
550 1.21246
555 0.962873
560 0.881559
565 0.802799
570 0.644599
575 0.565194
580 0.431044
585 0.445602
590 0.294878
595 0.308271
600 0.19096
Ex : 428
200 0.104594
205 0.0655046
210 0.0574955
215 0.0922337
220 0.0949534
225 0.0852923
230 0.071119
235 0.128202
240 0.112702
245 0.0896477
250 0.177768
255 0.143053
260 0.0975471
265 0.0931237
270 0.135731
275 0.100024
280 0.0785009
285 0.0732821
290 0.0821366
295 0.104736
300 0.13384
305 0.0677248
310 0.0853711
315 0.0663544
320 0.122662
325 0.0925071
330 0.126249
335 0.128654
340 0.169119
345 0.170224
350 0.0821827
355 0.107429
360 0.107186
365 0.110098
370 0.145124
375 0.173741
380 0.127721
385 0.182604
390 0.226786
395 0.215161
400 0.285479
405 0.448692
410 0.944048
415 24.0403
420 425.494
425 685.48
430 178.978
435 22.3591
440 4.18204
445 1.91396
450 1.752
455 1.91241
460 1.78565
465 1.4837
470 1.56948
475 2.0333
480 3.18949
485 4.64166
490 3.54248
495 2.89502
500 2.43589
505 2.22517
510 1.89587
515 1.71727
520 1.59715
525 1.5518
530 1.31343
535 1.4301
540 1.35476
545 1.18743
550 1.10741
555 1.0125
560 0.885972
565 0.710824
570 0.622839
575 0.541275
580 0.416515
585 0.363127
590 0.261394
595 0.263675
600 0.0388969
Ex : 433
200 0.13715
205 0.0909292
210 0.112152
215 0.113862
220 0.0921696
225 0.0822217
230 0.0931076
235 0.0897907
240 0.0969409
245 0.0858899
250 0.088875
255 0.0836141
260 0.0801209
265 0.0939169
270 0.0636588
275 0.0901096
280 0.0631682
285 0.0630424
290 0.119874
295 0.0910286
300 0.100895
305 0.0933767
310 0.100966
315 0.131106
320 0.0874166
325 0.107466
330 0.143579
335 0.0854586
340 0.132308
345 0.129442
350 0.146919
355 0.137066
360 0.120543
365 0.140379
370 0.104004
375 0.12285
380 0.177232
385 0.140606
390 0.170346
395 0.169091
400 0.240329
405 0.317257
410 0.371575
415 0.830711
420 26.2437
425 457.735
430 695.767
435 174.38
440 21.6994
445 3.7551
450 1.61919
455 1.76446
460 1.78536
465 1.47501
470 1.33467
475 1.54391
480 1.63884
485 2.6874
490 4.0303
495 3.5306
500 2.50051
505 2.37698
510 1.96088
515 1.82824
520 1.7332
525 1.47321
530 1.31585
535 1.25658
540 1.31886
545 1.13988
550 0.984873
555 0.971143
560 0.808327
565 0.805298
570 0.666569
575 0.540662
580 0.470344
585 0.360647
590 0.295751
595 0.258175
600 0.0382711
Ex : 438
200 0.0663943
205 0.099066
210 0.0908361
215 0.153952
220 0.0744365
225 0.0781239
230 0.0974965
235 0.096631
240 0.0900226
245 0.0847175
250 0.0452545
255 0.107943
260 0.0731286
265 0.117995
270 0.0862912
275 0.0847536
280 0.0561832
285 0.11226
290 0.0633082
295 0.0733388
300 0.0734095
305 0.0869782
310 0.0877787
315 0.0882289
320 0.0629026
325 0.0631829
330 0.104329
335 0.0898899
340 0.114513
345 0.079544
350 0.0808622
355 0.155463
360 0.121394
365 0.1
370 0.178553
375 0.124728
380 0.0898554
385 0.133525
390 0.167921
395 0.185588
400 0.2228
405 0.165568
410 0.335691
415 0.483943
420 0.829399
425 25.515
430 460.268
435 732.522
440 182.691
445 22.4881
450 3.7514
455 1.6373
460 1.70924
465 1.75038
470 1.523
475 1.47959
480 1.49644
485 1.50742
490 1.96274
495 3.52239
500 3.82094
505 2.77153
510 2.25012
515 1.88799
520 1.56115
525 1.42278
530 1.25021
535 1.2391
540 1.31458
545 1.07551
550 0.898958
555 0.910316
560 0.843617
565 0.707493
570 0.61758
575 0.486529
580 0.470258
585 0.334743
590 0.325759
595 0.277361
600 0.479023
Ex : 443
200 0.0349221
205 0.168265
210 0.0768
215 0.0954093
220 0.0769622
225 0.0526485
230 0.115366
235 0.102781
240 0.140921
245 0.0808408
250 0.105764
255 0.102659
260 0.104334
265 0.138696
270 0.0796237
275 0.087622
280 0.0624521
285 0.11472
290 0.107146
295 0.102369
300 0.15456
305 0.112633
310 0.0827564
315 0.0823388
320 0.0685972
325 0.0840097
330 0.178533
335 0.118034
340 0.117419
345 0.0806146
350 0.108626
355 0.10477
360 0.0984474
365 0.0972152
370 0.13742
375 0.117145
380 0.106567
385 0.145465
390 0.114047
395 0.152935
400 0.164479
405 0.239183
410 0.227666
415 0.348444
420 0.389993
425 0.877932
430 28.8241
435 493.968
440 764.326
445 189.913
450 23.4542
455 3.96427
460 1.67132
465 1.70941
470 1.7836
475 1.57884
480 1.30487
485 1.27602
490 1.41106
495 1.63497
500 2.70593
505 3.77519
510 2.73794
515 2.04388
520 1.82352
525 1.59905
530 1.27392
535 1.35788
540 1.13503
545 1.0906
550 0.929495
555 0.942019
560 0.780719
565 0.767513
570 0.57723
575 0.545253
580 0.445818
585 0.300722
590 0.302553
595 0.27896
600 0.0317446
Ex : 448
200 0.101143
205 0.062979
210 0.0725465
215 0.157465
220 0.0995122
225 0.10289
230 0.0840048
235 0.14311
240 0.106327
245 0.104982
250 0.0785752
255 0.0481623
260 0.106613
265 0.124206
270 0.0814706
275 0.120171
280 0.0818172
285 0.162273
290 0.0750096
295 0.125971
300 0.105186
305 0.0847009
310 0.106838
315 0.160977
320 0.102149
325 0.0744991
330 0.17773
335 0.108118
340 0.095586
345 0.0863876
350 0.0719294
355 0.10441
360 0.0774268
365 0.110188
370 0.0907731
375 0.129595
380 0.083409
385 0.162716
390 0.214279
395 0.215029
400 0.164902
405 0.159151
410 0.190842
415 0.21457
420 0.263486
425 0.462289
430 0.834211
435 29.4971
440 517.532
445 789.416
450 196.938
455 24.183
460 4.27118
465 1.75532
470 1.55944
475 1.7006
480 1.60431
485 1.37752
490 1.24099
495 1.38536
500 1.38755
505 2.21816
510 3.57347
515 2.87682
520 2.15906
525 1.79222
530 1.52347
535 1.38284
540 1.14696
545 1.04477
550 1.03466
555 0.95216
560 0.816079
565 0.627063
570 0.671707
575 0.504534
580 0.488915
585 0.390304
590 0.267399
595 0.258253
600 0.272948
Ex : 453
200 0.0573487
205 0.0560725
210 0.0563859
215 0.113682
220 0.0645217
225 0.0611696
230 0.122106
235 0.0944104
240 0.111269
245 0.113541
250 0.121215
255 0.0869034
260 0.0726763
265 0.0767439
270 0.137242
275 0.0888975
280 0.0631329
285 0.0684978
290 0.0540915
295 0.104957
300 0.127661
305 0.226377
310 0.10332
315 0.0623082
320 0.112395
325 0.0673453
330 0.109816
335 0.0971277
340 0.109616
345 0.120986
350 0.122689
355 0.117479
360 0.132898
365 0.125123
370 0.107523
375 0.0898858
380 0.138572
385 0.130578
390 0.0981411
395 0.125071
400 0.139965
405 0.191023
410 0.194033
415 0.183565
420 0.247235
425 0.329118
430 0.488219
435 0.83708
440 31.2703
445 558.919
450 825.555
455 195.134
460 24.0334
465 4.24758
470 1.65635
475 1.49198
480 1.62648
485 1.50956
490 1.2784
495 1.1908
500 1.12261
505 1.12082
510 1.71865
515 2.95425
520 3.07949
525 1.96189
530 1.6965
535 1.53642
540 1.30477
545 1.10238
550 1.01353
555 0.843332
560 0.81783
565 0.679776
570 0.654948
575 0.559205
580 0.451943
585 0.381827
590 0.299309
595 0.239273
600 0.262058
Ex : 458
200 0.0971143
205 0.0996092
210 0.0768226
215 0.126228
220 0.106417
225 0.145234
230 0.0718321
235 0.0633794
240 0.105973
245 0.0598672
250 0.0601496
255 0.136648
260 0.145269
265 0.0889635
270 0.107415
275 0.127614
280 0.157711
285 0.0948027
290 0.099644
295 0.100894
300 0.150154
305 0.105542
310 0.0974817
315 0.0919844
320 0.0828149
325 0.137572
330 0.106124
335 0.125836
340 0.107067
345 0.127432
350 0.153471
355 0.124751
360 0.0936742
365 0.105987
370 0.154442
375 0.150644
380 0.12712
385 0.132299
390 0.13316
395 0.160666
400 0.179883
405 0.127769
410 0.136803
415 0.179074
420 0.218444
425 0.255669
430 0.36116
435 0.544309
440 0.816509
445 34.6839
450 582.629
455 881.423
460 214.226
465 26.2405
470 4.33235
475 1.83302
480 1.33915
485 1.68994
490 1.59329
495 1.21072
500 1.07604
505 1.08303
510 1.23515
515 1.41786
520 2.49561
525 3.33073
530 2.34149
535 1.67831
540 1.53492
545 1.31083
550 0.9348
555 0.865604
560 1.0124
565 0.804723
570 0.675863
575 0.596311
580 0.487621
585 0.407086
590 0.423624
595 0.387341
600 0.0728508
Ex : 463
200 0.10624
205 0.140623
210 0.0816852
215 0.0701501
220 0.11381
225 0.0895454
230 0.0587392
235 0.076401
240 0.100551
245 0.113038
250 0.109909
255 0.116641
260 0.102179
265 0.0625767
270 0.102825
275 0.100159
280 0.101902
285 0.0998463
290 0.0832007
295 0.129381
300 0.111231
305 0.105323
310 0.101771
315 0.0952695
320 0.117749
325 0.156547
330 0.0940204
335 0.133384
340 0.159038
345 0.122221
350 0.10523
355 0.0936433
360 0.101806
365 0.0668314
370 0.101781
375 0.114223
380 0.122818
385 0.103648
390 0.092653
395 0.146473
400 0.144345
405 0.189783
410 0.114438
415 0.134972
420 0.140166
425 0.170325
430 0.195506
435 0.376923
440 0.497698
445 0.982728
450 34.553
455 606.461
460 936.023
465 227.917
470 27.8444
475 4.64488
480 1.79724
485 1.30358
490 1.64796
495 1.48929
500 1.34838
505 1.06235
510 1.08525
515 1.18406
520 1.21256
525 1.94592
530 2.9972
535 2.48509
540 1.73411
545 1.38164
550 1.19042
555 1.00325
560 0.725758
565 0.794523
570 0.742321
575 0.545031
580 0.549169
585 0.456174
590 0.394874
595 0.335347
600 0.539889
Ex : 468
200 0.0723526
205 0.0570312
210 0.0534549
215 0.0521443
220 0.0566005
225 0.0912871
230 0.0547304
235 0.0548651
240 0.0591709
245 0.106807
250 0.0830552
255 0.131952
260 0.111148
265 0.10962
270 0.0806705
275 0.0807913
280 0.0769609
285 0.073492
290 0.0861227
295 0.0952981
300 0.091157
305 0.0889094
310 0.125825
315 0.117681
320 0.082454
325 0.0911322
330 0.140903
335 0.0961647
340 0.0678952
345 0.1138
350 0.0743226
355 0.07985
360 0.117599
365 0.108643
370 0.129678
375 0.14919
380 0.135312
385 0.100856
390 0.117658
395 0.0930898
400 0.114856
405 0.0969982
410 0.137076
415 0.114175
420 0.209497
425 0.206112
430 0.235491
435 0.236208
440 0.270416
445 0.511753
450 0.914322
455 38.4702
460 629.765
465 1007.25
470 245.723
475 29.6997
480 4.90863
485 1.85907
490 1.28879
495 1.40514
500 1.49005
505 1.25661
510 1.07695
515 1.15592
520 1.10662
525 1.25577
530 1.49238
535 2.67735
540 2.89432
545 1.65922
550 1.30482
555 1.28538
560 1.00704
565 0.914286
570 0.754443
575 0.622454
580 0.603542
585 0.443746
590 0.352221
595 0.38006
600 0.202188
Ex : 473
200 0.0837632
205 0.0937191
210 0.0776722
215 0.113552
220 0.111682
225 0.0806245
230 0.107194
235 0.0753229
240 0.111842
245 0.0898017
250 0.1352
255 0.121262
260 0.0997356
265 0.129171
270 0.108843
275 0.0706517
280 0.0943942
285 0.0901427
290 0.0801825
295 0.120276
300 0.0716572
305 0.0831252
310 0.126342
315 0.0852833
320 0.104316
325 0.0967838
330 0.095411
335 0.114374
340 0.0800526
345 0.0809145
350 0.0945554
355 0.0935353
360 0.0994673
365 0.140546
370 0.104003
375 0.0987191
380 0.123246
385 0.136596
390 0.146299
395 0.175092
400 0.109573
405 0.0930164
410 0.113259
415 0.12187
420 0.151766
425 0.145957
430 0.20022
435 0.184905
440 0.276189
445 0.363978
450 0.539894
455 1.05488
460 45.2534
465 743.417
470 1026.11
475 234.482
480 28.5023
485 4.60587
490 1.68549
495 1.26745
500 1.41207
505 1.34409
510 1.27128
515 1.09509
520 0.985566
525 1.15771
530 1.12464
535 1.35777
540 2.2428
545 2.60546
550 1.9191
555 1.33281
560 1.26253
565 0.940147
570 0.789171
575 0.651493
580 0.491626
585 0.452558
590 0.32909
595 0.367646
600 0.180547
Ex : 478
200 0.102375
205 0.0979602
210 0.061247
215 0.112472
220 0.0921147
225 0.174265
230 0.102784
235 0.0967084
240 0.0914813
245 0.133438
250 0.12803
255 0.134102
260 0.088376
265 0.13021
270 0.133815
275 0.113588
280 0.0764807
285 0.0797189
290 0.109854
295 0.136742
300 0.0839653
305 0.0800053
310 0.0787957
315 0.0790046
320 0.118948
325 0.125725
330 0.13168
335 0.106861
340 0.105997
345 0.106521
350 0.120126
355 0.164603
360 0.111684
365 0.105216
370 0.0962708
375 0.156643
380 0.15798
385 0.142913
390 0.152008
395 0.167847
400 0.162996
405 0.165602
410 0.196649
415 0.162114
420 0.167303
425 0.170866
430 0.236166
435 0.171669
440 0.233618
445 0.272414
450 0.42582
455 0.772681
460 1.17945
465 49.7145
470 735.613
475 1044.06
480 251.191
485 30.4286
490 4.84134
495 1.59471
500 0.997401
505 1.17186
510 1.271
515 1.22081
520 1.11414
525 0.983733
530 1.10888
535 1.01878
540 1.21169
545 1.65579
550 2.38236
555 2.04024
560 1.38156
565 1.00091
570 1.05094
575 0.699209
580 0.594312
585 0.4881
590 0.445114
595 0.350652
600 0.422792
Ex : 483
200 0.0938782
205 0.0639243
210 0.120164
215 0.114172
220 0.0961359
225 0.100029
230 0.105707
235 0.107198
240 0.0852242
245 0.0913386
250 0.0840116
255 0.130182
260 0.141846
265 0.0936706
270 0.086402
275 0.0804109
280 0.0921264
285 0.10219
290 0.0642302
295 0.158675
300 0.073141
305 0.11021
310 0.0849585
315 0.0838384
320 0.129113
325 0.0830951
330 0.073903
335 0.106021
340 0.0928503
345 0.114608
350 0.0947864
355 0.0920002
360 0.121263
365 0.1235
370 0.0990172
375 0.0951148
380 0.147038
385 0.126811
390 0.140651
395 0.158456
400 0.169671
405 0.131577
410 0.162869
415 0.288162
420 0.144302
425 0.220095
430 0.19604
435 0.144018
440 0.228131
445 0.257822
450 0.282435
455 0.476672
460 0.813637
465 1.38953
470 39.292
475 732.723
480 1123.57
485 269.859
490 32.7196
495 5.04883
500 1.67363
505 1.15563
510 1.25101
515 1.45313
520 1.18177
525 1.09818
530 1.12326
535 1.11944
540 1.07711
545 0.976489
550 1.15036
555 1.93325
560 2.19763
565 1.27932
570 0.928833
575 0.824616
580 0.682157
585 0.52246
590 0.432337
595 0.390318
600 0.278276
Ex : 488
200 0.0842891
205 0.168844
210 0.130274
215 0.105701
220 0.145946
225 0.0997458
230 0.114133
235 0.167368
240 0.135987
245 0.160266
250 0.174056
255 0.14883
260 0.107699
265 0.109921
270 0.0997068
275 0.141332
280 0.135468
285 0.14911
290 0.147659
295 0.092152
300 0.135284
305 0.122964
310 0.105074
315 0.0980875
320 0.0957871
325 0.11205
330 0.0952689
335 0.120803
340 0.152551
345 0.157925
350 0.104807
355 0.116181
360 0.111769
365 0.152796
370 0.133692
375 0.0796574
380 0.125606
385 0.144517
390 0.208841
395 0.193406
400 0.126793
405 0.162211
410 0.145397
415 0.149159
420 0.162553
425 0.197545
430 0.181297
435 0.179576
440 0.190724
445 0.247626
450 0.243004
455 0.330759
460 0.538172
465 0.83666
470 1.12044
475 49.2042
480 801.975
485 1138.01
490 268.656
495 32.4323
500 4.94694
505 1.5851
510 1.11587
515 1.32147
520 1.39585
525 1.28139
530 1.23113
535 1.04021
540 1.09196
545 0.965448
550 1.05844
555 1.01992
560 1.70268
565 2.03514
570 1.52326
575 0.850135
580 0.79594
585 0.612499
590 0.493058
595 0.384715
600 0.694111
Ex : 493
200 0.10607
205 0.0571941
210 0.111271
215 0.115231
220 0.146253
225 0.1241
230 0.138392
235 0.0879123
240 0.12213
245 0.133786
250 0.137195
255 0.0767657
260 0.13609
265 0.127633
270 0.0816851
275 0.111835
280 0.0876745
285 0.139106
290 0.0819249
295 0.0910494
300 0.148682
305 0.14814
310 0.187198
315 0.0810357
320 0.130704
325 0.108787
330 0.180437
335 0.173047
340 0.19101
345 0.106083
350 0.153532
355 0.100686
360 0.126593
365 0.14167
370 0.105739
375 0.120452
380 0.190369
385 0.165618
390 0.141076
395 0.131642
400 0.16759
405 0.147828
410 0.117725
415 0.139237
420 0.165011
425 0.187624
430 0.169065
435 0.161937
440 0.215496
445 0.266846
450 0.21299
455 0.259779
460 0.392059
465 0.582487
470 0.764594
475 1.27046
480 45.6969
485 806.852
490 1210.86
495 279.491
500 33.6673
505 5.23679
510 1.69979
515 1.09991
520 1.18761
525 1.36388
530 1.24554
535 1.09866
540 1.12164
545 1.09148
550 0.901042
555 0.980203
560 0.918185
565 1.24759
570 1.79717
575 1.26981
580 0.726355
585 0.580287
590 0.542955
595 0.435616
600 0.378541
Ex : 498
200 0.134518
205 0.150874
210 0.113294
215 0.150697
220 0.136863
225 0.1303
230 0.146045
235 0.0877744
240 0.0834459
245 0.115242
250 0.128971
255 0.120932
260 0.103031
265 0.170568
270 0.116723
275 0.142595
280 0.112916
285 0.151916
290 0.125151
295 0.15558
300 0.113988
305 0.172747
310 0.142299
315 0.0933708
320 0.150543
325 0.13111
330 0.125112
335 0.101464
340 0.0924663
345 0.11475
350 0.134057
355 0.130519
360 0.107093
365 0.131732
370 0.129836
375 0.155355
380 0.188957
385 0.218299
390 0.117812
395 0.144416
400 0.130557
405 0.195004
410 0.2429
415 0.173398
420 0.238857
425 0.197904
430 0.166578
435 0.172769
440 0.182579
445 0.256843
450 0.218053
455 0.248676
460 0.286455
465 0.416094
470 0.528371
475 0.751594
480 1.30343
485 56.8219
490 858.233
495 1182.98
500 277.1
505 33.1446
510 4.98309
515 1.72863
520 1.19598
525 1.19361
530 1.45754
535 1.30668
540 1.13468
545 1.06607
550 0.831254
555 0.754175
560 0.830386
565 0.701743
570 0.822185
575 1.27526
580 1.29855
585 0.802378
590 0.476956
595 0.512788
600 0.711929
Ex : 503
200 0.104948
205 0.128763
210 0.0978455
215 0.209394
220 0.11633
225 0.0912201
230 0.106151
235 0.125956
240 0.0792711
245 0.146485
250 0.184783
255 0.186303
260 0.0923515
265 0.124885
270 0.157522
275 0.126129
280 0.148383
285 0.0955845
290 0.175458
295 0.0872481
300 0.148764
305 0.165426
310 0.139424
315 0.0834459
320 0.159853
325 0.154775
330 0.075648
335 0.118005
340 0.178019
345 0.188996
350 0.205965
355 0.152201
360 0.14845
365 0.141379
370 0.101904
375 0.245321
380 0.172964
385 0.131661
390 0.171366
395 0.196685
400 0.183801
405 0.160291
410 0.169195
415 0.166361
420 0.143331
425 0.179761
430 0.231871
435 0.247843
440 0.27078
445 0.269721
450 0.227107
455 0.274503
460 0.401939
465 0.404412
470 0.417369
475 0.594892
480 0.769794
485 1.37433
490 52.1027
495 865.979
500 1239.2
505 287.896
510 34.6869
515 5.50944
520 1.84776
525 1.23996
530 1.24893
535 1.42632
540 1.28043
545 1.17248
550 0.897428
555 0.896265
560 0.822694
565 0.790432
570 0.749893
575 0.614464
580 0.834862
585 0.985041
590 0.796346
595 0.43475
600 0.0494729
Ex : 508
200 0.118578
205 0.0728386
210 0.123675
215 0.081539
220 0.117683
225 0.064242
230 0.147073
235 0.095796
240 0.130228
245 0.12904
250 0.0994491
255 0.149343
260 0.117283
265 0.161515
270 0.114576
275 0.130838
280 0.0958229
285 0.125353
290 0.10451
295 0.112116
300 0.140896
305 0.161812
310 0.141249
315 0.143776
320 0.153086
325 0.169647
330 0.153011
335 0.156403
340 0.142346
345 0.18031
350 0.139724
355 0.112362
360 0.146646
365 0.142318
370 0.221781
375 0.183758
380 0.157727
385 0.150928
390 0.116396
395 0.163156
400 0.132264
405 0.135563
410 0.140509
415 0.179296
420 0.167878
425 0.179148
430 0.193968
435 0.241361
440 0.19816
445 0.182651
450 0.168615
455 0.249163
460 0.221259
465 0.3878
470 0.377243
475 0.468172
480 0.626952
485 0.944808
490 1.70112
495 57.3241
500 887.55
505 1263.41
510 307.374
515 37.026
520 5.71193
525 2.01006
530 1.38515
535 1.07803
540 1.12928
545 0.990044
550 1.10495
555 0.881636
560 0.874645
565 0.72547
570 0.567652
575 0.550745
580 0.665885
585 0.636468
590 0.879171
595 0.895693
600 0.723472
Ex : 513
200 0.120336
205 0.143004
210 0.197737
215 0.164274
220 0.119329
225 0.0853772
230 0.101883
235 0.128621
240 0.123469
245 0.149712
250 0.0901958
255 0.140098
260 0.14932
265 0.188292
270 0.112345
275 0.111922
280 0.149304
285 0.142168
290 0.154226
295 0.0994575
300 0.20743
305 0.185587
310 0.154934
315 0.185264
320 0.161753
325 0.0795414
330 0.123188
335 0.166953
340 0.127079
345 0.138559
350 0.201774
355 0.135101
360 0.197236
365 0.248644
370 0.13839
375 0.149085
380 0.179604
385 0.164564
390 0.131098
395 0.141335
400 0.193681
405 0.171857
410 0.120639
415 0.209481
420 0.199904
425 0.167977
430 0.235565
435 0.232145
440 0.153569
445 0.208657
450 0.257307
455 0.255746
460 0.293974
465 0.356581
470 0.313103
475 0.333355
480 0.467309
485 0.467817
490 0.787869
495 1.30077
500 51.5314
505 879.357
510 1281.76
515 316.056
520 38.1772
525 5.75508
530 2.11852
535 1.19341
540 1.09637
545 1.03154
550 1.02298
555 1.08414
560 0.994355
565 0.79311
570 0.663068
575 0.561206
580 0.528098
585 0.463438
590 0.531791
595 0.563622
600 0.813684
Ex : 518
200 0.186489
205 0.173548
210 0.111773
215 0.155021
220 0.118904
225 0.168693
230 0.159129
235 0.133403
240 0.128361
245 0.0855886
250 0.112481
255 0.10672
260 0.17577
265 0.104272
270 0.134522
275 0.175314
280 0.16575
285 0.147268
290 0.144546
295 0.15267
300 0.178261
305 0.122422
310 0.170002
315 0.125087
320 0.222651
325 0.0980804
330 0.120723
335 0.130453
340 0.130286
345 0.145811
350 0.191198
355 0.134113
360 0.146106
365 0.196844
370 0.122211
375 0.111389
380 0.113258
385 0.203517
390 0.198099
395 0.154268
400 0.158835
405 0.219648
410 0.175856
415 0.146468
420 0.180087
425 0.174651
430 0.151696
435 0.156841
440 0.247811
445 0.187961
450 0.227416
455 0.210735
460 0.224344
465 0.301022
470 0.252186
475 0.306031
480 0.384419
485 0.37284
490 0.549436
495 0.711522
500 1.50097
505 52.8593
510 853.418
515 1281.04
520 320.719
525 38.5252
530 5.68565
535 1.81371
540 1.27986
545 0.987071
550 0.962118
555 0.955273
560 0.811607
565 0.977342
570 0.773312
575 0.500613
580 0.520752
585 0.392832
590 0.361925
595 0.429453
600 0.612818
Ex : 523
200 0.14617
205 0.165139
210 0.108127
215 0.141789
220 0.2182
225 0.152867
230 0.0915099
235 0.139619
240 0.133398
245 0.184498
250 0.195536
255 0.0893244
260 0.121762
265 0.0906229
270 0.143029
275 0.178866
280 0.166444
285 0.158527
290 0.0893999
295 0.186282
300 0.175539
305 0.178575
310 0.134775
315 0.0968269
320 0.118485
325 0.161972
330 0.202411
335 0.161158
340 0.171914
345 0.13338
350 0.136873
355 0.174939
360 0.150587
365 0.125781
370 0.121999
375 0.122003
380 0.221422
385 0.149868
390 0.186217
395 0.167108
400 0.184943
405 0.256618
410 0.13594
415 0.23621
420 0.22572
425 0.145626
430 0.195604
435 0.184525
440 0.172409
445 0.168828
450 0.367416
455 0.180103
460 0.181632
465 0.21614
470 0.226335
475 0.220912
480 0.282955
485 0.330628
490 0.469561
495 0.551202
500 0.728164
505 1.34259
510 49.6381
515 844.098
520 1282.31
525 328.974
530 39.7495
535 5.73383
540 1.77013
545 1.39421
550 0.938649
555 0.94876
560 0.881518
565 0.826047
570 0.67366
575 0.539739
580 0.540234
585 0.405119
590 0.310161
595 0.294426
600 0.0378701
Ex : 528
200 0.108297
205 0.145406
210 0.144598
215 0.185973
220 0.186373
225 0.243137
230 0.178221
235 0.0890986
240 0.116053
245 0.137525
250 0.184656
255 0.18692
260 0.148227
265 0.112066
270 0.146544
275 0.116428
280 0.158107
285 0.130599
290 0.126869
295 0.114681
300 0.170749
305 0.101536
310 0.181095
315 0.259538
320 0.174137
325 0.0882764
330 0.247005
335 0.208878
340 0.229791
345 0.152161
350 0.260846
355 0.23229
360 0.164754
365 0.136764
370 0.140741
375 0.11697
380 0.137736
385 0.124377
390 0.106094
395 0.135656
400 0.110746
405 0.257686
410 0.200072
415 0.210632
420 0.182862
425 0.227194
430 0.19687
435 0.179457
440 0.259578
445 0.212469
450 0.209326
455 0.20298
460 0.167304
465 0.227494
470 0.222268
475 0.268264
480 0.293479
485 0.401922
490 0.302148
495 0.578545
500 0.478769
505 0.864503
510 1.4404
515 46.003
520 825.75
525 1266.18
530 321.861
535 38.7509
540 5.74452
545 1.64813
550 1.1111
555 0.837497
560 0.850198
565 0.906736
570 0.728363
575 0.635897
580 0.508846
585 0.465843
590 0.398932
595 0.495429
600 0.211692
Ex : 533
200 0.0778994
205 0.181424
210 0.173339
215 0.0985362
220 0.187132
225 0.192217
230 0.162639
235 0.0755713
240 0.0985012
245 0.0887449
250 0.225499
255 0.149398
260 0.111147
265 0.161592
270 0.160394
275 0.194916
280 0.157981
285 0.212281
290 0.207226
295 0.135579
300 0.189183
305 0.142981
310 0.151014
315 0.162165
320 0.197051
325 0.113732
330 0.195637
335 0.216315
340 0.158124
345 0.236821
350 0.132333
355 0.177351
360 0.187761
365 0.159181
370 0.139872
375 0.188805
380 0.11504
385 0.149019
390 0.261075
395 0.138577
400 0.161168
405 0.16343
410 0.179443
415 0.194327
420 0.173108
425 0.19077
430 0.224523
435 0.18993
440 0.19328
445 0.158735
450 0.126172
455 0.163133
460 0.198901
465 0.275278
470 0.226377
475 0.262097
480 0.314099
485 0.273302
490 0.323705
495 0.399998
500 0.421375
505 0.551476
510 0.812937
515 1.33075
520 46.7495
525 802.821
530 1260.5
535 326.937
540 39.1967
545 5.68372
550 1.69158
555 1.10608
560 0.723692
565 0.688908
570 0.663697
575 0.692016
580 0.529056
585 0.458049
590 0.353469
595 0.387907
600 0.211175
Ex : 538
200 0.190799
205 0.132102
210 0.136939
215 0.18728
220 0.20946
225 0.219254
230 0.245894
235 0.116453
240 0.140855
245 0.1652
250 0.161864
255 0.125807
260 0.157548
265 0.11956
270 0.194749
275 0.212952
280 0.114944
285 0.147267
290 0.138451
295 0.0884193
300 0.115647
305 0.182147
310 0.161039
315 0.103766
320 0.127808
325 0.190271
330 0.120132
335 0.149904
340 0.202319
345 0.131817
350 0.121924
355 0.206502
360 0.129109
365 0.183449
370 0.220872
375 0.213513
380 0.247973
385 0.200478
390 0.130714
395 0.180226
400 0.211199
405 0.159299
410 0.174967
415 0.183001
420 0.228398
425 0.215483
430 0.232992
435 0.181863
440 0.17257
445 0.17284
450 0.256035
455 0.213418
460 0.248396
465 0.264855
470 0.197285
475 0.277521
480 0.228066
485 0.349137
490 0.319289
495 0.372768
500 0.25656
505 0.498996
510 0.551143
515 0.775614
520 1.2897
525 40.8352
530 772.693
535 1259.65
540 339.213
545 40.4615
550 5.69748
555 1.32427
560 0.80346
565 0.750379
570 0.582864
575 0.424507
580 0.510875
585 0.460425
590 0.3626
595 0.431666
600 0.250314
Ex : 543
200 0.184917
205 0.116632
210 0.110553
215 0.179938
220 0.167412
225 0.204088
230 0.174584
235 0.127304
240 0.177772
245 0.200729
250 0.142076
255 0.183567
260 0.188855
265 0.180351
270 0.160586
275 0.175785
280 0.256207
285 0.261533
290 0.14268
295 0.219827
300 0.171912
305 0.233042
310 0.149557
315 0.143334
320 0.197682
325 0.189768
330 0.18778
335 0.170532
340 0.1628
345 0.288554
350 0.140629
355 0.258747
360 0.214495
365 0.161154
370 0.171713
375 0.180315
380 0.112582
385 0.165025
390 0.178268
395 0.224659
400 0.181258
405 0.178344
410 0.255932
415 0.179047
420 0.249099
425 0.248493
430 0.196636
435 0.149699
440 0.199589
445 0.18233
450 0.175807
455 0.198425
460 0.162854
465 0.221208
470 0.242696
475 0.236791
480 0.258775
485 0.302371
490 0.33198
495 0.290475
500 0.330524
505 0.33811
510 0.38924
515 0.500795
520 0.906179
525 1.33902
530 37.7365
535 738.147
540 1235.51
545 336.125
550 40.3734
555 5.6071
560 1.33544
565 0.887802
570 0.61179
575 0.473015
580 0.418035
585 0.645832
590 0.504772
595 0.355938
600 0.173435
Ex : 548
200 0.303293
205 0.169405
210 0.17683
215 0.145142
220 0.274493
225 0.230913
230 0.155417
235 0.141101
240 0.200642
245 0.166465
250 0.117491
255 0.0970953
260 0.18909
265 0.190065
270 0.241051
275 0.223959
280 0.190833
285 0.118876
290 0.135258
295 0.170151
300 0.194266
305 0.205584
310 0.125171
315 0.174852
320 0.145388
325 0.121095
330 0.172173
335 0.102633
340 0.173733
345 0.263272
350 0.244899
355 0.172816
360 0.194878
365 0.143796
370 0.208636
375 0.20229
380 0.175867
385 0.201169
390 0.221551
395 0.270144
400 0.214411
405 0.198169
410 0.122222
415 0.18249
420 0.157702
425 0.200127
430 0.161928
435 0.176044
440 0.230643
445 0.232306
450 0.229021
455 0.129476
460 0.224191
465 0.27804
470 0.231348
475 0.23636
480 0.254805
485 0.230769
490 0.32743
495 0.356298
500 0.39568
505 0.324691
510 0.424399
515 0.442056
520 0.597979
525 0.852605
530 1.20974
535 42.2502
540 751.809
545 1230.53
550 338.458
555 40.2772
560 5.57761
565 1.32288
570 0.743232
575 0.715099
580 0.54148
585 0.416653
590 0.455723
595 0.36559
600 0.0516163
Ex : 553
200 0.127394
205 0.199216
210 0.123222
215 0.179236
220 0.242322
225 0.201978
230 0.172115
235 0.181156
240 0.217994
245 0.161665
250 0.146652
255 0.174272
260 0.235667
265 0.18486
270 0.206223
275 0.22272
280 0.110154
285 0.173472
290 0.218748
295 0.146555
300 0.133883
305 0.158196
310 0.195317
315 0.169447
320 0.176808
325 0.220537
330 0.187426
335 0.162355
340 0.192927
345 0.145651
350 0.256292
355 0.194993
360 0.132856
365 0.207983
370 0.244659
375 0.206352
380 0.160071
385 0.186233
390 0.196026
395 0.249222
400 0.196371
405 0.14932
410 0.145546
415 0.313172
420 0.249411
425 0.181159
430 0.250491
435 0.300108
440 0.174539
445 0.261554
450 0.287909
455 0.204146
460 0.310969
465 0.186955
470 0.187282
475 0.274389
480 0.187453
485 0.29735
490 0.25386
495 0.280237
500 0.251569
505 0.319347
510 0.381473
515 0.385041
520 0.41171
525 0.594168
530 0.713963
535 1.15979
540 35.5621
545 710.447
550 1209
555 341.007
560 40.9902
565 5.49733
570 1.29505
575 0.730683
580 0.531787
585 0.39393
590 0.470181
595 0.451685
600 0.0514
Ex : 558
200 0.136155
205 0.153319
210 0.217988
215 0.199947
220 0.169768
225 0.129516
230 0.0875366
235 0.149888
240 0.241045
245 0.208309
250 0.211722
255 0.136498
260 0.167749
265 0.170511
270 0.223348
275 0.184412
280 0.0958524
285 0.161274
290 0.216101
295 0.146109
300 0.218665
305 0.181535
310 0.146248
315 0.227705
320 0.259245
325 0.308195
330 0.219251
335 0.192071
340 0.199638
345 0.123036
350 0.110148
355 0.112675
360 0.203172
365 0.127643
370 0.084763
375 0.217085
380 0.163253
385 0.177974
390 0.230606
395 0.261252
400 0.221644
405 0.188593
410 0.185188
415 0.234879
420 0.241927
425 0.209506
430 0.181085
435 0.217857
440 0.161901
445 0.295757
450 0.237353
455 0.218497
460 0.200276
465 0.258991
470 0.184998
475 0.245921
480 0.240987
485 0.234474
490 0.212611
495 0.249117
500 0.277103
505 0.303354
510 0.344314
515 0.325116
520 0.388064
525 0.442701
530 0.557315
535 0.737906
540 1.08544
545 32.9576
550 671.28
555 1185.82
560 337.544
565 40.5044
570 5.49365
575 1.14803
580 0.696678
585 0.520904
590 0.382716
595 0.375074
600 0.257519
Ex : 563
200 0.173456
205 0.167018
210 0.164631
215 0.246325
220 0.15482
225 0.14105
230 0.15937
235 0.14069
240 0.173107
245 0.127773
250 0.178774
255 0.123317
260 0.162991
265 0.22927
270 0.169899
275 0.370376
280 0.152493
285 0.144011
290 0.181412
295 0.141159
300 0.212368
305 0.15723
310 0.149285
315 0.113836
320 0.176157
325 0.147441
330 0.181923
335 0.152851
340 0.156664
345 0.165109
350 0.190978
355 0.18971
360 0.211109
365 0.178724
370 0.195722
375 0.198002
380 0.273502
385 0.192469
390 0.211499
395 0.127063
400 0.199796
405 0.173694
410 0.240854
415 0.174047
420 0.234351
425 0.294119
430 0.227168
435 0.217925
440 0.233871
445 0.183111
450 0.145567
455 0.166843
460 0.191479
465 0.206095
470 0.190835
475 0.21441
480 0.236557
485 0.299283
490 0.246783
495 0.237204
500 0.242011
505 0.234338
510 0.238416
515 0.222043
520 0.257075
525 0.493152
530 0.439162
535 0.581113
540 0.705195
545 1.23501
550 32.1443
555 646.359
560 1143.89
565 329.469
570 39.409
575 5.09818
580 1.15372
585 0.637048
590 0.506639
595 0.483873
600 1.233
Ex : 568
200 0.220435
205 0.175045
210 0.108348
215 0.202523
220 0.238086
225 0.175272
230 0.120315
235 0.130781
240 0.222003
245 0.139643
250 0.166961
255 0.224233
260 0.252122
265 0.12684
270 0.20114
275 0.160773
280 0.196903
285 0.13772
290 0.202614
295 0.164181
300 0.271904
305 0.186906
310 0.181282
315 0.164901
320 0.288266
325 0.232169
330 0.15544
335 0.278521
340 0.186937
345 0.288314
350 0.203291
355 0.258591
360 0.211163
365 0.158398
370 0.221042
375 0.184977
380 0.147028
385 0.216701
390 0.271641
395 0.240716
400 0.160765
405 0.14271
410 0.233358
415 0.183677
420 0.185643
425 0.13728
430 0.293555
435 0.135581
440 0.252242
445 0.282923
450 0.165078
455 0.240064
460 0.139218
465 0.221278
470 0.241254
475 0.291374
480 0.214893
485 0.2643
490 0.19798
495 0.194949
500 0.180002
505 0.268435
510 0.309029
515 0.345549
520 0.445271
525 0.373993
530 0.344079
535 0.351461
540 0.674942
545 0.681351
550 0.985008
555 23.9908
560 591.987
565 1119.9
570 337.281
575 40.6076
580 5.20636
585 1.12146
590 0.628492
595 0.655214
600 0.404047
Ex : 573
200 0.208471
205 0.182574
210 0.24128
215 0.251785
220 0.198979
225 0.160587
230 0.246633
235 0.224045
240 0.172285
245 0.137154
250 0.172992
255 0.187289
260 0.220052
265 0.186909
270 0.101157
275 0.144619
280 0.187844
285 0.166409
290 0.111887
295 0.261427
300 0.194023
305 0.294455
310 0.20069
315 0.233069
320 0.179683
325 0.162717
330 0.149228
335 0.26354
340 0.115444
345 0.110451
350 0.16048
355 0.225931
360 0.156895
365 0.199072
370 0.291234
375 0.30032
380 0.231962
385 0.199472
390 0.237808
395 0.186662
400 0.20571
405 0.199003
410 0.203254
415 0.244645
420 0.220572
425 0.301126
430 0.219535
435 0.266598
440 0.138555
445 0.207409
450 0.172824
455 0.40317
460 0.263706
465 0.25648
470 0.208943
475 0.174479
480 0.208214
485 0.219879
490 0.261249
495 0.275835
500 0.251988
505 0.242104
510 0.337041
515 0.211717
520 0.334768
525 0.278791
530 0.27165
535 0.417272
540 0.496613
545 0.49463
550 0.683945
555 1.14004
560 20.6674
565 507.444
570 1023.26
575 318.98
580 38.3608
585 4.9157
590 1.01006
595 0.516531
600 0.17694
Ex : 578
200 0.21417
205 0.19049
210 0.258693
215 0.214046
220 0.269401
225 0.243824
230 0.231336
235 0.187808
240 0.143697
245 0.140039
250 0.175698
255 0.129482
260 0.185616
265 0.191959
270 0.222179
275 0.150869
280 0.200666
285 0.16531
290 0.256439
295 0.268665
300 0.229915
305 0.163414
310 0.222391
315 0.0996396
320 0.224317
325 0.180978
330 0.225025
335 0.204463
340 0.276737
345 0.222262
350 0.147478
355 0.199855
360 0.227754
365 0.180656
370 0.23522
375 0.130424
380 0.145145
385 0.172957
390 0.218109
395 0.147563
400 0.155824
405 0.194074
410 0.260038
415 0.276547
420 0.322594
425 0.211436
430 0.195297
435 0.188514
440 0.205305
445 0.195123
450 0.185464
455 0.164869
460 0.305894
465 0.125647
470 0.237154
475 0.160416
480 0.19862
485 0.227921
490 0.248282
495 0.274566
500 0.22627
505 0.274768
510 0.258927
515 0.18013
520 0.286374
525 0.352498
530 0.331382
535 0.29433
540 0.503356
545 0.414571
550 0.442684
555 0.614822
560 1.06315
565 18.4105
570 461.629
575 896.563
580 272.434
585 32.5218
590 4.30847
595 0.929723
600 0.105799
Ex : 583
200 0.199368
205 0.229665
210 0.214418
215 0.196254
220 0.252719
225 0.210315
230 0.12177
235 0.186039
240 0.174801
245 0.151033
250 0.135387
255 0.191486
260 0.202118
265 0.206609
270 0.125217
275 0.18846
280 0.206532
285 0.252363
290 0.174017
295 0.162969
300 0.181342
305 0.15844
310 0.120592
315 0.206512
320 0.1418
325 0.391006
330 0.198954
335 0.175839
340 0.164217
345 0.17964
350 0.145692
355 0.202569
360 0.192892
365 0.110675
370 0.148922
375 0.179833
380 0.254881
385 0.296707
390 0.316354
395 0.21989
400 0.22317
405 0.242969
410 0.176318
415 0.19073
420 0.148114
425 0.142527
430 0.21232
435 0.256708
440 0.227895
445 0.368152
450 0.219194
455 0.185263
460 0.274432
465 0.254827
470 0.188148
475 0.185451
480 0.246764
485 0.201468
490 0.232019
495 0.283779
500 0.190985
505 0.146312
510 0.178952
515 0.171198
520 0.353103
525 0.195612
530 0.193508
535 0.338372
540 0.333858
545 0.416462
550 0.365398
555 0.397191
560 0.476007
565 0.698209
570 14.9599
575 404.857
580 780.342
585 227.974
590 27.1975
595 3.62895
600 1.09748
Ex : 588
200 0.0903935
205 0.134367
210 0.123095
215 0.311704
220 0.184497
225 0.12502
230 0.270555
235 0.171803
240 0.127847
245 0.314946
250 0.248289
255 0.123756
260 0.229488
265 0.326578
270 0.200822
275 0.223003
280 0.141797
285 0.124688
290 0.165687
295 0.139987
300 0.179448
305 0.275741
310 0.166687
315 0.203075
320 0.129527
325 0.222247
330 0.198247
335 0.239733
340 0.238039
345 0.118064
350 0.105777
355 0.100381
360 0.213607
365 0.199885
370 0.168815
375 0.239613
380 0.127456
385 0.225403
390 0.176972
395 0.156229
400 0.16489
405 0.20291
410 0.317878
415 0.29298
420 0.328435
425 0.231045
430 0.109214
435 0.233327
440 0.182139
445 0.277098
450 0.168674
455 0.383478
460 0.3268
465 0.215559
470 0.199845
475 0.276906
480 0.241243
485 0.293927
490 0.28593
495 0.205815
500 0.210314
505 0.23723
510 0.252642
515 0.19954
520 0.211839
525 0.280336
530 0.26495
535 0.289213
540 0.294796
545 0.241315
550 0.423548
555 0.39025
560 0.471931
565 0.538634
570 0.700264
575 13.7746
580 342.671
585 670.171
590 202.167
595 24.3029
600 3.34129
Ex : 593
200 0.135747
205 0.173469
210 0.231074
215 0.0806343
220 0.281952
225 0.141521
230 0.171839
235 0.229559
240 0.161266
245 0.147643
250 0.103835
255 0.159838
260 0.175264
265 0.127572
270 0.185432
275 0.303594
280 0.215422
285 0.209625
290 0.200423
295 0.191952
300 0.221107
305 0.261047
310 0.183298
315 0.417195
320 0.242491
325 0.15342
330 0.2145
335 0.189277
340 0.282384
345 0.178853
350 0.226777
355 0.351586
360 0.218982
365 0.319361
370 0.187955
375 0.125713
380 0.186962
385 0.178259
390 0.219885
395 0.176243
400 0.243413
405 0.241435
410 0.196024
415 0.287831
420 0.355826
425 0.185591
430 0.155535
435 0.332081
440 0.166172
445 0.307318
450 0.147825
455 0.159319
460 0.173047
465 0.134529
470 0.175537
475 0.320335
480 0.256609
485 0.193146
490 0.264689
495 0.228429
500 0.27668
505 0.207963
510 0.223389
515 0.196645
520 0.250967
525 0.247736
530 0.234255
535 0.264752
540 0.273945
545 0.270068
550 0.335355
555 0.361101
560 0.378982
565 0.297858
570 0.514968
575 0.781785
580 12.2217
585 301.695
590 570.164
595 170.473
600 25.8605
Ex : 598
200 0.20211
205 0.163191
210 0.170663
215 0.190549
220 0.158626
225 0.237562
230 0.127512
235 0.289104
240 0.177997
245 0.232086
250 0.282771
255 0.250034
260 0.161148
265 0.208118
270 0.161496
275 0.187115
280 0.124919
285 0.158964
290 0.176358
295 0.232475
300 0.270291
305 0.147284
310 0.182431
315 0.419417
320 0.250921
325 0.15278
330 0.183253
335 0.252191
340 0.159215
345 0.265216
350 0.210017
355 0.11808
360 0.207827
365 0.262191
370 0.190293
375 0.224617
380 0.20487
385 0.14874
390 0.223813
395 0.314655
400 0.226199
405 0.195489
410 0.207473
415 0.197857
420 0.217293
425 0.245023
430 0.340921
435 0.427387
440 0.18154
445 0.240827
450 0.268792
455 0.142266
460 0.245461
465 0.23421
470 0.220916
475 0.164853
480 0.241825
485 0.12707
490 0.176803
495 0.160472
500 0.226582
505 0.248928
510 0.21056
515 0.227063
520 0.206263
525 0.277893
530 0.188052
535 0.300185
540 0.267915
545 0.200009
550 0.20314
555 0.316106
560 0.265307
565 0.558521
570 0.372409
575 0.471149
580 0.582522
585 11.2791
590 274.57
595 496.662
600 324.308
Ex : 603
200 0.228342
205 0.192279
210 0.254524
215 0.164915
220 0.181281
225 0.228281
230 0.185762
235 0.217355
240 0.142545
245 0.141345
250 0.227627
255 0.223938
260 0.191614
265 0.221466
270 0.415886
275 0.283671
280 0.218776
285 0.206405
290 0.166672
295 0.410488
300 0.256506
305 0.239338
310 0.18301
315 0.176414
320 0.123276
325 0.181514
330 0.136677
335 0.269626
340 0.169647
345 0.183443
350 0.32621
355 0.167724
360 0.211625
365 0.294582
370 0.163329
375 0.218838
380 0.269331
385 0.211878
390 0.332584
395 0.201379
400 0.168087
405 0.162936
410 0.382831
415 0.222239
420 0.261902
425 0.257845
430 0.158145
435 0.200184
440 0.253302
445 0.260655
450 0.263538
455 0.178303
460 0.239057
465 0.203367
470 0.211363
475 0.195428
480 0.215218
485 0.209015
490 0.168689
495 0.24768
500 0.21069
505 0.247362
510 0.146985
515 0.190361
520 0.138563
525 0.356548
530 0.28352
535 0.161636
540 0.198939
545 0.26179
550 0.385536
555 0.266473
560 0.330779
565 0.243999
570 0.311358
575 0.443369
580 0.454767
585 0.560747
590 9.93387
595 235.923
600 468.908
