File format V 1.0
jeu. 5. janv. 20:28:36 2017
Operator : 
Comments : 

=============================================
SpectroFluorometer parameters
Mode : 3D measurement
Data : Fluorescence
Phospho. : Ordinary
Spectrum : Fluorescence

Scan speed : 2400 nm/mn
Response : 100 ms
PM Voltage : 700 V
Shutter : On

Lambda Ex. Start : 203
Lambda Ex. End : 603
Lambda Ex. Step : 5
Ex. Slit : 5 nm

Lambda Em. Start : 200
Lambda Em. End : 600
Lambda Em. Step : 5
Em. Slit : 5 nm

Repetition : 1
Decal lambda em : 10
=============================================
DATA
Ex : 203
200 6.48993
205 3.30639
210 6.47262
215 5.94721
220 6.04904
225 4.04412
230 6.13532
235 4.06225
240 5.2013
245 8.48501
250 5.73963
255 4.24283
260 3.62319
265 3.55167
270 3.23448
275 2.98035
280 6.67892
285 3.47773
290 7.21228
295 3.17006
300 3.80592
305 5.32938
310 4.52348
315 7.17209
320 5.53519
325 4.51065
330 5.18248
335 5.1443
340 7.41471
345 5.71483
350 5.0479
355 5.09588
360 4.73397
365 3.07314
370 5.13885
375 8.00744
380 8.65565
385 6.49088
390 5.84734
395 3.54253
400 4.87764
405 4.37471
410 4.93965
415 6.29881
420 4.87378
425 3.94784
430 4.99957
435 5.38943
440 7.48138
445 6.01798
450 7.63947
455 4.14886
460 10.3567
465 5.72445
470 6.25087
475 6.05659
480 4.92267
485 5.69026
490 4.2337
495 8.72633
500 3.69859
505 3.71017
510 6.43782
515 5.07559
520 10.2378
525 4.86224
530 3.83512
535 4.07041
540 4.52496
545 5.50634
550 4.04833
555 4.49031
560 3.99742
565 5.73406
570 5.99217
575 6.67287
580 4.76915
585 5.02327
590 4.70725
595 5.50691
600 0.626665
Ex : 208
200 6.75325
205 4.20654
210 4.41805
215 5.57935
220 7.04563
225 6.86118
230 4.88904
235 3.65807
240 6.22204
245 5.23054
250 4.57132
255 4.41729
260 6.32392
265 5.54101
270 4.47452
275 4.23235
280 3.64113
285 1.28393
290 4.00921
295 6.4424
300 5.73424
305 5.31741
310 2.82061
315 7.07754
320 4.14712
325 6.29031
330 4.54974
335 8.53187
340 6.93528
345 6.71441
350 7.2859
355 8.15283
360 4.0485
365 6.20462
370 6.00255
375 6.70022
380 5.55317
385 5.96059
390 6.10852
395 4.07378
400 3.83959
405 3.86321
410 3.90288
415 3.99442
420 4.31149
425 8.28084
430 7.89295
435 4.86133
440 5.97153
445 4.70823
450 5.10882
455 6.44047
460 7.64888
465 6.24834
470 4.66273
475 11.0887
480 5.3048
485 4.15409
490 4.49129
495 4.25707
500 2.63102
505 5.12547
510 4.77042
515 6.55638
520 3.46926
525 8.92151
530 8.1777
535 6.14818
540 6.74248
545 5.01114
550 5.19441
555 3.34629
560 4.97798
565 6.36761
570 3.98957
575 5.89232
580 4.6296
585 7.5915
590 7.07285
595 6.65264
600 0.757045
Ex : 213
200 2.89024
205 3.4824
210 3.07239
215 4.69598
220 7.22362
225 5.42131
230 9.22739
235 4.59486
240 4.04497
245 7.17093
250 6.31049
255 5.2766
260 3.74619
265 3.56887
270 4.99677
275 2.98709
280 4.13024
285 3.56631
290 5.17394
295 3.8772
300 5.07939
305 4.47058
310 5.18621
315 3.72597
320 3.22555
325 6.15842
330 7.76358
335 4.59378
340 6.77344
345 4.00946
350 5.58057
355 9.6107
360 5.94102
365 6.5162
370 6.57709
375 5.93598
380 5.26393
385 6.32829
390 9.62648
395 4.42312
400 7.12117
405 2.56468
410 5.42076
415 8.76177
420 11.6794
425 6.73096
430 4.5135
435 6.24822
440 4.49025
445 3.13199
450 3.79182
455 1.42061
460 5.73542
465 5.39325
470 7.08939
475 3.63085
480 5.3607
485 5.44773
490 5.33389
495 7.64322
500 6.91413
505 10.811
510 5.58167
515 3.80102
520 6.89697
525 8.08782
530 8.16879
535 6.22847
540 6.10306
545 5.25567
550 6.02381
555 7.08067
560 5.6324
565 4.9097
570 7.31601
575 4.83139
580 8.14583
585 6.57381
590 4.4378
595 6.12483
600 5.4234
Ex : 218
200 6.6282
205 7.29002
210 5.26575
215 4.84709
220 6.74954
225 6.96599
230 5.4316
235 8.82714
240 5.60378
245 3.71989
250 7.14275
255 4.62407
260 2.12453
265 5.40944
270 4.59774
275 3.89078
280 8.33803
285 4.96282
290 5.74317
295 3.73311
300 4.14987
305 5.26004
310 6.92088
315 6.69373
320 4.26651
325 2.03234
330 5.19726
335 6.20236
340 4.89823
345 5.23822
350 6.97569
355 4.05824
360 6.87915
365 6.94772
370 5.79388
375 5.37306
380 5.47995
385 4.27919
390 6.04015
395 3.96245
400 4.11562
405 9.43832
410 5.25484
415 4.03886
420 7.04038
425 5.96108
430 4.69173
435 7.54501
440 6.61324
445 4.82232
450 3.29599
455 6.80278
460 5.50564
465 4.35449
470 7.68423
475 4.75415
480 7.02295
485 5.21965
490 4.37846
495 5.50025
500 6.10375
505 4.23379
510 5.64678
515 3.16826
520 5.62563
525 8.66747
530 4.76973
535 4.57303
540 6.50656
545 5.54254
550 5.71087
555 4.2681
560 7.96548
565 5.19812
570 3.34035
575 2.4737
580 5.61957
585 4.16143
590 6.25029
595 5.67291
600 0.645555
Ex : 223
200 8.73481
205 9.31948
210 6.37774
215 5.02549
220 4.08125
225 4.0729
230 3.93847
235 4.52268
240 5.86392
245 3.63504
250 4.26388
255 8.75479
260 7.0646
265 6.70351
270 6.78902
275 7.45443
280 5.33206
285 7.21637
290 8.22046
295 3.98504
300 3.83867
305 4.60031
310 6.75479
315 4.84626
320 4.51949
325 4.99711
330 4.75261
335 4.86635
340 5.54478
345 2.85435
350 5.31319
355 7.57889
360 5.01309
365 6.79001
370 6.19603
375 6.74201
380 8.23449
385 6.85099
390 6.16305
395 4.58742
400 10.4739
405 7.75958
410 5.38049
415 5.6631
420 5.15352
425 5.61942
430 4.01631
435 3.96943
440 4.79142
445 3.54659
450 10.4952
455 4.88415
460 4.85494
465 7.96632
470 4.82299
475 6.95937
480 4.4306
485 3.29328
490 2.51916
495 7.53335
500 4.12741
505 5.93898
510 5.19331
515 3.74937
520 3.93365
525 8.32614
530 4.74855
535 2.38389
540 2.517
545 4.44186
550 5.19713
555 4.00227
560 7.43495
565 5.22402
570 6.47803
575 9.18756
580 2.68979
585 10.0431
590 3.15196
595 3.29927
600 0.375444
Ex : 228
200 7.13793
205 3.71767
210 4.71656
215 4.14814
220 8.01273
225 3.71201
230 2.81066
235 4.01396
240 2.119
245 3.88217
250 5.56635
255 6.34282
260 10.951
265 7.45956
270 4.52108
275 3.33282
280 4.63304
285 4.06173
290 7.76122
295 6.92505
300 1.93742
305 6.4292
310 3.26869
315 3.37142
320 2.62249
325 4.54561
330 5.39926
335 2.88233
340 8.49517
345 4.83331
350 7.0901
355 5.35171
360 2.49285
365 3.43574
370 3.6511
375 6.08624
380 3.36557
385 4.71657
390 5.35643
395 7.87852
400 6.71103
405 4.41546
410 4.86611
415 5.6239
420 6.30554
425 8.18251
430 6.4394
435 5.43219
440 5.20641
445 4.30081
450 4.01895
455 7.91404
460 6.67387
465 5.39142
470 7.67206
475 4.21057
480 4.19162
485 8.14415
490 5.47426
495 4.08217
500 10.7865
505 3.8458
510 5.8373
515 8.20181
520 6.49557
525 3.8878
530 3.13628
535 4.12945
540 3.76742
545 3.69315
550 3.48345
555 3.8328
560 3.8467
565 3.67187
570 8.04133
575 4.63376
580 4.12551
585 5.21355
590 5.59982
595 3.77791
600 0.429911
Ex : 233
200 3.00502
205 2.4929
210 2.01992
215 5.31546
220 5.3735
225 3.50307
230 7.04045
235 6.35753
240 3.59764
245 4.98655
250 5.03559
255 3.41901
260 2.08301
265 3.71368
270 3.70288
275 2.59344
280 3.79683
285 2.83541
290 2.68901
295 5.79567
300 4.43946
305 2.81128
310 5.93914
315 5.65103
320 3.27097
325 3.16569
330 4.49132
335 3.9933
340 5.39257
345 4.0312
350 4.84885
355 5.05173
360 5.65127
365 3.90036
370 3.9977
375 3.48355
380 3.25145
385 6.77547
390 5.56808
395 5.76683
400 5.16189
405 5.14098
410 4.59768
415 4.22033
420 7.30642
425 5.83849
430 4.75563
435 4.38471
440 3.5367
445 4.58757
450 3.07805
455 3.21131
460 3.9429
465 5.86761
470 4.12768
475 4.351
480 5.27078
485 3.47397
490 5.05134
495 2.43874
500 4.62184
505 5.4095
510 4.66149
515 3.83727
520 6.63514
525 8.18297
530 5.15009
535 3.15236
540 2.60164
545 3.50002
550 5.10161
555 2.73138
560 5.56543
565 4.85109
570 3.2196
575 4.01345
580 3.6299
585 5.69583
590 6.05354
595 7.56971
600 0.861404
Ex : 238
200 3.50442
205 3.40136
210 5.3239
215 3.62737
220 1.89666
225 2.98893
230 2.72709
235 4.74135
240 2.62522
245 6.20944
250 4.00078
255 5.84528
260 4.37742
265 2.7195
270 7.06216
275 6.43001
280 3.56494
285 2.85228
290 3.59087
295 3.66209
300 2.63012
305 2.48555
310 7.23051
315 3.69547
320 1.94319
325 5.52512
330 3.50126
335 4.1465
340 5.81008
345 4.40702
350 9.00298
355 5.42907
360 3.82774
365 6.19805
370 3.00365
375 3.84652
380 4.44615
385 6.376
390 4.8279
395 7.7896
400 4.94637
405 4.5151
410 5.14701
415 3.31704
420 2.65628
425 2.59935
430 2.45178
435 4.55341
440 5.51537
445 2.38249
450 2.53815
455 4.53933
460 4.21045
465 4.72569
470 6.37067
475 5.92603
480 3.68313
485 4.4291
490 4.01886
495 2.27446
500 2.83047
505 4.31625
510 3.28948
515 2.56452
520 2.50528
525 3.01355
530 4.10715
535 4.38664
540 8.24936
545 4.10997
550 3.17082
555 3.86608
560 3.26343
565 2.63183
570 4.65256
575 5.32936
580 4.60099
585 5.46814
590 4.57069
595 7.60976
600 6.18318
Ex : 243
200 7.00813
205 6.55782
210 1.80673
215 1.65643
220 4.10544
225 4.38399
230 2.47831
235 1.72392
240 3.38576
245 2.61216
250 2.93748
255 3.36312
260 3.06385
265 3.29788
270 3.92368
275 3.76453
280 5.44773
285 5.93373
290 3.41139
295 1.53798
300 1.67146
305 3.22966
310 4.11375
315 1.84956
320 7.14693
325 3.01239
330 1.63149
335 6.54482
340 2.39584
345 3.85858
350 4.48033
355 4.55383
360 3.72612
365 3.91559
370 2.34128
375 3.39336
380 3.10062
385 4.55267
390 3.9296
395 4.90362
400 4.12825
405 4.91998
410 3.91154
415 3.89904
420 3.29094
425 3.64749
430 6.34582
435 2.99397
440 3.7349
445 3.99102
450 2.86935
455 3.68836
460 4.61616
465 2.8643
470 3.24333
475 6.40896
480 3.29105
485 3.96976
490 4.09297
495 3.01622
500 2.36833
505 6.19249
510 5.82737
515 4.16472
520 4.77099
525 8.66707
530 3.62688
535 3.9024
540 4.92472
545 2.9009
550 4.1576
555 4.60276
560 3.3545
565 3.6323
570 2.55795
575 4.04725
580 3.45532
585 2.203
590 3.11038
595 3.06383
600 0.348652
Ex : 248
200 3.72607
205 3.72357
210 2.6624
215 2.86764
220 2.56845
225 3.73484
230 5.32501
235 3.3961
240 5.62606
245 3.9956
250 3.54857
255 1.95312
260 1.70446
265 2.55614
270 2.55462
275 1.90372
280 5.54014
285 3.48026
290 1.08426
295 2.35925
300 3.55684
305 3.66687
310 1.63505
315 3.81674
320 4.45751
325 4.30935
330 3.83792
335 4.16502
340 2.48052
345 2.4575
350 4.57982
355 3.54487
360 3.09707
365 2.35629
370 1.98787
375 2.49731
380 5.41678
385 3.31119
390 2.03085
395 1.80167
400 2.70505
405 3.37183
410 3.9719
415 2.14591
420 3.27658
425 3.15028
430 3.55732
435 3.17259
440 1.40216
445 4.02134
450 3.12549
455 2.31977
460 3.50127
465 2.53955
470 1.60421
475 2.94615
480 3.85883
485 5.08003
490 5.00284
495 2.5254
500 2.5472
505 3.66388
510 3.57522
515 2.57758
520 2.24536
525 5.52316
530 2.63868
535 1.38956
540 1.02862
545 1.4388
550 4.51852
555 1.97401
560 3.79251
565 2.76267
570 3.47375
575 4.50982
580 3.89329
585 2.62544
590 4.01412
595 1.99665
600 0.227211
Ex : 253
200 2.80618
205 3.38657
210 1.93687
215 1.7162
220 1.6249
225 1.35551
230 1.76553
235 1.90037
240 2.90587
245 2.28792
250 2.56142
255 4.22704
260 2.06955
265 3.52218
270 2.85212
275 1.68198
280 3.04467
285 3.07936
290 2.19
295 1.95991
300 1.72932
305 2.87879
310 2.60641
315 2.37442
320 2.56887
325 1.56306
330 3.09654
335 2.5959
340 4.05662
345 3.85917
350 2.77952
355 2.73298
360 2.98791
365 2.99357
370 3.38312
375 2.24299
380 2.55074
385 2.70673
390 2.27707
395 3.2702
400 2.3181
405 2.95449
410 2.03244
415 2.93996
420 3.32275
425 2.16304
430 2.02613
435 1.91746
440 3.12965
445 2.39141
450 2.51582
455 5.46399
460 2.5989
465 3.15611
470 2.42696
475 3.27914
480 3.25583
485 2.23178
490 2.42137
495 2.35258
500 2.08304
505 4.13388
510 2.31647
515 1.70179
520 3.63583
525 2.18362
530 2.1108
535 2.33415
540 1.53876
545 2.56043
550 2.96513
555 2.73867
560 2.74999
565 2.91348
570 2.40526
575 2.12467
580 1.81105
585 2.99167
590 1.94282
595 1.82082
600 0.207203
Ex : 258
200 2.86105
205 1.60171
210 1.20171
215 1.87299
220 1.44488
225 1.10415
230 1.31471
235 1.12242
240 2.33257
245 2.34329
250 2.89245
255 1.3906
260 1.94091
265 1.65228
270 1.11854
275 1.34944
280 1.40029
285 3.87529
290 1.44033
295 3.39086
300 2.71492
305 2.91129
310 2.56469
315 1.53052
320 1.56196
325 3.77782
330 2.34213
335 1.4632
340 2.26541
345 2.65154
350 2.97715
355 2.36941
360 1.76842
365 1.98801
370 1.74456
375 2.51873
380 2.32981
385 2.42081
390 2.47473
395 2.78765
400 1.79953
405 2.39471
410 5.14966
415 2.95396
420 2.29788
425 1.59475
430 1.73081
435 1.52938
440 3.04093
445 3.09369
450 1.56877
455 1.48256
460 2.78606
465 2.30093
470 2.73909
475 1.44697
480 1.76541
485 2.4884
490 1.08604
495 2.12312
500 2.25222
505 2.15675
510 2.43274
515 3.04007
520 1.82898
525 3.25832
530 1.94851
535 2.39411
540 2.03482
545 3.20855
550 1.75006
555 2.06845
560 2.30384
565 1.12859
570 1.98824
575 1.13502
580 2.41984
585 1.73662
590 1.72221
595 2.68019
600 1.83571
Ex : 263
200 0.885563
205 1.41402
210 0.962559
215 1.36831
220 1.16539
225 1.7158
230 2.17561
235 1.63018
240 2.47768
245 0.937176
250 1.39412
255 1.1965
260 1.5247
265 1.07571
270 1.40944
275 1.68296
280 0.983339
285 1.7009
290 1.71027
295 1.27563
300 1.14372
305 2.42894
310 1.23527
315 1.12039
320 1.44841
325 1.78765
330 0.909548
335 1.7837
340 2.18661
345 1.21672
350 1.6905
355 1.50906
360 1.90252
365 1.82457
370 1.76163
375 1.02326
380 1.75386
385 1.61998
390 1.42472
395 2.96328
400 1.88082
405 1.87471
410 1.94427
415 1.61914
420 1.80046
425 1.57506
430 1.82035
435 2.40965
440 2.49531
445 1.84672
450 2.49395
455 2.35416
460 2.06199
465 1.59996
470 1.88936
475 1.49354
480 1.3298
485 1.34869
490 1.49558
495 1.18412
500 0.957883
505 2.2479
510 2.15247
515 1.24653
520 1.62352
525 1.74555
530 1.0106
535 1.42132
540 1.92028
545 2.54868
550 1.77434
555 1.28036
560 1.92888
565 1.65625
570 1.2481
575 0.788635
580 1.48326
585 1.74546
590 1.72705
595 1.81119
600 0.206106
Ex : 268
200 1.16224
205 1.07487
210 1.18478
215 1.38694
220 1.05274
225 1.56019
230 0.96528
235 1.26388
240 0.834743
245 1.17717
250 0.571528
255 1.37642
260 0.774327
265 1.12559
270 0.638327
275 0.804031
280 1.12994
285 1.44295
290 0.946221
295 0.783762
300 0.658627
305 1.58888
310 1.67874
315 1.61385
320 1.04285
325 1.325
330 1.06097
335 1.30234
340 2.92213
345 1.83169
350 1.75776
355 0.696744
360 1.93556
365 1.53343
370 0.931464
375 1.25757
380 1.9394
385 1.45406
390 1.23494
395 1.70341
400 1.71484
405 1.02137
410 1.34937
415 1.48468
420 1.8144
425 1.50565
430 1.6685
435 1.45973
440 1.27876
445 1.48612
450 0.812506
455 1.10086
460 1.73152
465 1.69289
470 1.17455
475 1.34179
480 1.82718
485 0.993897
490 1.43202
495 1.06497
500 0.917542
505 1.16786
510 0.779553
515 1.59849
520 1.69314
525 1.54608
530 1.68481
535 1.73981
540 1.06228
545 1.84345
550 0.928797
555 1.14645
560 1.68777
565 1.19911
570 1.26368
575 0.785492
580 0.738856
585 0.548932
590 0.922458
595 1.25375
600 0.299061
Ex : 273
200 0.768445
205 1.54903
210 0.805708
215 1.01419
220 1.43217
225 1.02552
230 0.696064
235 0.922827
240 0.761871
245 1.34357
250 1.35889
255 1.09174
260 1.41344
265 0.884442
270 0.882766
275 0.623395
280 0.922254
285 1.50491
290 0.866276
295 0.961435
300 1.22662
305 0.46566
310 1.26081
315 1.03868
320 0.589118
325 0.582251
330 0.837265
335 1.25817
340 0.515681
345 0.757088
350 1.39156
355 1.56461
360 0.909956
365 1.06153
370 0.806859
375 1.54423
380 0.999399
385 0.876961
390 1.38697
395 2.02672
400 1.89502
405 1.24805
410 0.995631
415 1.37444
420 1.31303
425 1.16676
430 1.61423
435 0.761566
440 1.14134
445 0.971622
450 1.78473
455 1.56181
460 0.961213
465 0.90267
470 0.613142
475 1.06513
480 0.977438
485 1.09456
490 0.914413
495 1.14589
500 0.561415
505 1.12271
510 0.980336
515 0.920443
520 1.41982
525 1.52512
530 1.0496
535 2.05592
540 1.18268
545 1.43382
550 0.740993
555 1.24046
560 1.48839
565 0.783202
570 1.11677
575 0.861622
580 1.4997
585 0.546564
590 0.830374
595 1.16274
600 0.469917
Ex : 278
200 0.859601
205 0.722654
210 0.592572
215 0.758509
220 0.582784
225 0.679344
230 0.218479
235 0.586288
240 0.64578
245 0.848301
250 0.790862
255 0.50982
260 0.345324
265 0.773044
270 0.693893
275 0.628767
280 1.33213
285 0.414836
290 0.90854
295 1.03571
300 0.657676
305 0.744818
310 0.571638
315 0.3798
320 0.957932
325 0.780573
330 1.08396
335 0.833765
340 0.76751
345 0.710693
350 1.29512
355 1.17236
360 0.813728
365 0.90615
370 1.08915
375 0.904489
380 0.980971
385 1.10335
390 1.19592
395 0.884823
400 1.52846
405 1.02975
410 1.1909
415 2.07982
420 1.3046
425 1.75766
430 0.515638
435 0.565427
440 0.498535
445 0.601836
450 1.33985
455 1.01356
460 1.15765
465 1.15825
470 1.00582
475 0.667626
480 0.950081
485 0.852109
490 0.699815
495 1.0795
500 1.18451
505 0.861189
510 0.639524
515 0.97835
520 0.914803
525 1.09804
530 0.841736
535 0.768447
540 0.716233
545 0.972618
550 0.953872
555 1.00378
560 1.2693
565 1.16435
570 0.519103
575 0.509451
580 0.874087
585 0.856181
590 1.05796
595 0.500548
600 1.68758
Ex : 283
200 0.555722
205 0.673043
210 0.453311
215 0.494347
220 0.68287
225 0.71119
230 0.762311
235 0.546828
240 0.776431
245 0.474496
250 0.887
255 0.736809
260 0.833659
265 0.639086
270 0.333965
275 0.386346
280 0.441321
285 0.840216
290 0.620046
295 0.893654
300 0.764854
305 0.717644
310 0.502214
315 0.504286
320 0.831161
325 0.777572
330 0.523059
335 0.673716
340 0.578759
345 0.747142
350 0.575334
355 0.594248
360 0.405762
365 0.834134
370 0.618678
375 1.01449
380 0.905205
385 1.07567
390 0.496358
395 0.912681
400 0.750694
405 0.816864
410 0.727102
415 1.13251
420 0.594497
425 1.11165
430 1.0591
435 0.608741
440 0.787415
445 0.958484
450 1.02234
455 0.829095
460 0.760352
465 0.761981
470 1.3879
475 1.02254
480 0.574512
485 0.857017
490 0.879549
495 0.627147
500 1.15153
505 0.484319
510 0.487738
515 0.669697
520 0.620228
525 0.343623
530 0.587899
535 0.480642
540 0.573824
545 0.932238
550 0.808867
555 0.802214
560 0.899849
565 0.526414
570 1.15695
575 0.985454
580 0.676524
585 0.484599
590 0.422173
595 0.440427
600 0.0501189
Ex : 288
200 0.705956
205 0.509143
210 0.30986
215 0.442208
220 0.253011
225 0.277361
230 0.53246
235 0.478023
240 0.646872
245 0.427419
250 0.534192
255 0.381426
260 0.257547
265 0.528421
270 0.606986
275 0.855121
280 0.647982
285 0.672148
290 0.581529
295 0.45333
300 0.363017
305 0.6225
310 0.678984
315 0.44428
320 0.532978
325 0.825831
330 1.05783
335 0.970999
340 0.849184
345 0.635534
350 0.768426
355 0.53418
360 0.548144
365 0.746307
370 0.830553
375 0.663856
380 0.631682
385 0.951925
390 0.620917
395 0.699468
400 0.466436
405 0.750099
410 0.840627
415 0.517581
420 0.695334
425 0.440006
430 0.589968
435 0.659809
440 0.488197
445 0.62286
450 0.780403
455 0.729402
460 0.578762
465 0.939156
470 0.743307
475 0.59768
480 0.660698
485 0.969261
490 0.553955
495 0.778989
500 0.735473
505 0.480418
510 0.792227
515 0.959487
520 0.5163
525 0.502974
530 0.736941
535 0.752164
540 0.918344
545 0.558838
550 0.867595
555 0.640825
560 0.764814
565 0.664623
570 0.825453
575 0.740757
580 0.467792
585 0.422343
590 0.425456
595 0.260926
600 0.0524156
Ex : 293
200 0.585288
205 0.287204
210 0.453415
215 0.487294
220 0.299375
225 0.522579
230 0.373121
235 0.218658
240 0.485861
245 0.624786
250 0.376405
255 0.207753
260 0.279277
265 0.277176
270 0.394779
275 0.37803
280 0.451522
285 0.856675
290 0.62873
295 0.344225
300 0.351073
305 0.35048
310 0.432051
315 0.416881
320 0.473763
325 0.730814
330 0.337748
335 0.385975
340 0.491529
345 0.873932
350 0.468149
355 0.800155
360 0.606345
365 0.492069
370 0.706101
375 1.12457
380 0.71257
385 0.675399
390 0.632693
395 0.841456
400 0.743716
405 0.685917
410 0.891634
415 0.916277
420 0.67353
425 0.484489
430 0.351177
435 0.34173
440 0.713773
445 0.539311
450 0.574918
455 0.665418
460 0.44789
465 0.482623
470 0.50974
475 0.466547
480 0.851533
485 0.616795
490 0.34334
495 0.525437
500 0.390819
505 0.54533
510 0.406185
515 0.75938
520 0.727326
525 0.533258
530 0.62249
535 0.848284
540 0.429926
545 0.566792
550 0.514085
555 0.678844
560 0.49454
565 0.358338
570 0.460383
575 0.895845
580 0.753129
585 0.497802
590 0.356196
595 0.463572
600 1.22093
Ex : 298
200 0.418182
205 0.455225
210 0.547778
215 0.440963
220 0.330186
225 0.365138
230 0.328801
235 0.48279
240 0.410416
245 0.369298
250 0.498329
255 0.355833
260 0.548555
265 0.485328
270 0.298468
275 0.468175
280 0.280413
285 0.25894
290 0.446917
295 0.512249
300 0.507594
305 0.316049
310 0.504595
315 0.290892
320 0.212478
325 0.359522
330 0.751215
335 0.530027
340 0.356957
345 0.617415
350 0.453773
355 0.426253
360 0.432019
365 0.442984
370 0.364523
375 0.867562
380 0.564386
385 0.56916
390 0.670659
395 0.870201
400 0.569744
405 0.545203
410 0.845305
415 0.554106
420 0.47975
425 0.516132
430 0.523056
435 0.56516
440 0.588488
445 0.653059
450 0.555921
455 0.437233
460 0.501824
465 0.557823
470 0.466298
475 0.838863
480 0.474788
485 0.572187
490 0.33624
495 0.49828
500 0.31922
505 0.444703
510 0.497386
515 0.308213
520 0.344875
525 0.44782
530 0.520815
535 0.444626
540 0.430281
545 0.497618
550 0.334362
555 0.323948
560 0.415715
565 0.434507
570 0.381465
575 0.416916
580 0.422297
585 0.302855
590 0.511808
595 0.594067
600 0.0676026
Ex : 303
200 0.363022
205 0.197657
210 0.215485
215 0.664262
220 0.400915
225 0.293111
230 0.266208
235 0.632124
240 0.286792
245 0.3684
250 0.291832
255 0.227577
260 0.412946
265 0.314684
270 0.248126
275 0.267673
280 0.202191
285 0.372517
290 0.247939
295 0.405876
300 0.523731
305 0.303958
310 0.422237
315 0.34725
320 0.4052
325 0.460194
330 0.631558
335 0.760345
340 0.520547
345 0.540216
350 0.57632
355 0.51137
360 0.396151
365 0.548147
370 0.405309
375 0.610332
380 0.430988
385 0.559283
390 0.449291
395 0.553262
400 0.818429
405 0.878189
410 0.487827
415 0.503065
420 0.851271
425 0.606188
430 0.506334
435 0.526786
440 0.568231
445 0.524677
450 0.729536
455 0.678987
460 0.379413
465 0.388985
470 0.473119
475 0.393282
480 0.510529
485 0.289109
490 0.635289
495 0.662857
500 0.484997
505 0.316006
510 0.176842
515 0.282463
520 0.302838
525 0.268425
530 0.520375
535 0.469766
540 0.389874
545 0.444714
550 0.583259
555 0.544245
560 0.551255
565 0.484581
570 0.275541
575 0.21074
580 0.452147
585 0.417069
590 0.451224
595 0.509112
600 0.057935
Ex : 308
200 0.13757
205 0.268856
210 0.127704
215 0.271494
220 0.328065
225 0.343869
230 0.285681
235 0.225624
240 0.16848
245 0.169889
250 0.288734
255 0.227374
260 0.290713
265 0.327863
270 0.219699
275 0.22366
280 0.416928
285 0.103046
290 0.236533
295 0.287528
300 0.31175
305 0.629098
310 0.405241
315 0.279606
320 0.224281
325 0.404346
330 0.388481
335 0.422629
340 0.456063
345 0.390805
350 0.485856
355 0.810776
360 0.460121
365 0.84259
370 0.962539
375 0.624725
380 0.523077
385 0.458362
390 0.56919
395 0.588551
400 0.460636
405 0.529795
410 0.495584
415 0.675926
420 0.608515
425 0.564059
430 0.629584
435 0.370781
440 0.612208
445 0.496565
450 0.62054
455 0.668
460 0.375712
465 0.435416
470 0.25735
475 0.387253
480 0.311844
485 0.278887
490 0.325789
495 0.293401
500 0.2819
505 0.521159
510 0.317315
515 0.227325
520 0.405849
525 0.267498
530 0.171728
535 0.182131
540 0.306568
545 0.31167
550 0.440768
555 0.393062
560 0.347099
565 0.185896
570 0.204215
575 0.34043
580 0.364457
585 0.3806
590 0.165524
595 0.213832
600 0.0243333
Ex : 313
200 0.338523
205 0.187042
210 0.294848
215 0.258414
220 0.261644
225 0.275881
230 0.32026
235 0.163162
240 0.45554
245 0.223651
250 0.21852
255 0.256786
260 0.222396
265 0.304905
270 0.245879
275 0.162336
280 0.162554
285 0.258529
290 0.226384
295 0.230793
300 0.437833
305 0.447106
310 0.599233
315 0.206634
320 0.250781
325 0.341975
330 0.282436
335 0.478076
340 0.465503
345 0.474557
350 0.333712
355 0.524609
360 0.596349
365 0.427576
370 0.732401
375 0.756335
380 0.783386
385 0.87655
390 0.879542
395 0.829614
400 0.718375
405 1.03234
410 0.94896
415 0.735454
420 0.865314
425 0.785835
430 0.865956
435 0.666999
440 0.56516
445 0.683506
450 0.863422
455 0.648931
460 0.677126
465 0.762244
470 0.725276
475 0.52918
480 0.448718
485 0.366734
490 0.298877
495 0.45018
500 0.278405
505 0.181339
510 0.282641
515 0.384806
520 0.244149
525 0.545101
530 0.44367
535 0.370111
540 0.39151
545 0.316419
550 0.228995
555 0.341618
560 0.256933
565 0.187401
570 0.421777
575 0.231443
580 0.246864
585 0.436417
590 0.262439
595 0.251279
600 0.278549
Ex : 318
200 0.166441
205 0.395893
210 0.102037
215 0.16282
220 0.277286
225 0.122935
230 0.349493
235 0.22852
240 0.296749
245 0.337346
250 0.239799
255 0.0975833
260 0.12634
265 0.185699
270 0.214958
275 0.247352
280 0.214514
285 0.212852
290 0.28849
295 0.207468
300 0.246546
305 0.223011
310 0.421501
315 1.16752
320 0.795817
325 0.465027
330 0.534545
335 0.907016
340 1.11383
345 1.17791
350 1.97905
355 2.52295
360 2.94885
365 3.74356
370 4.7088
375 4.95229
380 6.2486
385 6.55996
390 7.43929
395 7.92439
400 8.11676
405 8.04544
410 8.20898
415 8.44559
420 7.76679
425 7.37824
430 7.84859
435 7.49017
440 6.48513
445 6.81371
450 5.88093
455 5.61051
460 4.95703
465 5.20257
470 4.47336
475 3.76456
480 3.68849
485 2.9554
490 2.72661
495 2.55675
500 2.20685
505 1.72798
510 1.74568
515 1.44897
520 1.26186
525 1.17584
530 0.852105
535 0.750237
540 0.66219
545 0.596493
550 0.648246
555 0.465363
560 0.36356
565 0.403888
570 0.441899
575 0.390223
580 0.368574
585 0.277625
590 0.26075
595 0.284151
600 0.0323353
Ex : 323
200 0.126999
205 0.398709
210 0.307655
215 0.242135
220 0.166812
225 0.209831
230 0.289632
235 0.270883
240 0.26287
245 0.18412
250 0.223813
255 0.269813
260 0.231333
265 0.186013
270 0.232792
275 0.23559
280 0.282852
285 0.138713
290 0.100993
295 0.245848
300 0.182987
305 0.149042
310 0.183339
315 11.4801
320 51.0159
325 21.7342
330 4.03467
335 3.13744
340 4.04254
345 5.96329
350 8.03131
355 11.3773
360 14.046
365 16.3623
370 19.6056
375 22.298
380 25.5228
385 28.1899
390 31.025
395 32.6254
400 33.1052
405 32.645
410 34.2815
415 33.8441
420 33.2134
425 31.7305
430 31.6807
435 29.712
440 27.5974
445 26.6735
450 25.7264
455 24.3478
460 21.4858
465 20.3093
470 18.5718
475 16.809
480 14.8882
485 13.7625
490 12.6627
495 10.4498
500 9.45176
505 8.10748
510 6.95311
515 7.17648
520 5.59651
525 4.78277
530 4.33214
535 3.88295
540 3.02083
545 2.51576
550 2.26956
555 1.68194
560 1.53034
565 1.20183
570 1.18066
575 0.705717
580 0.667399
585 0.650359
590 0.295129
595 0.319484
600 0.0363561
Ex : 328
200 0.178179
205 0.137413
210 0.246795
215 0.205634
220 0.212028
225 0.211123
230 0.227352
235 0.176396
240 0.174576
245 0.217123
250 0.162357
255 0.268075
260 0.152714
265 0.127721
270 0.251061
275 0.121854
280 0.251009
285 0.252419
290 0.113592
295 0.134589
300 0.17745
305 0.198671
310 0.204403
315 2.99168
320 120.105
325 287.79
330 84.3482
335 13.3324
340 6.46831
345 7.28386
350 8.88289
355 12.8814
360 17.4455
365 20.5428
370 22.6654
375 24.8779
380 28.0423
385 31.6431
390 35.4269
395 36.0937
400 36.8855
405 38.0142
410 37.5855
415 37.8337
420 36.4038
425 34.6245
430 32.967
435 31.9409
440 30.7849
445 28.2377
450 27.6575
455 24.9069
460 22.4701
465 21.3095
470 19.6043
475 18.7888
480 16.1105
485 14.8607
490 13.652
495 12.162
500 10.4811
505 9.31737
510 8.29338
515 6.88328
520 6.5667
525 5.34056
530 4.68943
535 3.82923
540 3.30921
545 2.94678
550 2.30737
555 2.03305
560 1.77478
565 1.24016
570 1.22869
575 1.01733
580 0.931037
585 0.598177
590 0.683979
595 0.382175
600 0.83213
Ex : 333
200 0.166536
205 0.188334
210 0.224422
215 0.153237
220 0.146435
225 0.170733
230 0.208118
235 0.18773
240 0.118398
245 0.207434
250 0.182367
255 0.171164
260 0.212946
265 0.251147
270 0.196282
275 0.231122
280 0.168093
285 0.338743
290 0.320695
295 0.193088
300 0.24466
305 0.317282
310 0.260106
315 0.368009
320 15.5433
325 325.426
330 545.586
335 142.494
340 20.3291
345 7.26229
350 6.36792
355 6.61356
360 9.60362
365 14.0209
370 14.6572
375 14.7129
380 16.0295
385 18.4951
390 20.0546
395 21.2763
400 22.2714
405 23.3495
410 23.3424
415 22.9954
420 22.6181
425 20.246
430 19.2838
435 18.8301
440 17.8313
445 17.0129
450 15.0172
455 14.3635
460 13.0337
465 12.8977
470 11.1764
475 10.2251
480 9.52162
485 8.45544
490 7.8136
495 6.84813
500 6.22476
505 5.49052
510 4.88338
515 3.98121
520 3.39516
525 3.32172
530 2.74479
535 2.14744
540 1.9986
545 1.89424
550 1.49699
555 1.46459
560 1.09904
565 1.09604
570 1.10716
575 0.704975
580 0.563703
585 0.519428
590 0.456946
595 0.45724
600 0.0520322
Ex : 338
200 0.169296
205 0.211717
210 0.257728
215 0.175972
220 0.1872
225 0.254314
230 0.208687
235 0.281211
240 0.121731
245 0.178628
250 0.269799
255 0.168454
260 0.152757
265 0.182328
270 0.147914
275 0.138871
280 0.148963
285 0.179449
290 0.197344
295 0.222874
300 0.206034
305 0.171384
310 0.247751
315 0.213552
320 0.582229
325 28.9683
330 480.371
335 709.009
340 172.735
345 23.2619
350 6.24295
355 3.92923
360 4.02116
365 5.89897
370 10.4756
375 10.3823
380 9.49804
385 9.92629
390 12.7344
395 13.3079
400 13.3358
405 13.1914
410 13.7813
415 14.7612
420 13.4313
425 12.2287
430 11.9745
435 10.9946
440 10.0954
445 10.0214
450 9.44156
455 8.57436
460 7.71503
465 7.05644
470 6.71472
475 6.18625
480 5.61992
485 5.2537
490 4.35588
495 3.93268
500 3.97982
505 3.17649
510 3.01565
515 2.49709
520 2.32466
525 2.0105
530 1.60992
535 1.53822
540 1.54085
545 1.25193
550 1.12754
555 0.905773
560 0.895603
565 0.858856
570 0.735903
575 0.657178
580 0.503562
585 0.545339
590 0.486902
595 0.322094
600 0.581504
Ex : 343
200 0.155678
205 0.133831
210 0.159656
215 0.0956696
220 0.0880421
225 0.111274
230 0.148451
235 0.226988
240 0.153814
245 0.231689
250 0.311957
255 0.102878
260 0.155095
265 0.16815
270 0.249447
275 0.235934
280 0.274562
285 0.182731
290 0.219697
295 0.160182
300 0.166266
305 0.245377
310 0.198891
315 0.312351
320 0.198629
325 0.756172
330 32.9783
335 536.262
340 785.087
345 188.365
350 24.5063
355 5.77248
360 3.22261
365 2.48752
370 3.46192
375 7.51421
380 9.31857
385 9.29025
390 10.6378
395 10.5701
400 10.1166
405 10.8586
410 11.7994
415 12.3497
420 11.3798
425 10.7832
430 9.70425
435 9.33476
440 9.15605
445 8.50173
450 8.09387
455 6.89949
460 6.56721
465 6.1652
470 5.65163
475 4.93213
480 4.97116
485 4.51091
490 3.69697
495 3.28696
500 3.35728
505 2.86973
510 2.4906
515 2.14315
520 1.90512
525 1.79132
530 1.51658
535 1.45545
540 1.13226
545 1.21689
550 0.918198
555 0.875875
560 0.912205
565 0.767668
570 0.736771
575 0.4469
580 0.409284
585 0.453222
590 0.467796
595 0.378184
600 0.525324
Ex : 348
200 0.193092
205 0.223292
210 0.120285
215 0.221661
220 0.183737
225 0.191891
230 0.100926
235 0.082936
240 0.0953062
245 0.300084
250 0.124591
255 0.174706
260 0.104382
265 0.106283
270 0.140937
275 0.220056
280 0.15334
285 0.189877
290 0.161211
295 0.126742
300 0.136241
305 0.189677
310 0.281596
315 0.292529
320 0.246306
325 0.404087
330 0.688725
335 34.5046
340 542.994
345 815.751
350 208.223
355 26.5874
360 5.82784
365 2.78152
370 2.16045
375 2.6081
380 6.9809
385 12.6954
390 13.7767
395 12.8742
400 11.5322
405 11.9742
410 13.866
415 13.971
420 13.129
425 11.8792
430 11.3738
435 10.6027
440 10.6058
445 9.37215
450 8.93472
455 7.47718
460 6.98019
465 6.66237
470 6.21353
475 5.31645
480 4.99584
485 4.51081
490 4.03707
495 4.0203
500 3.49405
505 3.02423
510 2.8125
515 2.38127
520 2.23008
525 2.11729
530 1.48565
535 1.62109
540 1.30217
545 1.1808
550 1.13777
555 1.16325
560 0.815483
565 0.889596
570 0.668313
575 0.591483
580 0.498467
585 0.400384
590 0.526549
595 0.4678
600 0.113782
Ex : 353
200 0.112369
205 0.0820237
210 0.170686
215 0.33743
220 0.136893
225 0.154631
230 0.116241
235 0.0884357
240 0.119195
245 0.136512
250 0.148428
255 0.0990625
260 0.192687
265 0.140293
270 0.177607
275 0.182936
280 0.205367
285 0.204578
290 0.13456
295 0.20516
300 0.208908
305 0.183235
310 0.166568
315 0.250716
320 0.189903
325 0.204089
330 0.487037
335 0.938305
340 35.8745
345 556.707
350 815.851
355 198.029
360 24.9424
365 5.24238
370 2.6485
375 2.20734
380 3.21291
385 8.58074
390 15.6072
395 16.3238
400 13.4983
405 12.6343
410 14.597
415 16.493
420 15.5251
425 13.2725
430 11.7597
435 11.3898
440 11.3443
445 11.0228
450 9.82164
455 8.47147
460 7.52723
465 6.98792
470 6.64476
475 6.3598
480 5.58828
485 4.96863
490 4.7168
495 4.30724
500 3.64787
505 3.6102
510 3.03314
515 2.79418
520 2.28833
525 1.93805
530 1.8591
535 1.62324
540 1.47406
545 1.34586
550 1.28405
555 0.881273
560 0.888322
565 0.816792
570 0.668462
575 0.579543
580 0.574435
585 0.389051
590 0.393211
595 0.301474
600 0.450437
Ex : 358
200 0.208115
205 0.0958935
210 0.146857
215 0.0932325
220 0.0669835
225 0.187852
230 0.132783
235 0.129251
240 0.0665031
245 0.137623
250 0.14447
255 0.155575
260 0.12334
265 0.108905
270 0.111521
275 0.140351
280 0.115911
285 0.093133
290 0.102212
295 0.14169
300 0.172027
305 0.171369
310 0.106838
315 0.0866162
320 0.183535
325 0.271853
330 0.377571
335 0.445714
340 0.895548
345 33.5719
350 528.893
355 814.97
360 202.558
365 25.6835
370 5.07348
375 2.84087
380 3.27253
385 6.18211
390 10.9961
395 15.7709
400 14.8228
405 12.9947
410 13.6184
415 15.1331
420 13.9224
425 12.1938
430 11.2726
435 10.8263
440 10.8377
445 10.3849
450 9.32412
455 8.319
460 7.41818
465 6.93911
470 6.53984
475 6.06052
480 5.57745
485 5.15166
490 4.37779
495 4.20536
500 3.9643
505 3.27657
510 3.33879
515 2.80458
520 2.61875
525 2.11954
530 1.94676
535 1.82572
540 1.50934
545 1.38331
550 1.24
555 0.989554
560 1.04276
565 0.860342
570 0.722523
575 0.602411
580 0.561493
585 0.420989
590 0.449124
595 0.321982
600 0.557937
Ex : 363
200 0.0863859
205 0.0838136
210 0.133543
215 0.135532
220 0.121998
225 0.15594
230 0.105083
235 0.217092
240 0.135546
245 0.164014
250 0.162643
255 0.0995053
260 0.193783
265 0.155423
270 0.112124
275 0.141821
280 0.109546
285 0.160449
290 0.145209
295 0.118737
300 0.17282
305 0.115146
310 0.0957686
315 0.320059
320 0.194409
325 0.203889
330 0.252649
335 0.383168
340 0.549354
345 0.801635
350 30.0726
355 511.892
360 808.87
365 209.379
370 26.347
375 5.48639
380 4.84128
385 7.83523
390 10.7351
395 12.9491
400 15.3863
405 16.92
410 17.2798
415 17.4302
420 15.2725
425 13.3501
430 12.4712
435 12.2008
440 12.1422
445 11.3375
450 9.67483
455 8.90169
460 8.23672
465 7.47397
470 7.2615
475 6.76346
480 6.26298
485 5.42314
490 4.85808
495 4.74528
500 4.14554
505 3.78555
510 3.2301
515 2.9335
520 2.64263
525 2.38082
530 2.05053
535 1.95404
540 1.60358
545 1.45128
550 1.19058
555 1.13183
560 1.0754
565 0.911774
570 0.687274
575 0.604065
580 0.498186
585 0.436692
590 0.35003
595 0.392318
600 0.494426
Ex : 368
200 0.11553
205 0.162328
210 0.156791
215 0.127685
220 0.107193
225 0.120095
230 0.119017
235 0.102194
240 0.100796
245 0.119036
250 0.112566
255 0.12681
260 0.12954
265 0.0692507
270 0.157036
275 0.11198
280 0.151376
285 0.176658
290 0.183572
295 0.108191
300 0.114684
305 0.135594
310 0.161398
315 0.176663
320 0.114583
325 0.156584
330 0.200964
335 0.256979
340 0.24662
345 0.413483
350 0.946377
355 24.8244
360 486.006
365 820.504
370 218.488
375 27.9197
380 7.28318
385 9.36794
390 13.951
395 15.9004
400 15.4708
405 17.757
410 21.8634
415 22.4101
420 20.4541
425 16.4356
430 14.9496
435 14.2989
440 14.314
445 13.3271
450 11.9289
455 10.2675
460 9.45482
465 9.15412
470 8.45118
475 7.57462
480 6.8491
485 6.21761
490 5.54995
495 5.42381
500 4.57739
505 4.15023
510 3.59713
515 3.41019
520 2.83857
525 2.56396
530 2.53959
535 1.95956
540 1.72291
545 1.55723
550 1.41524
555 1.3176
560 1.05295
565 0.949582
570 0.734792
575 0.55051
580 0.537703
585 0.425666
590 0.316407
595 0.297489
600 0.0338531
Ex : 373
200 0.0905956
205 0.0828805
210 0.0983882
215 0.109052
220 0.0783996
225 0.0708926
230 0.109713
235 0.121015
240 0.195638
245 0.133669
250 0.124987
255 0.102927
260 0.096033
265 0.0821284
270 0.13297
275 0.0879726
280 0.0759662
285 0.122364
290 0.120164
295 0.106585
300 0.0945299
305 0.0851513
310 0.0816202
315 0.118013
320 0.0948032
325 0.183751
330 0.195892
335 0.284559
340 0.262371
345 0.440809
350 0.483825
355 0.807521
360 28.6455
365 498.473
370 814.67
375 214.39
380 28.101
385 9.78634
390 14.0021
395 16.872
400 15.2444
405 14.1928
410 18.221
415 23.7467
420 22.2742
425 17.713
430 14.8936
435 13.5204
440 14.5096
445 13.5724
450 12.4247
455 10.2706
460 9.08983
465 8.87178
470 8.06818
475 7.68046
480 7.09018
485 6.0664
490 5.44491
495 5.0614
500 4.71936
505 4.24791
510 3.77652
515 3.41506
520 3.09543
525 2.67724
530 2.49117
535 2.34749
540 1.96444
545 1.68069
550 1.41748
555 1.24613
560 1.08708
565 0.960088
570 0.73952
575 0.664379
580 0.502564
585 0.400303
590 0.335027
595 0.295803
600 0.197628
Ex : 378
200 0.197288
205 0.104408
210 0.105054
215 0.109832
220 0.117318
225 0.0808514
230 0.137545
235 0.0686178
240 0.170969
245 0.107368
250 0.149079
255 0.106783
260 0.0702109
265 0.0585143
270 0.139916
275 0.105248
280 0.103471
285 0.0895071
290 0.114487
295 0.121326
300 0.126681
305 0.112297
310 0.111609
315 0.116803
320 0.234909
325 0.12223
330 0.132804
335 0.154298
340 0.203666
345 0.224586
350 0.40194
355 0.484857
360 0.800642
365 26.3411
370 496.478
375 815.39
380 217.259
385 30.9081
390 12.8836
395 13.1104
400 11.5072
405 10.5984
410 12.2003
415 15.4675
420 18.0175
425 15.6524
430 12.6382
435 11.6976
440 11.0858
445 10.7484
450 9.29802
455 8.51466
460 7.86068
465 7.31592
470 6.94025
475 6.32718
480 5.81905
485 5.486
490 5.40721
495 4.78222
500 4.19256
505 3.99909
510 3.46495
515 3.19632
520 2.91071
525 2.51299
530 2.28351
535 1.99434
540 1.77402
545 1.69963
550 1.27607
555 1.27665
560 1.04483
565 0.85954
570 0.785583
575 0.609367
580 0.481428
585 0.367563
590 0.295254
595 0.295528
600 0.125943
Ex : 383
200 0.0801204
205 0.110199
210 0.08203
215 0.0912846
220 0.0636463
225 0.0943205
230 0.0710756
235 0.0992855
240 0.0994816
245 0.0906468
250 0.11002
255 0.144185
260 0.0725685
265 0.0736358
270 0.115518
275 0.081406
280 0.0931775
285 0.123639
290 0.162472
295 0.100222
300 0.165527
305 0.138238
310 0.0837587
315 0.0844457
320 0.0863615
325 0.13206
330 0.128023
335 0.168404
340 0.137386
345 0.206138
350 0.245198
355 0.363178
360 0.483719
365 0.936311
370 24.5043
375 484.686
380 837.287
385 229.163
390 36.4749
395 13.7849
400 10.7529
405 11.4198
410 12.4838
415 14.2378
420 13.4272
425 14.4549
430 13.6411
435 12.1726
440 11.6746
445 10.6887
450 9.1828
455 8.35686
460 7.79554
465 7.36373
470 7.2483
475 6.728
480 6.11976
485 5.74574
490 5.03521
495 4.49579
500 4.44669
505 4.09261
510 3.50635
515 3.17088
520 2.8317
525 2.46238
530 2.45463
535 1.99917
540 1.83111
545 1.58412
550 1.51883
555 1.36926
560 1.15181
565 1.02428
570 0.786896
575 0.668967
580 0.506213
585 0.378935
590 0.2797
595 0.318228
600 0.0362131
Ex : 388
200 0.0898388
205 0.118901
210 0.146832
215 0.124897
220 0.102274
225 0.134427
230 0.0716869
235 0.0695003
240 0.102623
245 0.0902949
250 0.101915
255 0.0778543
260 0.108585
265 0.135431
270 0.10391
275 0.0915627
280 0.0877089
285 0.154937
290 0.0974098
295 0.0898963
300 0.123443
305 0.0902704
310 0.109612
315 0.0936543
320 0.0796366
325 0.15901
330 0.168539
335 0.15692
340 0.162265
345 0.159882
350 0.273533
355 0.233269
360 0.337
365 0.405496
370 0.813003
375 26.9029
380 502.916
385 840.502
390 233.458
395 39.7887
400 15.6002
405 13.7882
410 16.3445
415 17.4657
420 16.8647
425 14.4474
430 14.6273
435 15.5417
440 14.6531
445 13.149
450 11.2955
455 9.65885
460 8.49273
465 8.09629
470 7.72452
475 7.33057
480 6.82024
485 6.14718
490 5.59806
495 5.08051
500 4.58785
505 4.27035
510 3.89
515 3.35491
520 2.9251
525 2.73471
530 2.61528
535 2.05085
540 1.81407
545 1.53671
550 1.44268
555 1.25602
560 1.00328
565 1.06416
570 0.910205
575 0.614602
580 0.457477
585 0.410034
590 0.347992
595 0.249362
600 0.580164
Ex : 393
200 0.11152
205 0.0798121
210 0.0988313
215 0.121102
220 0.0787182
225 0.0857724
230 0.122185
235 0.0568823
240 0.119536
245 0.108737
250 0.0720362
255 0.0611063
260 0.088268
265 0.113416
270 0.0997559
275 0.0872555
280 0.122788
285 0.150518
290 0.144156
295 0.179997
300 0.0985738
305 0.103716
310 0.0996829
315 0.0879537
320 0.109193
325 0.0785832
330 0.104099
335 0.139045
340 0.198288
345 0.154598
350 0.158444
355 0.197776
360 0.250795
365 0.377799
370 0.586955
375 1.11322
380 24.2998
385 490.751
390 848.491
395 239.882
400 39.5449
405 15.7359
410 14.8443
415 18.5555
420 17.7961
425 14.8318
430 12.5544
435 12.8066
440 15.6038
445 14.9409
450 11.972
455 10.0489
460 8.43207
465 7.74251
470 7.27303
475 7.15683
480 6.61207
485 6.05177
490 5.46656
495 4.78347
500 4.50118
505 4.29241
510 3.81801
515 3.50235
520 2.97341
525 2.64801
530 2.51061
535 2.21313
540 1.929
545 1.7552
550 1.55738
555 1.41137
560 1.10579
565 0.956002
570 0.874189
575 0.60156
580 0.463987
585 0.41567
590 0.362782
595 0.293436
600 0.335146
Ex : 398
200 0.0458455
205 0.0632956
210 0.111744
215 0.0684534
220 0.060719
225 0.0665413
230 0.057601
235 0.0909827
240 0.0970995
245 0.0855022
250 0.0683943
255 0.0865117
260 0.0924992
265 0.0394382
270 0.0599979
275 0.0714735
280 0.0944651
285 0.0712237
290 0.0987313
295 0.0791369
300 0.0836476
305 0.107169
310 0.0819637
315 0.147528
320 0.105757
325 0.0917865
330 0.0651525
335 0.14622
340 0.192051
345 0.183386
350 0.180254
355 0.182496
360 0.178176
365 0.218989
370 0.316489
375 0.476385
380 1.12096
385 25.5825
390 496.905
395 860.115
400 236.629
405 34.0699
410 11.6377
415 11.5467
420 11.8241
425 9.30044
430 7.89052
435 7.28292
440 8.75445
445 10.9567
450 9.80557
455 7.81256
460 6.75312
465 5.94731
470 5.54065
475 5.46093
480 5.28734
485 4.61562
490 4.26637
495 3.97323
500 3.91882
505 3.67749
510 3.53869
515 3.20522
520 2.71727
525 2.38685
530 2.04212
535 2.01015
540 1.79428
545 1.52167
550 1.40356
555 1.33613
560 1.07881
565 0.956299
570 0.817728
575 0.66706
580 0.508424
585 0.425648
590 0.306898
595 0.30136
600 0.103622
Ex : 403
200 0.0645556
205 0.117949
210 0.0772769
215 0.143873
220 0.152745
225 0.109337
230 0.0992701
235 0.117475
240 0.127487
245 0.065796
250 0.0681643
255 0.0857428
260 0.0591364
265 0.081158
270 0.0835976
275 0.11704
280 0.090961
285 0.113003
290 0.0955086
295 0.0961758
300 0.081762
305 0.0792504
310 0.107542
315 0.0968815
320 0.132956
325 0.123824
330 0.0932918
335 0.145908
340 0.150994
345 0.139184
350 0.12248
355 0.203833
360 0.194055
365 0.173222
370 0.227188
375 0.391992
380 0.533284
385 1.2609
390 28.5815
395 507.542
400 843.112
405 228.816
410 30.3406
415 8.27589
420 5.76286
425 5.25466
430 4.50841
435 4.33724
440 4.68652
445 5.43986
450 6.8404
455 7.54068
460 5.94676
465 5.30662
470 4.94168
475 4.30645
480 4.17317
485 4.10283
490 4.0571
495 3.60545
500 3.44562
505 3.23957
510 3.12181
515 2.84545
520 2.55315
525 2.29707
530 2.05393
535 2.00098
540 1.63943
545 1.60216
550 1.54383
555 1.40645
560 0.988143
565 0.845118
570 0.802873
575 0.602016
580 0.50387
585 0.448063
590 0.333495
595 0.274057
600 0.393586
Ex : 408
200 0.0611375
205 0.0463183
210 0.0606404
215 0.0938591
220 0.113341
225 0.0742124
230 0.10576
235 0.0759767
240 0.137573
245 0.110681
250 0.080949
255 0.0706833
260 0.0753941
265 0.0777098
270 0.0803393
275 0.0743745
280 0.0832368
285 0.0980273
290 0.0583846
295 0.0552429
300 0.0918228
305 0.0960849
310 0.0825363
315 0.0848451
320 0.0982173
325 0.130975
330 0.0803425
335 0.0842607
340 0.115895
345 0.139218
350 0.160735
355 0.13993
360 0.186303
365 0.16637
370 0.195109
375 0.236746
380 0.260035
385 0.592606
390 1.17971
395 26.5725
400 515.239
405 849.417
410 222.882
415 29.9189
420 7.16244
425 4.45908
430 4.32397
435 4.0644
440 4.35185
445 4.5566
450 4.67403
455 6.0197
460 6.97368
465 5.75206
470 5.28031
475 4.6868
480 4.22294
485 4.01951
490 3.85764
495 3.53521
500 3.33766
505 3.11851
510 3.00555
515 2.83705
520 2.53752
525 2.28381
530 2.10401
535 1.94336
540 1.67853
545 1.67902
550 1.39945
555 1.17412
560 1.21484
565 0.894961
570 0.789766
575 0.616631
580 0.507103
585 0.421199
590 0.297735
595 0.272947
600 0.42243
Ex : 413
200 0.0739883
205 0.071447
210 0.0783009
215 0.0979161
220 0.0765918
225 0.0627457
230 0.105281
235 0.0747289
240 0.0911439
245 0.102949
250 0.11252
255 0.108126
260 0.0762064
265 0.0568654
270 0.0669038
275 0.0860448
280 0.0670649
285 0.0590421
290 0.101596
295 0.098695
300 0.107933
305 0.095535
310 0.0978587
315 0.116427
320 0.0797142
325 0.0866933
330 0.127733
335 0.0901785
340 0.104002
345 0.0983839
350 0.144624
355 0.0936793
360 0.0920065
365 0.138847
370 0.185682
375 0.128876
380 0.19482
385 0.309581
390 0.548627
395 1.05671
400 28.6883
405 518.652
410 838.339
415 215.954
420 28.4946
425 6.71055
430 3.95896
435 3.94658
440 4.12191
445 3.72456
450 3.89501
455 3.86247
460 4.93636
465 6.52919
470 6.01351
475 4.82984
480 4.34821
485 3.86362
490 3.67686
495 3.37507
500 3.15127
505 2.98982
510 2.86902
515 2.49988
520 2.47035
525 2.43639
530 2.09585
535 1.91783
540 1.86462
545 1.36531
550 1.30144
555 1.22196
560 1.10255
565 0.901314
570 0.725306
575 0.678398
580 0.506113
585 0.301414
590 0.310492
595 0.244081
600 0.0898098
Ex : 418
200 0.123861
205 0.0812551
210 0.0689219
215 0.0640677
220 0.0488051
225 0.0532158
230 0.0822517
235 0.0742179
240 0.0895973
245 0.0998762
250 0.0892604
255 0.0740211
260 0.0701612
265 0.114113
270 0.0870347
275 0.0672843
280 0.0861927
285 0.0529709
290 0.107387
295 0.0862112
300 0.0711777
305 0.0507712
310 0.0755878
315 0.0966449
320 0.108354
325 0.0722146
330 0.0859251
335 0.117522
340 0.093253
345 0.0712914
350 0.132064
355 0.109856
360 0.132313
365 0.168495
370 0.185263
375 0.14103
380 0.136943
385 0.20347
390 0.336632
395 0.566149
400 0.945301
405 26.6319
410 506.381
415 837.871
420 222.029
425 28.2373
430 5.50584
435 2.81954
440 3.01301
445 3.0236
450 2.74936
455 2.66949
460 2.59033
465 3.2214
470 5.04966
475 5.25921
480 4.11402
485 3.80226
490 3.34168
495 2.78925
500 2.89207
505 2.61676
510 2.4631
515 2.38981
520 2.14784
525 1.91931
530 1.85449
535 1.77211
540 1.64505
545 1.4991
550 1.22709
555 1.09895
560 0.953773
565 0.783909
570 0.720308
575 0.591286
580 0.456003
585 0.394264
590 0.342866
595 0.231899
600 0.125504
Ex : 423
200 0.0883634
205 0.088467
210 0.0699741
215 0.0737566
220 0.128094
225 0.0835105
230 0.0921474
235 0.0771649
240 0.0798979
245 0.0958777
250 0.0693248
255 0.10571
260 0.091887
265 0.0361131
270 0.0942864
275 0.088969
280 0.0795476
285 0.0459111
290 0.113836
295 0.108905
300 0.073202
305 0.0801094
310 0.0391005
315 0.107304
320 0.102425
325 0.0752734
330 0.0691044
335 0.19405
340 0.110193
345 0.117543
350 0.10294
355 0.144838
360 0.159263
365 0.0954917
370 0.0848213
375 0.13685
380 0.109175
385 0.251212
390 0.254908
395 0.339903
400 0.509964
405 1.01278
410 27.7399
415 524.67
420 829.311
425 210.154
430 26.2934
435 4.83733
440 2.26609
445 2.14399
450 2.03351
455 1.85011
460 1.72755
465 1.83504
470 2.27007
475 3.85779
480 4.74988
485 3.6128
490 3.13054
495 2.91966
500 2.4962
505 2.46353
510 2.09725
515 2.06617
520 2.05442
525 1.87786
530 1.77269
535 1.40939
540 1.37893
545 1.32246
550 1.1445
555 0.986113
560 0.956289
565 0.771035
570 0.745038
575 0.529243
580 0.460919
585 0.399626
590 0.234789
595 0.229633
600 0.186464
Ex : 428
200 0.100461
205 0.113119
210 0.0792277
215 0.077569
220 0.0559331
225 0.0748292
230 0.0602498
235 0.0960312
240 0.108555
245 0.0879495
250 0.0893088
255 0.0849193
260 0.103042
265 0.124531
270 0.0870458
275 0.100923
280 0.0881516
285 0.098054
290 0.0919466
295 0.0899184
300 0.0881023
305 0.109808
310 0.108253
315 0.058036
320 0.0717705
325 0.0899292
330 0.0737569
335 0.0930778
340 0.122637
345 0.131397
350 0.0879148
355 0.105045
360 0.102268
365 0.0857553
370 0.0761707
375 0.170034
380 0.145337
385 0.181272
390 0.20053
395 0.210019
400 0.338555
405 0.512397
410 0.941239
415 29.7309
420 523.605
425 830.956
430 215.922
435 26.4747
440 4.51007
445 1.90524
450 1.88074
455 1.93343
460 1.47649
465 1.7118
470 1.58734
475 1.93074
480 3.11195
485 4.52152
490 3.57522
495 2.9134
500 2.83366
505 2.32418
510 2.13539
515 1.97305
520 1.82877
525 1.54717
530 1.5761
535 1.41327
540 1.26787
545 1.31876
550 1.21867
555 1.08478
560 0.840915
565 0.704448
570 0.651821
575 0.477612
580 0.451044
585 0.366422
590 0.318786
595 0.29922
600 0.251871
Ex : 433
200 0.0829053
205 0.0655755
210 0.0913581
215 0.0806767
220 0.110062
225 0.0920099
230 0.0760752
235 0.108994
240 0.103796
245 0.116543
250 0.100963
255 0.085962
260 0.0620337
265 0.0774619
270 0.0870681
275 0.115653
280 0.103177
285 0.0727752
290 0.0640775
295 0.117764
300 0.0965429
305 0.0548272
310 0.0660848
315 0.0716011
320 0.0570576
325 0.0527016
330 0.101995
335 0.0963241
340 0.0926069
345 0.119709
350 0.107604
355 0.0959706
360 0.105769
365 0.16521
370 0.162894
375 0.145862
380 0.138431
385 0.150989
390 0.158775
395 0.167813
400 0.288839
405 0.383107
410 0.651435
415 0.999392
420 33.179
425 554.734
430 841.142
435 210.757
440 25.7562
445 4.35384
450 1.70713
455 1.61002
460 1.80156
465 1.57688
470 1.53102
475 1.58995
480 1.88822
485 2.67203
490 4.09873
495 3.71132
500 2.98107
505 2.6303
510 2.14495
515 1.74745
520 1.6806
525 1.54478
530 1.42282
535 1.42636
540 1.22982
545 1.15596
550 1.10289
555 1.08504
560 0.830657
565 0.788723
570 0.568204
575 0.489088
580 0.400419
585 0.369133
590 0.345784
595 0.211851
600 0.182786
Ex : 438
200 0.0828101
205 0.0780631
210 0.081756
215 0.139636
220 0.0997325
225 0.0535155
230 0.0507183
235 0.0977134
240 0.0936193
245 0.110002
250 0.0917683
255 0.0677314
260 0.0869213
265 0.111057
270 0.0554684
275 0.068662
280 0.106925
285 0.0532875
290 0.0928132
295 0.107385
300 0.0495739
305 0.0654799
310 0.0631754
315 0.117691
320 0.0866958
325 0.114776
330 0.0815994
335 0.0720208
340 0.130626
345 0.114649
350 0.0647829
355 0.0706723
360 0.0881299
365 0.12571
370 0.149098
375 0.0835188
380 0.102916
385 0.155929
390 0.201126
395 0.207602
400 0.261252
405 0.248641
410 0.402343
415 0.560645
420 0.919264
425 30.7494
430 542.083
435 874.993
440 219.156
445 26.7773
450 4.56176
455 1.66494
460 1.68941
465 1.74173
470 1.59165
475 1.48411
480 1.38867
485 1.5402
490 2.15466
495 3.73243
500 3.85077
505 2.76851
510 2.42418
515 2.09723
520 1.69507
525 1.54093
530 1.37443
535 1.32486
540 1.3125
545 1.09043
550 0.936681
555 1.03716
560 0.797985
565 0.761913
570 0.609289
575 0.51714
580 0.470066
585 0.329525
590 0.297818
595 0.24405
600 0.153953
Ex : 443
200 0.109494
205 0.0793553
210 0.116531
215 0.114306
220 0.0814681
225 0.0484865
230 0.0627731
235 0.0904439
240 0.0940229
245 0.0689573
250 0.0496646
255 0.0876718
260 0.102161
265 0.0753382
270 0.052698
275 0.0752938
280 0.0760789
285 0.0811386
290 0.0890393
295 0.0829061
300 0.0912565
305 0.0509991
310 0.123688
315 0.063134
320 0.0602953
325 0.111213
330 0.0789848
335 0.0943147
340 0.152749
345 0.0773584
350 0.129064
355 0.12596
360 0.145481
365 0.0972816
370 0.12189
375 0.123207
380 0.139896
385 0.116393
390 0.106947
395 0.202742
400 0.180259
405 0.200579
410 0.269677
415 0.336477
420 0.526849
425 0.91651
430 33.8463
435 578.298
440 890.86
445 221.425
450 27.1533
455 4.51635
460 1.71076
465 1.70448
470 1.85477
475 1.5686
480 1.4486
485 1.41546
490 1.49728
495 1.76672
500 2.93602
505 3.84471
510 2.86109
515 2.24949
520 1.98742
525 1.64606
530 1.46485
535 1.35611
540 1.23056
545 1.03014
550 0.963838
555 0.921606
560 0.710197
565 0.809515
570 0.691503
575 0.49248
580 0.410938
585 0.377458
590 0.29913
595 0.252822
600 0.0886488
Ex : 448
200 0.177084
205 0.144923
210 0.0924092
215 0.0937087
220 0.065004
225 0.0646084
230 0.0808964
235 0.101251
240 0.113582
245 0.0570118
250 0.0776904
255 0.0540626
260 0.125419
265 0.0536749
270 0.111647
275 0.10804
280 0.0925352
285 0.102953
290 0.0744419
295 0.0992287
300 0.119273
305 0.0567365
310 0.0841251
315 0.118862
320 0.118175
325 0.0843413
330 0.067251
335 0.107423
340 0.0718815
345 0.0856477
350 0.129764
355 0.211939
360 0.0937355
365 0.092468
370 0.107623
375 0.106506
380 0.127434
385 0.14972
390 0.116838
395 0.143111
400 0.195216
405 0.20372
410 0.18592
415 0.269602
420 0.400785
425 0.537691
430 0.949904
435 34.2054
440 605.055
445 919.629
450 227.922
455 27.7642
460 4.54365
465 1.84951
470 1.52266
475 1.80775
480 1.71497
485 1.4778
490 1.20506
495 1.37567
500 1.40622
505 2.42399
510 3.48005
515 2.85908
520 2.05939
525 1.72809
530 1.60585
535 1.31762
540 1.14253
545 1.10716
550 0.929427
555 0.90226
560 0.888856
565 0.788496
570 0.575953
575 0.495194
580 0.409539
585 0.378993
590 0.356779
595 0.276549
600 0.239639
Ex : 453
200 0.0905405
205 0.0530554
210 0.0635605
215 0.120808
220 0.0877209
225 0.0676123
230 0.100654
235 0.0844236
240 0.068297
245 0.0877004
250 0.0968837
255 0.100193
260 0.0693129
265 0.055105
270 0.066341
275 0.0574791
280 0.0441106
285 0.0868303
290 0.109176
295 0.0722024
300 0.068542
305 0.114818
310 0.10731
315 0.0883523
320 0.102918
325 0.0932333
330 0.106649
335 0.0964373
340 0.106349
345 0.128471
350 0.0789159
355 0.130353
360 0.0760874
365 0.0927926
370 0.0992672
375 0.0946736
380 0.106938
385 0.151941
390 0.179853
395 0.132293
400 0.126972
405 0.204067
410 0.193695
415 0.208441
420 0.289251
425 0.345435
430 0.463266
435 1.0218
440 36.2171
445 655.456
450 957.45
455 224.511
460 27.6064
465 4.58085
470 1.74484
475 1.39346
480 1.59725
485 1.4914
490 1.31363
495 1.16383
500 1.1882
505 1.25558
510 1.84413
515 3.06911
520 3.2329
525 2.05628
530 1.84219
535 1.60411
540 1.17276
545 1.06887
550 0.94458
555 0.856971
560 0.776665
565 0.723129
570 0.679791
575 0.552642
580 0.432872
585 0.391211
590 0.308877
595 0.258629
600 0.180871
Ex : 458
200 0.121611
205 0.122301
210 0.117604
215 0.0679546
220 0.0820526
225 0.0809581
230 0.110841
235 0.0822742
240 0.0644377
245 0.149173
250 0.0605203
255 0.0698896
260 0.0606853
265 0.061252
270 0.0955072
275 0.0582366
280 0.107674
285 0.0835138
290 0.0729524
295 0.0815664
300 0.10185
305 0.155265
310 0.0871843
315 0.0816123
320 0.0890615
325 0.121049
330 0.131395
335 0.115191
340 0.143936
345 0.0893185
350 0.109719
355 0.0772298
360 0.076382
365 0.142389
370 0.124008
375 0.143911
380 0.0817374
385 0.0951658
390 0.0806692
395 0.077146
400 0.119321
405 0.169473
410 0.136238
415 0.147621
420 0.205036
425 0.246014
430 0.378038
435 0.570217
440 1.08756
445 40.7661
450 672.026
455 1011.81
460 246.1
465 30.1616
470 4.9957
475 1.87002
480 1.51983
485 1.65287
490 1.59185
495 1.354
500 1.20795
505 1.13757
510 1.08775
515 1.45229
520 2.38464
525 3.18595
530 2.23699
535 1.70128
540 1.58866
545 1.26852
550 0.901371
555 0.91223
560 0.841211
565 0.804244
570 0.60756
575 0.516593
580 0.426625
585 0.305838
590 0.336775
595 0.294065
600 0.353882
Ex : 463
200 0.0554261
205 0.067888
210 0.0708819
215 0.0779919
220 0.0387859
225 0.0713044
230 0.077441
235 0.123404
240 0.0526047
245 0.0988067
250 0.052349
255 0.0479874
260 0.085051
265 0.136344
270 0.0899516
275 0.137912
280 0.0694071
285 0.0774971
290 0.10373
295 0.0963898
300 0.109587
305 0.11592
310 0.114687
315 0.0837899
320 0.100376
325 0.0764601
330 0.139901
335 0.116726
340 0.104216
345 0.099299
350 0.0761108
355 0.093547
360 0.0774832
365 0.141994
370 0.115967
375 0.154204
380 0.0986806
385 0.107294
390 0.149131
395 0.11906
400 0.13203
405 0.178545
410 0.175298
415 0.173863
420 0.233824
425 0.194043
430 0.315555
435 0.396829
440 0.597571
445 0.956437
450 39.6025
455 696.563
460 1076.84
465 261.886
470 31.8425
475 5.19256
480 1.85941
485 1.48261
490 1.62086
495 1.60853
500 1.34822
505 1.09887
510 1.07969
515 1.17936
520 1.24474
525 1.963
530 2.90451
535 2.34758
540 1.65711
545 1.43846
550 1.2137
555 1.00276
560 0.857605
565 0.689868
570 0.719012
575 0.557888
580 0.490681
585 0.411049
590 0.302365
595 0.279189
600 0.0317706
Ex : 468
200 0.0802906
205 0.100003
210 0.0667386
215 0.0667922
220 0.0836921
225 0.0970422
230 0.118909
235 0.122355
240 0.121846
245 0.0995579
250 0.0652236
255 0.109923
260 0.0709786
265 0.0816039
270 0.0985575
275 0.083713
280 0.0778963
285 0.0733564
290 0.0951576
295 0.123345
300 0.0598503
305 0.0702024
310 0.113371
315 0.0665982
320 0.0847869
325 0.130717
330 0.0691407
335 0.0997556
340 0.0718409
345 0.0716667
350 0.0613218
355 0.0614808
360 0.0670897
365 0.0905505
370 0.0933859
375 0.0809357
380 0.10464
385 0.121212
390 0.110057
395 0.111733
400 0.101051
405 0.113602
410 0.141472
415 0.131976
420 0.161888
425 0.206666
430 0.215481
435 0.260935
440 0.341444
445 0.642934
450 1.00085
455 43.4986
460 716.641
465 1127.06
470 271.296
475 32.866
480 5.26081
485 1.82763
490 1.30036
495 1.56534
500 1.41886
505 1.18032
510 1.01185
515 1.06783
520 1.1271
525 1.22051
530 1.55516
535 2.69491
540 2.57941
545 1.78132
550 1.37121
555 1.26567
560 1.07381
565 0.732286
570 0.553889
575 0.565133
580 0.481146
585 0.391513
590 0.404649
595 0.308324
600 0.38595
Ex : 473
200 0.12623
205 0.107643
210 0.0732761
215 0.0636953
220 0.0870632
225 0.051455
230 0.044589
235 0.124712
240 0.0433965
245 0.0626063
250 0.0863553
255 0.0985766
260 0.103532
265 0.118256
270 0.0895955
275 0.0857758
280 0.0488754
285 0.0640586
290 0.058751
295 0.0904412
300 0.102616
305 0.0749556
310 0.110338
315 0.0909161
320 0.113596
325 0.088431
330 0.0976606
335 0.0905338
340 0.114934
345 0.0722084
350 0.0854011
355 0.0736323
360 0.0953559
365 0.0725252
370 0.0877501
375 0.0834198
380 0.112198
385 0.121504
390 0.124157
395 0.155275
400 0.105544
405 0.139297
410 0.128231
415 0.123771
420 0.132077
425 0.199486
430 0.248006
435 0.239326
440 0.236895
445 0.368354
450 0.677149
455 1.01284
460 50.1419
465 793.604
470 1123.75
475 261.923
480 31.8401
485 5.07077
490 1.7479
495 1.16122
500 1.36588
505 1.41636
510 1.1652
515 0.999703
520 0.955403
525 1.10699
530 1.18623
535 1.26801
540 2.08866
545 2.6844
550 1.8097
555 1.44393
560 1.10337
565 0.993871
570 0.719254
575 0.597052
580 0.497723
585 0.389628
590 0.345537
595 0.436464
600 0.378462
Ex : 478
200 0.0451128
205 0.0888548
210 0.0874411
215 0.110077
220 0.102129
225 0.0579111
230 0.141937
235 0.103121
240 0.133926
245 0.112242
250 0.104883
255 0.0557269
260 0.109966
265 0.0763609
270 0.10197
275 0.0786929
280 0.107902
285 0.111381
290 0.127287
295 0.063279
300 0.110987
305 0.105723
310 0.122956
315 0.101331
320 0.126402
325 0.145976
330 0.164325
335 0.152554
340 0.12891
345 0.0820251
350 0.105479
355 0.10371
360 0.125958
365 0.0910831
370 0.0936503
375 0.105857
380 0.0865069
385 0.113453
390 0.136825
395 0.152815
400 0.153054
405 0.129303
410 0.171182
415 0.167667
420 0.184204
425 0.152604
430 0.14754
435 0.20121
440 0.190822
445 0.263501
450 0.371805
455 0.714099
460 1.46409
465 55.6571
470 823.43
475 1156.83
480 280.445
485 33.9176
490 5.39616
495 1.62919
500 1.16766
505 1.31423
510 1.35289
515 1.20186
520 1.21779
525 1.07799
530 1.07713
535 1.15415
540 1.12046
545 1.51335
550 2.29352
555 2.08369
560 1.18448
565 1.01073
570 0.853185
575 0.610186
580 0.542713
585 0.442864
590 0.334853
595 0.344172
600 0.582121
Ex : 483
200 0.0640325
205 0.0625492
210 0.120264
215 0.10224
220 0.114213
225 0.128201
230 0.101244
235 0.0563633
240 0.0850193
245 0.105622
250 0.0978505
255 0.0574193
260 0.098246
265 0.0617824
270 0.0891849
275 0.0794032
280 0.0734077
285 0.117014
290 0.0861626
295 0.0633607
300 0.103678
305 0.0498977
310 0.0846125
315 0.136335
320 0.114072
325 0.102568
330 0.126319
335 0.110536
340 0.0900131
345 0.0863904
350 0.130351
355 0.128394
360 0.135228
365 0.0855681
370 0.0642934
375 0.0929566
380 0.111263
385 0.150609
390 0.127942
395 0.119202
400 0.147173
405 0.159636
410 0.147299
415 0.188889
420 0.14462
425 0.1307
430 0.243316
435 0.191806
440 0.185802
445 0.185412
450 0.322515
455 0.42794
460 0.792054
465 1.42257
470 44.8745
475 809.894
480 1243.73
485 297.007
490 35.6704
495 5.37141
500 1.72065
505 1.07317
510 1.22842
515 1.41942
520 1.2762
525 1.09056
530 0.959658
535 0.976999
540 0.929533
545 0.935416
550 1.27842
555 1.83728
560 2.13026
565 1.27553
570 0.85521
575 0.846129
580 0.682922
585 0.494524
590 0.458367
595 0.316929
600 0.407106
Ex : 488
200 0.0827157
205 0.0793054
210 0.123628
215 0.144252
220 0.0959076
225 0.107347
230 0.09227
235 0.0892247
240 0.100524
245 0.0823943
250 0.0983639
255 0.165825
260 0.130687
265 0.132053
270 0.103835
275 0.0738152
280 0.0523156
285 0.0882751
290 0.132868
295 0.125997
300 0.0937203
305 0.131474
310 0.0744325
315 0.0880776
320 0.086555
325 0.120421
330 0.113783
335 0.0880875
340 0.0745094
345 0.0873232
350 0.0950874
355 0.148904
360 0.0964138
365 0.117991
370 0.166291
375 0.153691
380 0.131486
385 0.126514
390 0.142155
395 0.152113
400 0.106853
405 0.125171
410 0.143261
415 0.203518
420 0.114571
425 0.167711
430 0.129912
435 0.235064
440 0.185776
445 0.248475
450 0.302388
455 0.325591
460 0.48847
465 0.836881
470 1.40636
475 54.5354
480 885.535
485 1242.95
490 291.347
495 35.0948
500 5.34773
505 1.80938
510 1.13178
515 1.23757
520 1.2471
525 1.21956
530 1.23933
535 1.01627
540 0.930589
545 1.05642
550 0.914383
555 0.984365
560 1.37643
565 2.00439
570 1.38598
575 0.646722
580 0.596336
585 0.583995
590 0.361091
595 0.406413
600 0.409558
Ex : 493
200 0.109199
205 0.0870744
210 0.104607
215 0.129333
220 0.077747
225 0.155632
230 0.105989
235 0.0983661
240 0.129214
245 0.0968424
250 0.106937
255 0.127845
260 0.0830034
265 0.0856841
270 0.106972
275 0.134954
280 0.106267
285 0.107689
290 0.0996824
295 0.109597
300 0.23097
305 0.0762799
310 0.106736
315 0.150095
320 0.119652
325 0.122988
330 0.183275
335 0.167134
340 0.116549
345 0.10303
350 0.108466
355 0.153965
360 0.120553
365 0.112007
370 0.0866632
375 0.149198
380 0.164558
385 0.12262
390 0.133805
395 0.147211
400 0.122734
405 0.140176
410 0.173406
415 0.144372
420 0.141791
425 0.199627
430 0.17016
435 0.182004
440 0.240214
445 0.17194
450 0.269857
455 0.260949
460 0.378679
465 0.492589
470 0.75329
475 1.36992
480 50.6611
485 882.52
490 1329.05
495 305.444
500 36.6356
505 5.45035
510 1.69329
515 1.18407
520 1.06106
525 1.43668
530 1.25017
535 1.15733
540 1.03793
545 0.779967
550 0.7905
555 0.834345
560 0.766339
565 1.17275
570 1.64714
575 1.46099
580 0.685395
585 0.611272
590 0.452054
595 0.417291
600 0.571152
Ex : 498
200 0.10878
205 0.134644
210 0.0829372
215 0.101234
220 0.136519
225 0.0895419
230 0.0787471
235 0.10624
240 0.108503
245 0.118543
250 0.125144
255 0.136124
260 0.192927
265 0.167273
270 0.158906
275 0.0835396
280 0.115343
285 0.109282
290 0.139508
295 0.149644
300 0.104469
305 0.168877
310 0.153324
315 0.123593
320 0.122864
325 0.149718
330 0.174803
335 0.120516
340 0.0617396
345 0.117612
350 0.12753
355 0.145188
360 0.102658
365 0.153287
370 0.124591
375 0.126101
380 0.160503
385 0.149815
390 0.207456
395 0.111393
400 0.0874431
405 0.133862
410 0.141416
415 0.188943
420 0.177638
425 0.258561
430 0.177259
435 0.198606
440 0.205873
445 0.153478
450 0.233888
455 0.196329
460 0.260082
465 0.468697
470 0.692747
475 0.855108
480 1.47496
485 62.057
490 945.894
495 1309.04
500 301.812
505 36.3421
510 5.37841
515 1.74126
520 1.22671
525 1.13719
530 1.21975
535 1.21397
540 1.20157
545 0.982838
550 0.825192
555 0.776591
560 0.721579
565 0.734459
570 0.776358
575 1.07711
580 1.1145
585 0.789412
590 0.516211
595 0.514277
600 0.680355
Ex : 503
200 0.154705
205 0.124886
210 0.124775
215 0.108356
220 0.134633
225 0.0724317
230 0.162299
235 0.109931
240 0.0680147
245 0.0946262
250 0.123015
255 0.124011
260 0.159907
265 0.156731
270 0.155096
275 0.124163
280 0.152657
285 0.103155
290 0.0699303
295 0.136927
300 0.107326
305 0.0945894
310 0.115854
315 0.110314
320 0.145927
325 0.109054
330 0.13474
335 0.147411
340 0.0996232
345 0.119619
350 0.0769259
355 0.0835767
360 0.137931
365 0.102773
370 0.0957585
375 0.161228
380 0.0984247
385 0.124727
390 0.0871838
395 0.145467
400 0.102312
405 0.140965
410 0.160105
415 0.161694
420 0.187017
425 0.161075
430 0.117784
435 0.182021
440 0.227181
445 0.213268
450 0.207618
455 0.246685
460 0.28782
465 0.329562
470 0.398912
475 0.535736
480 0.845453
485 1.53418
490 56.8818
495 958.116
500 1364.68
505 313.162
510 37.6678
515 5.69659
520 1.83095
525 1.15334
530 1.11245
535 1.19047
540 1.15453
545 1.11621
550 0.811207
555 0.655558
560 0.741247
565 0.642869
570 0.605593
575 0.639963
580 0.776761
585 0.961986
590 0.78894
595 0.562961
600 0.895125
Ex : 508
200 0.122883
205 0.0760247
210 0.139808
215 0.0938784
220 0.156435
225 0.20711
230 0.174637
235 0.136265
240 0.103932
245 0.172184
250 0.110704
255 0.149745
260 0.117239
265 0.159322
270 0.147291
275 0.123767
280 0.118904
285 0.0933445
290 0.0930031
295 0.126633
300 0.147113
305 0.142385
310 0.0964393
315 0.131227
320 0.154234
325 0.156336
330 0.158932
335 0.119253
340 0.103746
345 0.147508
350 0.0686872
355 0.169183
360 0.202995
365 0.124549
370 0.148251
375 0.198333
380 0.149778
385 0.127236
390 0.190316
395 0.0949882
400 0.167158
405 0.185569
410 0.171403
415 0.135873
420 0.149603
425 0.14475
430 0.162783
435 0.165741
440 0.21763
445 0.237683
450 0.246662
455 0.254578
460 0.336468
465 0.312322
470 0.343202
475 0.475513
480 0.640591
485 0.81739
490 1.42705
495 62.4227
500 961.249
505 1362.24
510 328.946
515 39.7863
520 5.89923
525 1.97544
530 1.23997
535 1.01483
540 1.15659
545 1.11705
550 0.919522
555 0.898418
560 0.706982
565 0.676585
570 0.650823
575 0.607662
580 0.581442
585 0.513842
590 0.729232
595 0.771328
600 0.571158
Ex : 513
200 0.133541
205 0.0749584
210 0.07506
215 0.100956
220 0.119277
225 0.0818498
230 0.116005
235 0.122377
240 0.133988
245 0.146721
250 0.151273
255 0.115925
260 0.201784
265 0.0839391
270 0.124077
275 0.117049
280 0.1671
285 0.126404
290 0.113414
295 0.138941
300 0.147409
305 0.18396
310 0.136417
315 0.14648
320 0.112287
325 0.166551
330 0.172544
335 0.113295
340 0.192484
345 0.13815
350 0.123731
355 0.137153
360 0.0926556
365 0.185883
370 0.186941
375 0.125064
380 0.152596
385 0.110812
390 0.137182
395 0.162363
400 0.0983458
405 0.153587
410 0.176128
415 0.135608
420 0.138485
425 0.155623
430 0.201314
435 0.122592
440 0.185487
445 0.222681
450 0.239946
455 0.194079
460 0.26503
465 0.253629
470 0.273972
475 0.33867
480 0.445951
485 0.654787
490 0.823702
495 1.52726
500 58.0569
505 957.99
510 1408.99
515 344.674
520 41.5871
525 6.21767
530 1.93271
535 1.3685
540 1.03973
545 1.12676
550 0.993542
555 0.871155
560 0.779903
565 0.751158
570 0.652784
575 0.503514
580 0.483728
585 0.397987
590 0.54358
595 0.664741
600 1.15648
Ex : 518
200 0.0795951
205 0.125054
210 0.117038
215 0.0647814
220 0.147106
225 0.160861
230 0.138926
235 0.0910923
240 0.0758595
245 0.127173
250 0.131431
255 0.128591
260 0.131673
265 0.0694365
270 0.143839
275 0.108225
280 0.120864
285 0.103409
290 0.108882
295 0.0833602
300 0.173624
305 0.110881
310 0.0858188
315 0.134887
320 0.0850763
325 0.119182
330 0.160577
335 0.113194
340 0.112237
345 0.153548
350 0.0949282
355 0.149639
360 0.218835
365 0.126078
370 0.150874
375 0.14096
380 0.12688
385 0.135829
390 0.156657
395 0.236164
400 0.171076
405 0.163385
410 0.170607
415 0.152004
420 0.139614
425 0.155528
430 0.157756
435 0.112225
440 0.207522
445 0.19809
450 0.21171
455 0.201394
460 0.180609
465 0.290793
470 0.164434
475 0.270792
480 0.439102
485 0.435684
490 0.629841
495 0.823132
500 1.49151
505 57.2599
510 924.397
515 1387.91
520 341.637
525 40.9644
530 5.95179
535 1.89526
540 1.18918
545 0.998828
550 0.843227
555 0.951085
560 0.847981
565 0.638991
570 0.566796
575 0.55603
580 0.579598
585 0.507264
590 0.501696
595 0.420555
600 0.192718
Ex : 523
200 0.0909953
205 0.0859268
210 0.112259
215 0.158859
220 0.151452
225 0.11562
230 0.130297
235 0.117498
240 0.0887204
245 0.133113
250 0.109488
255 0.182248
260 0.11829
265 0.128007
270 0.162935
275 0.0957037
280 0.103274
285 0.113048
290 0.145997
295 0.103939
300 0.105274
305 0.117072
310 0.10964
315 0.110088
320 0.118999
325 0.138299
330 0.127485
335 0.147375
340 0.206566
345 0.11698
350 0.0868282
355 0.138906
360 0.217409
365 0.121431
370 0.0923481
375 0.172311
380 0.197713
385 0.16829
390 0.192276
395 0.161757
400 0.124752
405 0.136551
410 0.172509
415 0.167455
420 0.202908
425 0.142541
430 0.169737
435 0.131866
440 0.139541
445 0.217237
450 0.266279
455 0.175917
460 0.171398
465 0.27935
470 0.334079
475 0.252083
480 0.303867
485 0.30386
490 0.44115
495 0.594846
500 0.850274
505 1.39245
510 52.6737
515 899.066
520 1383
525 354.465
530 42.7226
535 6.25555
540 1.75976
545 1.046
550 0.808908
555 0.762498
560 0.760415
565 0.711736
570 0.563532
575 0.628639
580 0.448819
585 0.413497
590 0.482853
595 0.302733
600 0.0917666
Ex : 528
200 0.107365
205 0.140585
210 0.126286
215 0.0913801
220 0.222749
225 0.179051
230 0.148269
235 0.123843
240 0.121298
245 0.111256
250 0.10127
255 0.138171
260 0.245709
265 0.118087
270 0.105979
275 0.113235
280 0.0891533
285 0.0888153
290 0.113283
295 0.126898
300 0.098108
305 0.0983676
310 0.14637
315 0.0958532
320 0.145099
325 0.105045
330 0.173082
335 0.178906
340 0.20286
345 0.154262
350 0.203294
355 0.126697
360 0.09281
365 0.136449
370 0.165444
375 0.156784
380 0.140227
385 0.133273
390 0.105108
395 0.165301
400 0.199607
405 0.188172
410 0.138373
415 0.147519
420 0.213468
425 0.136542
430 0.196944
435 0.125537
440 0.101256
445 0.24772
450 0.176305
455 0.207594
460 0.21743
465 0.219228
470 0.241862
475 0.174324
480 0.277392
485 0.326858
490 0.435965
495 0.492119
500 0.507504
505 0.780901
510 1.52201
515 50.6406
520 894.618
525 1391.4
530 350.928
535 42.0297
540 5.86828
545 1.65036
550 0.927878
555 0.783242
560 0.651583
565 0.83078
570 0.756109
575 0.582303
580 0.631802
585 0.470851
590 0.367499
595 0.424413
600 0.148794
Ex : 533
200 0.121775
205 0.120421
210 0.191864
215 0.118109
220 0.112912
225 0.186118
230 0.141339
235 0.0897764
240 0.0884929
245 0.175444
250 0.0918162
255 0.128356
260 0.245497
265 0.183548
270 0.168791
275 0.0904296
280 0.194846
285 0.152164
290 0.159525
295 0.128999
300 0.112676
305 0.139184
310 0.137345
315 0.126727
320 0.164015
325 0.157134
330 0.144643
335 0.187194
340 0.148334
345 0.142041
350 0.18804
355 0.15698
360 0.182846
365 0.141511
370 0.0928779
375 0.148625
380 0.150707
385 0.131
390 0.236486
395 0.14818
400 0.174693
405 0.139007
410 0.135819
415 0.113711
420 0.178943
425 0.190185
430 0.233218
435 0.194601
440 0.184135
445 0.135919
450 0.192126
455 0.185253
460 0.244916
465 0.226946
470 0.230824
475 0.129855
480 0.288772
485 0.284129
490 0.303855
495 0.331391
500 0.367743
505 0.454181
510 0.787466
515 1.48956
520 50.2089
525 874.108
530 1379.3
535 358.164
540 42.8988
545 6.0325
550 1.619
555 0.958356
560 0.708124
565 0.711957
570 0.550342
575 0.450013
580 0.615838
585 0.508244
590 0.3817
595 0.308406
600 0.271726
Ex : 538
200 0.114499
205 0.094817
210 0.107857
215 0.099568
220 0.119575
225 0.162037
230 0.156923
235 0.180351
240 0.134169
245 0.200718
250 0.125441
255 0.111667
260 0.127409
265 0.13092
270 0.172346
275 0.150103
280 0.145829
285 0.136582
290 0.0969463
295 0.114457
300 0.161433
305 0.138877
310 0.162155
315 0.175458
320 0.123753
325 0.127401
330 0.147504
335 0.190818
340 0.147408
345 0.198046
350 0.125145
355 0.148588
360 0.11841
365 0.13409
370 0.24567
375 0.142405
380 0.214276
385 0.122967
390 0.158595
395 0.11918
400 0.105791
405 0.0862533
410 0.148979
415 0.147777
420 0.108354
425 0.224812
430 0.160329
435 0.149479
440 0.169501
445 0.213286
450 0.292902
455 0.257525
460 0.111151
465 0.297866
470 0.190632
475 0.144239
480 0.243648
485 0.294335
490 0.228193
495 0.244007
500 0.342877
505 0.372683
510 0.539473
515 0.848754
520 1.29945
525 43.3776
530 831.165
535 1358.17
540 365.746
545 43.7231
550 6.15472
555 1.63797
560 0.92957
565 0.612957
570 0.646627
575 0.523934
580 0.409536
585 0.432272
590 0.391889
595 0.346504
600 1.59267
Ex : 543
200 0.185733
205 0.132251
210 0.145121
215 0.223174
220 0.122576
225 0.159542
230 0.122743
235 0.12096
240 0.0919245
245 0.112285
250 0.108535
255 0.112808
260 0.146452
265 0.197757
270 0.131072
275 0.113868
280 0.152242
285 0.220383
290 0.138209
295 0.145572
300 0.154133
305 0.124293
310 0.131721
315 0.121665
320 0.11595
325 0.18082
330 0.122537
335 0.215015
340 0.0852638
345 0.0834846
350 0.283723
355 0.195519
360 0.159323
365 0.178817
370 0.130465
375 0.137231
380 0.12734
385 0.090095
390 0.218979
395 0.220667
400 0.127292
405 0.158252
410 0.130822
415 0.153115
420 0.141312
425 0.185817
430 0.217099
435 0.128971
440 0.135194
445 0.160264
450 0.18281
455 0.230923
460 0.186539
465 0.267152
470 0.208706
475 0.218469
480 0.190276
485 0.28237
490 0.214036
495 0.320861
500 0.221468
505 0.369647
510 0.555005
515 0.643867
520 0.7278
525 1.35907
530 39.8488
535 804.651
540 1380.69
545 379.33
550 45.4764
555 6.08328
560 1.37603
565 0.78044
570 0.505591
575 0.373408
580 0.437214
585 0.478833
590 0.366264
595 0.377793
600 0.135507
Ex : 548
200 0.166644
205 0.132161
210 0.16511
215 0.190123
220 0.151377
225 0.159765
230 0.190406
235 0.188287
240 0.157878
245 0.152997
250 0.177218
255 0.153681
260 0.182575
265 0.174549
270 0.131357
275 0.103665
280 0.154877
285 0.138548
290 0.138262
295 0.112402
300 0.0986586
305 0.185806
310 0.204375
315 0.174106
320 0.112336
325 0.175745
330 0.117612
335 0.136373
340 0.182647
345 0.299911
350 0.146331
355 0.161392
360 0.137883
365 0.130436
370 0.18947
375 0.229601
380 0.171409
385 0.158914
390 0.191212
395 0.244949
400 0.24244
405 0.129063
410 0.124366
415 0.183602
420 0.173691
425 0.155193
430 0.181053
435 0.208233
440 0.177453
445 0.209379
450 0.257217
455 0.150529
460 0.220585
465 0.240629
470 0.213315
475 0.278414
480 0.220065
485 0.283509
490 0.255824
495 0.36829
500 0.330379
505 0.328355
510 0.252899
515 0.412389
520 0.612888
525 0.673293
530 1.19128
535 43.9228
540 800.076
545 1331.08
550 368.055
555 43.8075
560 5.89578
565 1.29027
570 0.713502
575 0.641042
580 0.43377
585 0.453967
590 0.496224
595 0.392735
600 0.333341
Ex : 553
200 0.188655
205 0.16594
210 0.181482
215 0.141549
220 0.0939019
225 0.114923
230 0.192514
235 0.15634
240 0.133776
245 0.111479
250 0.18627
255 0.16692
260 0.146094
265 0.0778417
270 0.125546
275 0.200777
280 0.224655
285 0.126031
290 0.104995
295 0.162228
300 0.102474
305 0.222555
310 0.153067
315 0.180188
320 0.127942
325 0.106628
330 0.0843048
335 0.163242
340 0.117377
345 0.225433
350 0.207781
355 0.158657
360 0.133341
365 0.107164
370 0.171398
375 0.177728
380 0.209061
385 0.202232
390 0.23236
395 0.169616
400 0.181631
405 0.159115
410 0.279634
415 0.222834
420 0.159767
425 0.189466
430 0.235797
435 0.180847
440 0.190276
445 0.132428
450 0.206857
455 0.222501
460 0.254215
465 0.214137
470 0.201034
475 0.257939
480 0.209396
485 0.28341
490 0.221133
495 0.272497
500 0.256654
505 0.402857
510 0.319156
515 0.390099
520 0.369454
525 0.429068
530 0.655481
535 1.15327
540 36.8186
545 761.107
550 1327.18
555 377.842
560 45.1491
565 5.92926
570 1.2058
575 0.629356
580 0.574777
585 0.421286
590 0.332124
595 0.488483
600 0.0868653
Ex : 558
200 0.0969425
205 0.162391
210 0.179619
215 0.176177
220 0.124239
225 0.153534
230 0.193849
235 0.0935503
240 0.158088
245 0.168242
250 0.272199
255 0.210499
260 0.133973
265 0.152338
270 0.104307
275 0.122967
280 0.182481
285 0.117882
290 0.184626
295 0.105072
300 0.140572
305 0.124641
310 0.179215
315 0.145063
320 0.216934
325 0.148051
330 0.168627
335 0.168612
340 0.152688
345 0.261872
350 0.278782
355 0.160067
360 0.109572
365 0.179859
370 0.232338
375 0.209356
380 0.136635
385 0.188139
390 0.200851
395 0.148679
400 0.0993597
405 0.151937
410 0.2039
415 0.253241
420 0.245282
425 0.254295
430 0.16164
435 0.193656
440 0.280889
445 0.173187
450 0.261166
455 0.180241
460 0.273212
465 0.337109
470 0.303126
475 0.25101
480 0.177449
485 0.205654
490 0.187481
495 0.266993
500 0.314515
505 0.259511
510 0.284417
515 0.261487
520 0.236524
525 0.40158
530 0.569831
535 0.659559
540 1.22589
545 34.2925
550 728.483
555 1309.56
560 372.658
565 44.5844
570 5.88994
575 1.17166
580 0.535565
585 0.386839
590 0.417614
595 0.322221
600 0.242007
Ex : 563
200 0.167016
205 0.0921456
210 0.196615
215 0.105797
220 0.122581
225 0.19484
230 0.153633
235 0.200744
240 0.12137
245 0.156571
250 0.206845
255 0.222901
260 0.128502
265 0.206126
270 0.148494
275 0.112715
280 0.154252
285 0.155715
290 0.169388
295 0.211761
300 0.132944
305 0.202739
310 0.179311
315 0.124436
320 0.165728
325 0.169912
330 0.15188
335 0.172342
340 0.157039
345 0.128546
350 0.150222
355 0.205057
360 0.190984
365 0.139814
370 0.247904
375 0.186731
380 0.203373
385 0.232471
390 0.183622
395 0.193028
400 0.220135
405 0.238504
410 0.165237
415 0.171634
420 0.21311
425 0.242029
430 0.233577
435 0.225426
440 0.149859
445 0.241727
450 0.181705
455 0.202186
460 0.188622
465 0.217388
470 0.26695
475 0.226691
480 0.223516
485 0.25529
490 0.194989
495 0.220777
500 0.217673
505 0.199342
510 0.23979
515 0.339894
520 0.263387
525 0.283002
530 0.411816
535 0.519762
540 0.809349
545 1.11569
550 34.8625
555 699.403
560 1239.72
565 356.741
570 42.5812
575 5.56696
580 1.1836
585 0.506948
590 0.335109
595 0.340082
600 0.607208
Ex : 568
200 0.282984
205 0.179217
210 0.132096
215 0.160221
220 0.181348
225 0.208523
230 0.191232
235 0.150816
240 0.234689
245 0.155307
250 0.14617
255 0.127133
260 0.0891675
265 0.20201
270 0.186513
275 0.136549
280 0.264505
285 0.217067
290 0.14471
295 0.235657
300 0.191836
305 0.202247
310 0.169255
315 0.17821
320 0.118534
325 0.220673
330 0.151536
335 0.206831
340 0.20854
345 0.143485
350 0.281024
355 0.252056
360 0.171096
365 0.153922
370 0.173655
375 0.216238
380 0.186635
385 0.218508
390 0.224316
395 0.158075
400 0.207203
405 0.207736
410 0.161341
415 0.266111
420 0.2138
425 0.199184
430 0.146036
435 0.169322
440 0.218633
445 0.327602
450 0.317537
455 0.176595
460 0.15107
465 0.29957
470 0.255098
475 0.164632
480 0.166137
485 0.199646
490 0.244783
495 0.340809
500 0.218739
505 0.194966
510 0.242401
515 0.212193
520 0.196187
525 0.260977
530 0.335589
535 0.380617
540 0.605082
545 0.657061
550 1.14346
555 26.2191
560 641.489
565 1204.86
570 362.075
575 43.5998
580 5.61844
585 1.14719
590 0.501776
595 0.330916
600 0.079459
Ex : 573
200 0.201197
205 0.121597
210 0.217096
215 0.190525
220 0.151304
225 0.303843
230 0.185549
235 0.165311
240 0.14007
245 0.202286
250 0.17642
255 0.146353
260 0.145338
265 0.131762
270 0.156036
275 0.0962377
280 0.221453
285 0.137214
290 0.191247
295 0.167902
300 0.153281
305 0.114276
310 0.25629
315 0.198214
320 0.178762
325 0.15099
330 0.165616
335 0.231405
340 0.175159
345 0.26967
350 0.256411
355 0.231449
360 0.0958442
365 0.138353
370 0.160026
375 0.16206
380 0.126001
385 0.113699
390 0.16187
395 0.232336
400 0.187134
405 0.197124
410 0.236494
415 0.133726
420 0.181434
425 0.236756
430 0.223798
435 0.200567
440 0.304156
445 0.31753
450 0.131381
455 0.119909
460 0.231436
465 0.21002
470 0.26884
475 0.368396
480 0.295506
485 0.263006
490 0.14189
495 0.194542
500 0.237074
505 0.230427
510 0.224361
515 0.187788
520 0.244793
525 0.164455
530 0.198204
535 0.331679
540 0.434092
545 0.544459
550 0.784732
555 0.917447
560 22.9252
565 549.549
570 1101.6
575 340.797
580 40.7648
585 5.28494
590 1.02638
595 0.404825
600 0.526819
Ex : 578
200 0.12722
205 0.20341
210 0.176851
215 0.165504
220 0.153169
225 0.105238
230 0.106025
235 0.20908
240 0.169386
245 0.0942843
250 0.216887
255 0.241338
260 0.222855
265 0.175438
270 0.191726
275 0.115026
280 0.113213
285 0.141624
290 0.157149
295 0.13424
300 0.164114
305 0.154925
310 0.205351
315 0.213486
320 0.235171
325 0.209446
330 0.190429
335 0.205575
340 0.200113
345 0.171149
350 0.206979
355 0.203005
360 0.155923
365 0.232962
370 0.155397
375 0.168146
380 0.185361
385 0.199291
390 0.22692
395 0.14257
400 0.174339
405 0.154425
410 0.250929
415 0.295358
420 0.269806
425 0.186116
430 0.179289
435 0.21192
440 0.153163
445 0.142371
450 0.215151
455 0.279051
460 0.439165
465 0.176991
470 0.248434
475 0.2135
480 0.317912
485 0.136477
490 0.220678
495 0.295966
500 0.2135
505 0.163963
510 0.174987
515 0.224612
520 0.206637
525 0.199597
530 0.199252
535 0.23621
540 0.297087
545 0.273023
550 0.358077
555 0.663439
560 0.937988
565 19.9764
570 499.31
575 972.468
580 294.313
585 35.1382
590 4.51985
595 0.82313
600 0.0936691
Ex : 583
200 0.227105
205 0.138278
210 0.105143
215 0.261812
220 0.171927
225 0.124254
230 0.204587
235 0.224759
240 0.207841
245 0.277067
250 0.154675
255 0.177921
260 0.159312
265 0.216604
270 0.141125
275 0.139622
280 0.17505
285 0.125129
290 0.131942
295 0.137562
300 0.182572
305 0.213397
310 0.137024
315 0.197774
320 0.179326
325 0.186887
330 0.176818
335 0.292192
340 0.132967
345 0.205555
350 0.192758
355 0.153993
360 0.130856
365 0.135085
370 0.262188
375 0.21466
380 0.233755
385 0.118839
390 0.165355
395 0.20971
400 0.165657
405 0.18202
410 0.175292
415 0.145096
420 0.140985
425 0.193969
430 0.222663
435 0.276252
440 0.12458
445 0.15111
450 0.203538
455 0.24434
460 0.161297
465 0.258548
470 0.220444
475 0.234192
480 0.249506
485 0.247778
490 0.247579
495 0.239715
500 0.230584
505 0.246672
510 0.302058
515 0.166587
520 0.255208
525 0.296808
530 0.260304
535 0.305359
540 0.208774
545 0.336878
550 0.388598
555 0.499783
560 0.529832
565 0.740153
570 16.5434
575 437.303
580 837.308
585 243.946
590 29.2148
595 3.81095
600 0.558489
Ex : 588
200 0.320725
205 0.188741
210 0.0883206
215 0.156806
220 0.11729
225 0.142415
230 0.111234
235 0.222975
240 0.162838
245 0.219659
250 0.197022
255 0.260747
260 0.176043
265 0.1075
270 0.149426
275 0.201367
280 0.176721
285 0.267667
290 0.197999
295 0.178486
300 0.159369
305 0.159439
310 0.134931
315 0.157141
320 0.212822
325 0.216031
330 0.212104
335 0.133911
340 0.266575
345 0.154742
350 0.175865
355 0.0955266
360 0.135893
365 0.267566
370 0.192414
375 0.233249
380 0.111964
385 0.185282
390 0.309501
395 0.21209
400 0.227888
405 0.203112
410 0.236111
415 0.195369
420 0.115291
425 0.154599
430 0.154099
435 0.200894
440 0.214833
445 0.186201
450 0.149285
455 0.200388
460 0.214403
465 0.221435
470 0.166642
475 0.134227
480 0.20208
485 0.178386
490 0.129425
495 0.190984
500 0.252897
505 0.283691
510 0.270882
515 0.24264
520 0.17893
525 0.208705
530 0.194769
535 0.246451
540 0.167826
545 0.223192
550 0.386799
555 0.30061
560 0.31654
565 0.407996
570 0.667584
575 14.2503
580 366.946
585 710.668
590 214.253
595 25.4337
600 3.41706
Ex : 593
200 0.144941
205 0.171668
210 0.151434
215 0.157438
220 0.282375
225 0.120802
230 0.181649
235 0.104156
240 0.252154
245 0.103878
250 0.306255
255 0.211256
260 0.114045
265 0.153852
270 0.16171
275 0.16543
280 0.220228
285 0.167458
290 0.150399
295 0.177908
300 0.23629
305 0.270546
310 0.173325
315 0.105573
320 0.137969
325 0.165852
330 0.155738
335 0.13881
340 0.207473
345 0.150187
350 0.233815
355 0.19892
360 0.280377
365 0.22045
370 0.148085
375 0.238764
380 0.245288
385 0.250149
390 0.157801
395 0.185414
400 0.194592
405 0.203402
410 0.127063
415 0.170715
420 0.223787
425 0.20675
430 0.243415
435 0.252344
440 0.307034
445 0.2239
450 0.159431
455 0.201333
460 0.203284
465 0.105593
470 0.255883
475 0.0817674
480 0.184022
485 0.150421
490 0.204144
495 0.23635
500 0.244167
505 0.234278
510 0.233693
515 0.210911
520 0.199863
525 0.244576
530 0.175775
535 0.217705
540 0.233992
545 0.316863
550 0.234332
555 0.284995
560 0.266732
565 0.473616
570 0.543725
575 0.718679
580 11.9974
585 324.778
590 601.498
595 184.241
600 26.1891
Ex : 598
200 0.149877
205 0.132361
210 0.179706
215 0.159373
220 0.150063
225 0.148366
230 0.143946
235 0.140561
240 0.142789
245 0.261337
250 0.12845
255 0.146758
260 0.079133
265 0.125392
270 0.150192
275 0.111796
280 0.152614
285 0.134266
290 0.171747
295 0.167358
300 0.0957321
305 0.223475
310 0.257314
315 0.152054
320 0.137275
325 0.180156
330 0.108747
335 0.236715
340 0.147195
345 0.229601
350 0.155218
355 0.132148
360 0.180431
365 0.19676
370 0.0775036
375 0.199443
380 0.180887
385 0.179392
390 0.324386
395 0.27827
400 0.244476
405 0.229781
410 0.152005
415 0.248547
420 0.360147
425 0.201667
430 0.19634
435 0.256946
440 0.189862
445 0.1697
450 0.22294
455 0.183872
460 0.152425
465 0.142182
470 0.163401
475 0.202875
480 0.199283
485 0.312223
490 0.252274
495 0.259308
500 0.359808
505 0.2037
510 0.248658
515 0.256935
520 0.208423
525 0.259116
530 0.330693
535 0.283461
540 0.242267
545 0.224578
550 0.267126
555 0.405272
560 0.15973
565 0.362286
570 0.405218
575 0.407907
580 0.450113
585 12.0841
590 293.272
595 532.789
600 367.436
Ex : 603
200 0.189279
205 0.127472
210 0.278128
215 0.118826
220 0.20331
225 0.136626
230 0.260784
235 0.254799
240 0.165171
245 0.398798
250 0.232767
255 0.133721
260 0.179582
265 0.251665
270 0.203348
275 0.154631
280 0.188606
285 0.109242
290 0.0986537
295 0.14701
300 0.0672791
305 0.168482
310 0.185948
315 0.143498
320 0.317937
325 0.263785
330 0.124081
335 0.132795
340 0.0906304
345 0.118211
350 0.237736
355 0.25696
360 0.245461
365 0.208371
370 0.165062
375 0.227837
380 0.159955
385 0.208882
390 0.258488
395 0.212495
400 0.170859
405 0.225272
410 0.187083
415 0.349201
420 0.236613
425 0.271347
430 0.197482
435 0.173073
440 0.276223
445 0.205088
450 0.149789
455 0.147817
460 0.273094
465 0.176287
470 0.13528
475 0.213437
480 0.304114
485 0.266144
490 0.173023
495 0.174902
500 0.192483
505 0.142917
510 0.155607
515 0.24014
520 0.195315
525 0.163563
530 0.303363
535 0.403113
540 0.193338
545 0.247269
550 0.204573
555 0.253232
560 0.331723
565 0.209465
570 0.244687
575 0.380748
580 0.304079
585 0.349663
590 10.7058
595 251.861
600 491.734
