File format V 1.0
ven. 6. janv. 12:08:51 2017
Operator : 
Comments : 

=============================================
SpectroFluorometer parameters
Mode : 3D measurement
Data : Fluorescence
Phospho. : Ordinary
Spectrum : Fluorescence

Scan speed : 2400 nm/mn
Response : 100 ms
PM Voltage : 700 V
Shutter : On

Lambda Ex. Start : 203
Lambda Ex. End : 603
Lambda Ex. Step : 5
Ex. Slit : 5 nm

Lambda Em. Start : 200
Lambda Em. End : 600
Lambda Em. Step : 5
Em. Slit : 5 nm

Repetition : 1
Decal lambda em : 10
=============================================
DATA
Ex : 203
200 11.8792
205 6.2924
210 6.9372
215 9.03761
220 6.80615
225 8.21092
230 10.6955
235 10.1144
240 8.17935
245 7.62603
250 9.86462
255 8.47443
260 10.2843
265 7.96601
270 9.26336
275 8.09006
280 8.27879
285 7.38396
290 12.4092
295 8.25223
300 7.23649
305 9.75503
310 9.41381
315 7.29268
320 7.79291
325 8.16347
330 9.96469
335 9.86552
340 8.80894
345 9.92899
350 14.0923
355 9.87351
360 11.7536
365 9.25487
370 9.44228
375 8.90973
380 9.07333
385 9.55533
390 6.7857
395 9.278
400 7.06426
405 7.98299
410 7.28563
415 8.23979
420 11.0296
425 13.152
430 9.42561
435 8.67881
440 15.0502
445 10.2358
450 8.09526
455 8.62991
460 8.78781
465 8.6446
470 7.16488
475 9.74098
480 8.58805
485 7.57813
490 11.8106
495 10.2147
500 7.88315
505 9.32478
510 8.47915
515 9.06851
520 8.90455
525 11.3538
530 10.5515
535 9.65409
540 10.634
545 10.41
550 10.051
555 9.91036
560 8.2352
565 11.5165
570 7.14958
575 9.49839
580 7.36001
585 5.96023
590 6.95589
595 9.51855
600 10.8314
Ex : 208
200 8.26728
205 6.61507
210 7.48614
215 12.2035
220 7.21476
225 7.87816
230 7.12176
235 4.42404
240 7.832
245 6.13964
250 9.69837
255 8.94021
260 9.15314
265 8.59789
270 8.42778
275 9.099
280 12.4597
285 8.48064
290 11.6298
295 8.98867
300 12.7739
305 8.2865
310 8.0956
315 8.35037
320 11.9112
325 7.57625
330 5.94333
335 8.07698
340 7.98282
345 8.7815
350 9.94273
355 10.246
360 8.92544
365 9.04895
370 7.6111
375 9.13874
380 9.35969
385 12.1028
390 10.0901
395 6.69886
400 8.17381
405 9.89065
410 11.5483
415 8.54239
420 9.28531
425 11.4538
430 9.58029
435 8.31144
440 8.98811
445 9.31038
450 8.27932
455 9.75687
460 11.2602
465 11.1286
470 13.7693
475 12.5026
480 9.01005
485 12.423
490 10.5885
495 9.85496
500 12.8977
505 11.3125
510 8.28343
515 9.20801
520 11.4374
525 7.7231
530 10.3557
535 12.9632
540 14.8221
545 9.04586
550 6.69521
555 7.46068
560 8.53377
565 8.68522
570 7.26231
575 8.86742
580 8.20522
585 8.17243
590 9.42026
595 7.46221
600 0.849172
Ex : 213
200 6.72522
205 7.87754
210 6.95418
215 6.81926
220 8.18672
225 10.0948
230 8.37438
235 7.484
240 6.1729
245 9.17013
250 9.80571
255 6.4001
260 8.83728
265 7.2523
270 7.80762
275 9.39102
280 11.6437
285 6.24215
290 9.62528
295 7.8578
300 10.7805
305 11.5848
310 7.26289
315 10.3654
320 9.85749
325 7.99512
330 6.22704
335 9.29476
340 9.99464
345 10.516
350 11.0009
355 6.96486
360 10.9452
365 10.1793
370 8.55492
375 8.98645
380 9.0798
385 13.0622
390 8.61866
395 8.43482
400 9.53201
405 10.3898
410 7.39878
415 7.16491
420 9.17035
425 11.1871
430 7.91072
435 10.1639
440 11.874
445 8.72743
450 9.06841
455 10.8676
460 7.56116
465 10.9173
470 9.43433
475 5.8412
480 7.02478
485 9.15925
490 9.65534
495 8.56083
500 8.85156
505 8.67337
510 5.89991
515 7.98054
520 7.22662
525 8.25419
530 11.9915
535 8.39152
540 7.17499
545 10.0802
550 10.2403
555 10.2271
560 9.13513
565 8.91009
570 8.67238
575 11.3586
580 10.1892
585 11.3426
590 10.2306
595 9.72122
600 7.84139
Ex : 218
200 10.2275
205 6.93072
210 7.33744
215 10.4102
220 7.68072
225 9.69579
230 6.7088
235 7.60395
240 9.91783
245 12.6109
250 8.86428
255 7.70876
260 7.19553
265 9.66398
270 8.24583
275 8.36384
280 8.6046
285 7.98983
290 6.8638
295 7.1164
300 8.4596
305 9.62637
310 13.5965
315 9.82135
320 7.61646
325 8.44561
330 6.59511
335 7.84013
340 10.9427
345 8.72037
350 7.57199
355 7.49728
360 11.393
365 9.02267
370 9.61406
375 8.6435
380 8.67669
385 11.7122
390 6.65418
395 8.65034
400 7.23336
405 6.04642
410 8.30077
415 10.4856
420 13.2274
425 12.1918
430 9.7602
435 9.90388
440 9.6328
445 11.6659
450 8.95804
455 9.76708
460 9.38668
465 9.06944
470 5.85932
475 9.82693
480 10.7321
485 9.72256
490 9.1696
495 8.47457
500 10.1875
505 11.1137
510 10.9027
515 7.29231
520 11.481
525 15.4014
530 7.72629
535 7.0179
540 9.49762
545 10.7645
550 9.67831
555 8.28945
560 10.3528
565 11.8659
570 9.47521
575 9.02923
580 9.90282
585 7.55188
590 9.57443
595 8.76997
600 0.997989
Ex : 223
200 7.52727
205 9.31144
210 9.11303
215 6.52825
220 8.75617
225 8.15695
230 8.89192
235 5.52502
240 6.1766
245 9.84541
250 11.3306
255 9.3739
260 8.0424
265 6.80242
270 8.90112
275 6.27053
280 4.17234
285 13.5432
290 12.6148
295 8.07427
300 8.22367
305 15.4895
310 9.2521
315 9.51911
320 6.43844
325 6.18939
330 8.34256
335 7.9118
340 7.40561
345 9.88113
350 8.09778
355 8.28215
360 10.1279
365 6.51897
370 9.04438
375 8.57665
380 8.58153
385 10.2544
390 10.1417
395 8.26051
400 8.1512
405 9.89468
410 10.721
415 9.993
420 10.7188
425 8.42948
430 9.2087
435 10.1823
440 6.85688
445 6.90429
450 7.42393
455 10.6555
460 11.4809
465 8.26171
470 9.23044
475 7.61076
480 8.57079
485 8.00725
490 7.77199
495 8.37687
500 8.3368
505 10.2023
510 6.42851
515 8.1337
520 7.30301
525 9.22071
530 9.17553
535 7.53892
540 10.3052
545 7.51312
550 9.98326
555 8.70287
560 12.3399
565 10.2281
570 8.62148
575 8.81678
580 8.94859
585 8.1829
590 10.9569
595 10.6777
600 21.7455
Ex : 228
200 7.05213
205 5.96237
210 7.83114
215 9.28763
220 6.48752
225 9.46756
230 8.10459
235 8.21435
240 10.8723
245 6.8037
250 5.00919
255 13.0438
260 9.34594
265 6.73686
270 8.95346
275 7.861
280 6.23096
285 5.96746
290 9.94469
295 8.61342
300 8.75
305 7.27365
310 9.12936
315 7.23017
320 5.78794
325 9.59043
330 9.69675
335 9.23154
340 8.85674
345 7.27623
350 11.0821
355 9.97543
360 10.3146
365 8.95223
370 7.26819
375 9.14953
380 6.474
385 7.46098
390 6.69798
395 8.59359
400 8.0019
405 8.86619
410 8.11775
415 9.1142
420 8.2705
425 10.4243
430 8.43442
435 6.13396
440 7.90936
445 8.52141
450 8.14205
455 10.2451
460 6.33346
465 9.43372
470 7.25342
475 7.88191
480 7.70171
485 7.56105
490 10.2277
495 7.53273
500 8.78447
505 7.08055
510 8.43121
515 9.93777
520 8.84654
525 6.39546
530 9.15732
535 9.2078
540 7.75938
545 12.9509
550 8.27063
555 7.47893
560 10.1092
565 8.36719
570 9.67048
575 7.61348
580 7.97243
585 8.52143
590 8.72692
595 9.58024
600 1.09019
Ex : 233
200 8.8664
205 5.68946
210 7.49402
215 9.16859
220 6.84668
225 8.50921
230 6.81349
235 8.48803
240 6.89996
245 7.55858
250 10.9161
255 6.04874
260 5.35591
265 7.40497
270 7.79801
275 8.22545
280 6.81787
285 6.14087
290 8.77191
295 7.1716
300 5.5599
305 7.39752
310 7.99447
315 7.24248
320 8.00061
325 7.90659
330 6.21324
335 7.73938
340 9.65564
345 8.46343
350 8.94271
355 8.08566
360 11.5968
365 10.7481
370 10.2874
375 10.4513
380 6.26485
385 6.94638
390 8.40512
395 8.38607
400 9.52704
405 6.52171
410 8.34235
415 6.93413
420 8.79814
425 11.877
430 7.38486
435 6.96995
440 8.90042
445 9.86356
450 7.45192
455 8.83505
460 12.32
465 5.90989
470 8.84659
475 7.39553
480 10.072
485 11.8745
490 8.46315
495 7.61724
500 9.99434
505 8.97059
510 7.78318
515 6.82215
520 5.8135
525 6.47323
530 6.37035
535 6.06068
540 7.47492
545 10.3575
550 9.56096
555 10.404
560 8.86314
565 11.956
570 7.22758
575 8.1217
580 8.29684
585 8.99225
590 4.62693
595 6.89379
600 0.784487
Ex : 238
200 7.09652
205 8.03711
210 6.74062
215 5.10115
220 5.73659
225 6.69636
230 6.91899
235 6.88853
240 6.07725
245 7.54651
250 10.0015
255 5.38424
260 4.2405
265 7.50864
270 8.60874
275 8.00949
280 9.10131
285 7.71131
290 8.39818
295 8.39846
300 6.0971
305 5.92751
310 5.9329
315 5.72293
320 6.16317
325 5.92126
330 8.92411
335 8.08825
340 8.63072
345 8.48322
350 7.59661
355 8.91992
360 9.88735
365 6.79487
370 11.983
375 6.97741
380 6.12145
385 7.18389
390 7.86316
395 7.31379
400 6.25714
405 10.8278
410 7.43202
415 8.31616
420 8.94613
425 6.20963
430 7.61969
435 10.4225
440 6.57913
445 7.46351
450 7.4206
455 10.5927
460 7.06691
465 9.56967
470 8.88616
475 6.40992
480 6.76165
485 9.30666
490 7.35867
495 5.71492
500 6.94271
505 6.00423
510 8.10737
515 7.98154
520 8.8029
525 10.041
530 6.42221
535 8.41486
540 8.49201
545 7.00555
550 4.45537
555 4.78523
560 7.79988
565 7.44482
570 8.2553
575 7.34682
580 6.24907
585 10.2687
590 7.26875
595 7.27637
600 0.828023
Ex : 243
200 8.93311
205 9.46422
210 5.17568
215 5.36155
220 8.38331
225 4.14055
230 4.50295
235 5.14939
240 5.46973
245 4.99398
250 5.30081
255 6.05769
260 6.9956
265 6.63076
270 5.52504
275 5.94292
280 4.33907
285 5.80179
290 7.0576
295 6.68401
300 6.24439
305 7.54611
310 4.76102
315 7.78226
320 6.53285
325 9.45567
330 6.71522
335 5.90059
340 5.97961
345 5.85389
350 6.34591
355 6.51927
360 8.43351
365 7.19073
370 7.33008
375 6.85971
380 5.59403
385 5.68252
390 7.55576
395 6.23732
400 8.23636
405 8.23378
410 7.16493
415 9.03313
420 5.79699
425 5.20446
430 10.4501
435 8.86657
440 5.39823
445 6.99787
450 6.53152
455 7.67781
460 6.17804
465 7.12186
470 6.34614
475 7.13556
480 7.27118
485 7.91706
490 8.07763
495 7.18298
500 6.15817
505 5.65546
510 6.66186
515 7.85397
520 5.53868
525 6.58178
530 7.2539
535 5.37924
540 10.9034
545 5.81605
550 7.35494
555 6.31997
560 4.41118
565 6.68641
570 7.99977
575 7.6484
580 7.95386
585 6.60131
590 9.64793
595 6.48897
600 0.73842
Ex : 248
200 5.34226
205 5.14842
210 6.96862
215 4.92325
220 4.28125
225 4.06904
230 6.29744
235 6.61249
240 6.167
245 4.59683
250 4.71172
255 5.04562
260 6.95592
265 4.69295
270 4.87563
275 6.79866
280 6.5866
285 6.15217
290 5.43533
295 4.89509
300 6.38963
305 4.76959
310 7.72912
315 6.0518
320 5.61081
325 8.47879
330 6.84458
335 6.25389
340 7.11579
345 4.96628
350 4.4675
355 6.62397
360 6.52892
365 4.96247
370 5.97289
375 5.39
380 7.1148
385 6.58726
390 5.86073
395 4.68509
400 4.23048
405 7.07692
410 7.2893
415 7.4639
420 5.46641
425 6.90704
430 5.39804
435 7.29089
440 6.56825
445 8.51939
450 6.87144
455 6.27798
460 6.35966
465 5.9808
470 4.43483
475 4.69112
480 4.57943
485 5.23963
490 6.67038
495 6.03224
500 4.78417
505 5.49722
510 5.32039
515 6.7081
520 4.65785
525 5.66795
530 5.53757
535 5.51787
540 5.03718
545 6.25903
550 8.94721
555 7.63717
560 4.70497
565 4.57314
570 5.53611
575 6.9539
580 5.14576
585 6.85211
590 5.01006
595 7.24567
600 0.824529
Ex : 253
200 3.28321
205 2.94676
210 3.66808
215 4.53815
220 3.72395
225 3.92405
230 3.3983
235 5.62008
240 4.35305
245 5.49592
250 4.47075
255 4.45379
260 6.64102
265 5.24142
270 5.04824
275 5.28808
280 5.88742
285 6.26622
290 6.34468
295 3.53645
300 4.29868
305 2.8905
310 2.53347
315 3.96912
320 4.31561
325 6.61786
330 4.94324
335 3.82607
340 5.22804
345 5.20589
350 4.96677
355 3.90429
360 5.07175
365 6.23386
370 6.28014
375 6.44799
380 4.82749
385 4.17555
390 3.96016
395 6.28094
400 5.32214
405 4.39823
410 4.32459
415 5.6033
420 5.65121
425 5.58976
430 5.20881
435 5.98879
440 5.49539
445 4.93367
450 4.39576
455 5.83097
460 5.35665
465 3.49907
470 7.46959
475 7.35807
480 4.60812
485 5.18609
490 6.28362
495 6.25765
500 5.13635
505 5.99057
510 4.29607
515 5.6945
520 4.21828
525 3.60673
530 5.35011
535 5.67284
540 5.33385
545 3.43892
550 5.55742
555 4.35981
560 4.53929
565 3.90446
570 3.28736
575 5.61652
580 4.74749
585 5.11261
590 5.58078
595 3.30476
600 2.66543
Ex : 258
200 4.04609
205 3.37714
210 4.90539
215 3.6477
220 4.11349
225 3.63668
230 4.463
235 3.20454
240 3.83923
245 3.09731
250 4.27378
255 3.5512
260 2.71991
265 2.90135
270 4.08329
275 5.0337
280 2.37784
285 4.79636
290 3.62189
295 5.58229
300 3.65962
305 4.13851
310 3.66443
315 3.4435
320 4.60588
325 3.67708
330 3.28226
335 3.21811
340 4.51025
345 4.20134
350 3.56507
355 4.75681
360 4.58929
365 4.38882
370 2.93513
375 3.05904
380 4.16658
385 3.96893
390 4.78281
395 4.19063
400 4.18001
405 4.75456
410 5.64537
415 3.35507
420 3.98711
425 3.83707
430 4.6222
435 3.56591
440 3.44143
445 4.45248
450 4.91095
455 4.18995
460 4.14695
465 4.74739
470 3.85015
475 3.84884
480 4.54005
485 4.44724
490 3.37915
495 3.65763
500 4.33541
505 3.29105
510 6.48772
515 4.20397
520 4.45819
525 4.46295
530 6.5275
535 6.09778
540 4.3416
545 4.22582
550 3.67011
555 3.80998
560 3.25036
565 3.08366
570 3.28768
575 3.86299
580 3.91071
585 3.58291
590 4.99198
595 4.14236
600 0.471385
Ex : 263
200 2.81575
205 2.90084
210 3.56256
215 2.62944
220 2.7152
225 3.74036
230 2.69654
235 1.94547
240 3.9965
245 3.688
250 2.12769
255 3.42237
260 2.89988
265 2.71474
270 3.53988
275 2.70236
280 3.41711
285 2.93543
290 3.89295
295 4.44521
300 2.76888
305 2.62007
310 3.41788
315 2.46548
320 3.24023
325 2.74673
330 2.90144
335 3.429
340 2.90492
345 3.32007
350 3.16835
355 2.50482
360 3.19021
365 2.91354
370 3.34955
375 2.92362
380 3.46385
385 4.57098
390 4.05354
395 3.53364
400 4.37383
405 4.66961
410 3.71069
415 3.48587
420 3.07663
425 3.98325
430 3.29401
435 4.28939
440 3.18662
445 3.28382
450 3.59246
455 3.71141
460 3.04385
465 3.73346
470 4.24431
475 3.0078
480 3.06196
485 3.85515
490 4.79178
495 4.10161
500 2.92553
505 3.70653
510 2.93173
515 2.69683
520 3.62333
525 4.83618
530 2.93856
535 3.62287
540 2.7555
545 3.19835
550 3.29026
555 3.6181
560 2.85202
565 1.97802
570 2.34652
575 2.35767
580 2.69068
585 3.01701
590 3.22741
595 3.18025
600 7.51483
Ex : 268
200 1.89548
205 2.8071
210 2.06152
215 2.06043
220 1.99036
225 2.33618
230 1.62898
235 2.33594
240 3.02252
245 2.81909
250 2.15635
255 2.69289
260 3.13543
265 3.15743
270 2.44112
275 2.11715
280 3.02259
285 2.80425
290 2.34407
295 2.51722
300 2.30933
305 2.1032
310 2.90698
315 2.58598
320 2.22615
325 2.12777
330 2.3423
335 2.47011
340 2.40322
345 3.39924
350 1.8815
355 3.03436
360 2.58347
365 2.72558
370 2.96877
375 3.11224
380 2.57706
385 2.21146
390 2.57004
395 2.77247
400 3.66836
405 2.93818
410 2.7949
415 2.91923
420 3.16531
425 3.10812
430 2.40941
435 2.86322
440 3.50091
445 2.65194
450 3.23387
455 2.71149
460 2.77173
465 2.62361
470 2.37603
475 2.33098
480 3.13091
485 2.02267
490 2.08273
495 2.78569
500 2.69797
505 2.64632
510 2.2492
515 2.36211
520 3.33915
525 3.12879
530 3.34501
535 2.87489
540 2.74542
545 2.44092
550 2.66584
555 2.71766
560 2.64132
565 3.1657
570 3.18559
575 2.45272
580 2.72813
585 2.08964
590 1.70827
595 2.28519
600 0.260046
Ex : 273
200 2.13354
205 2.58911
210 1.64918
215 1.70318
220 2.20347
225 2.00373
230 1.85893
235 2.20249
240 2.24414
245 2.18766
250 1.67902
255 1.8382
260 1.67077
265 1.62591
270 2.76199
275 1.87798
280 2.06485
285 1.81229
290 2.13692
295 2.18129
300 1.67284
305 1.8451
310 1.9565
315 1.85373
320 1.71475
325 1.57724
330 1.61749
335 1.55741
340 1.7636
345 1.97586
350 2.10599
355 2.23659
360 2.34684
365 2.27998
370 2.52277
375 2.2586
380 2.91471
385 2.31212
390 2.16622
395 2.28487
400 2.72179
405 2.52478
410 2.32549
415 2.22136
420 2.60523
425 2.27826
430 2.00397
435 3.27212
440 2.41448
445 2.30733
450 2.37752
455 2.54469
460 2.34938
465 2.78116
470 2.44632
475 2.34774
480 1.99925
485 1.9201
490 2.33111
495 1.67789
500 2.16505
505 2.18842
510 2.342
515 1.87863
520 1.66028
525 1.41676
530 1.70861
535 2.02733
540 1.90698
545 2.61633
550 1.83521
555 2.37829
560 1.54566
565 1.88077
570 2.2938
575 2.40724
580 1.91751
585 2.09864
590 1.69426
595 2.26728
600 3.15294
Ex : 278
200 1.47922
205 1.0553
210 1.43312
215 1.2247
220 1.31797
225 1.48271
230 1.46007
235 1.3535
240 1.6586
245 1.34535
250 2.34516
255 1.87884
260 1.6767
265 1.34249
270 1.30581
275 1.54513
280 2.34836
285 1.56887
290 1.64747
295 2.00378
300 1.73001
305 1.94508
310 1.62475
315 1.40333
320 1.75784
325 1.86062
330 2.00189
335 1.48012
340 1.4864
345 2.21394
350 1.19732
355 1.63432
360 1.68741
365 2.33641
370 1.4125
375 1.58771
380 2.15683
385 1.98877
390 1.91162
395 2.18131
400 1.76568
405 2.11522
410 2.29308
415 2.65589
420 2.12104
425 2.50953
430 2.08094
435 2.69611
440 1.6702
445 2.13001
450 2.12586
455 2.1555
460 2.12933
465 2.37585
470 2.43291
475 1.85081
480 2.10063
485 2.02379
490 1.9584
495 1.7562
500 1.59452
505 1.4019
510 1.42793
515 1.52032
520 2.29598
525 1.7117
530 1.66309
535 1.36756
540 1.66984
545 2.17887
550 2.77499
555 3.25143
560 1.63937
565 1.45234
570 1.74392
575 1.69848
580 1.67935
585 2.21032
590 1.85451
595 1.3169
600 1.24284
Ex : 283
200 1.35186
205 1.09891
210 1.08653
215 1.00419
220 1.27929
225 1.14382
230 1.21538
235 1.7997
240 1.18912
245 1.5327
250 0.973346
255 1.78918
260 1.22223
265 1.15251
270 1.44003
275 1.59925
280 1.72999
285 1.56948
290 1.76161
295 1.16689
300 0.997469
305 0.985236
310 1.0541
315 1.78095
320 1.37087
325 1.50179
330 1.25453
335 1.27455
340 1.44843
345 1.39271
350 1.8563
355 1.34876
360 1.55942
365 1.67927
370 2.18855
375 2.04614
380 1.59926
385 1.54572
390 1.77294
395 1.58908
400 2.21129
405 2.00651
410 1.50069
415 1.85274
420 2.19198
425 2.1284
430 1.70559
435 2.18099
440 1.62096
445 2.09891
450 1.64479
455 1.67071
460 1.70942
465 1.54199
470 1.53217
475 2.27306
480 1.45676
485 1.71789
490 1.99746
495 1.76475
500 1.58449
505 1.58584
510 1.64357
515 1.58992
520 1.24
525 1.55661
530 1.36213
535 1.58749
540 1.53962
545 1.13431
550 1.37243
555 2.1845
560 2.36845
565 1.76127
570 1.34401
575 1.63768
580 1.45743
585 1.09402
590 1.40471
595 1.28689
600 1.77115
Ex : 288
200 1.0076
205 1.18867
210 1.27133
215 1.28898
220 1.1893
225 1.39027
230 0.892852
235 1.35315
240 1.13771
245 1.13243
250 1.00459
255 1.21342
260 0.856811
265 1.68913
270 1.46393
275 1.16192
280 1.23434
285 1.39478
290 1.36684
295 1.32163
300 1.15989
305 1.11702
310 1.02906
315 1.04516
320 1.01679
325 1.36274
330 1.14086
335 1.38056
340 1.39116
345 1.01356
350 1.20825
355 1.1853
360 1.47677
365 1.46799
370 1.42523
375 1.18765
380 1.19765
385 1.35449
390 1.99172
395 2.11209
400 1.32313
405 1.71095
410 1.55933
415 1.40884
420 1.6016
425 2.10978
430 1.33671
435 1.62981
440 1.98046
445 1.43508
450 1.65795
455 1.92259
460 2.04422
465 1.73792
470 1.58402
475 1.65761
480 1.49196
485 1.43176
490 1.29102
495 1.75173
500 1.28073
505 1.182
510 1.13195
515 1.09572
520 1.59506
525 0.853607
530 1.39122
535 1.18968
540 1.26822
545 1.05736
550 0.916638
555 1.00729
560 1.10692
565 1.78991
570 2.19725
575 1.64031
580 1.28117
585 0.919311
590 1.29713
595 1.27291
600 1.58493
Ex : 293
200 0.844776
205 0.979637
210 1.04345
215 1.00584
220 0.924601
225 1.10844
230 1.0863
235 0.571895
240 0.721042
245 0.93306
250 1.14452
255 0.743181
260 1.02003
265 0.660078
270 1.1382
275 0.831421
280 1.17158
285 1.42494
290 1.22452
295 0.881491
300 1.32482
305 0.88634
310 0.995553
315 1.20514
320 0.889399
325 1.05013
330 1.12272
335 0.942461
340 0.976084
345 1.33203
350 1.30427
355 0.955436
360 1.57836
365 1.78967
370 1.46607
375 1.51066
380 1.28879
385 1.95775
390 1.30197
395 1.59289
400 1.27229
405 1.44473
410 1.42349
415 1.91261
420 1.54853
425 1.37899
430 1.54611
435 1.75067
440 1.23862
445 1.59807
450 1.49571
455 1.24027
460 1.4386
465 1.22947
470 1.23207
475 1.26201
480 1.16495
485 1.23976
490 1.40194
495 1.19299
500 0.978798
505 0.943485
510 0.826055
515 1.38351
520 1.68069
525 1.05363
530 1.29393
535 1.25299
540 0.819159
545 1.14206
550 1.17189
555 0.954531
560 0.858349
565 1.02053
570 0.966439
575 1.823
580 2.17306
585 1.69371
590 1.28235
595 0.823192
600 0.847892
Ex : 298
200 1.12855
205 0.856699
210 0.936052
215 0.892106
220 0.941285
225 0.918745
230 0.752175
235 0.550533
240 0.616575
245 0.892093
250 0.832771
255 0.891105
260 0.961578
265 0.725472
270 0.945976
275 0.680135
280 1.07924
285 0.614499
290 1.14707
295 1.47683
300 1.12743
305 0.872974
310 0.518917
315 0.80502
320 1.0515
325 1.01987
330 1.59555
335 1.10035
340 0.830577
345 1.3712
350 1.15214
355 0.942944
360 1.29837
365 1.149
370 0.886724
375 1.23749
380 1.72542
385 1.10738
390 1.28879
395 1.35188
400 1.37398
405 1.74057
410 1.5229
415 1.15784
420 1.23502
425 1.14496
430 1.44084
435 1.1074
440 1.11939
445 1.28605
450 1.18415
455 1.21798
460 1.10839
465 1.16966
470 0.953662
475 1.11488
480 0.822671
485 1.18091
490 0.946248
495 1.23329
500 0.993062
505 1.13807
510 1.00408
515 1.24736
520 0.708389
525 0.914686
530 0.859887
535 0.803705
540 0.897274
545 0.837558
550 0.74692
555 0.74153
560 1.00716
565 0.842773
570 0.966388
575 0.849187
580 0.850958
585 1.13016
590 1.6719
595 1.38767
600 1.23402
Ex : 303
200 0.874004
205 0.895557
210 0.773727
215 0.899806
220 0.708834
225 0.644733
230 0.649984
235 0.532382
240 0.648561
245 0.757089
250 0.798838
255 0.669187
260 0.612943
265 0.629726
270 0.555628
275 0.613682
280 0.654722
285 0.723823
290 0.665576
295 1.02635
300 1.04316
305 0.901453
310 0.740894
315 0.735372
320 0.733971
325 0.973449
330 0.862974
335 1.11125
340 1.01198
345 0.846193
350 0.755754
355 1.01805
360 0.885708
365 1.0686
370 1.13649
375 1.38034
380 1.45884
385 1.29853
390 1.17174
395 1.39386
400 1.34785
405 1.43724
410 1.45653
415 1.21898
420 1.44535
425 1.21356
430 1.2212
435 0.928845
440 1.24288
445 1.23241
450 0.85618
455 1.23046
460 1.28435
465 0.999598
470 0.955019
475 0.937783
480 1.06606
485 1.08541
490 0.918862
495 1.02931
500 0.845073
505 0.800768
510 0.860429
515 0.843802
520 0.765862
525 0.739271
530 0.953622
535 0.735014
540 0.666402
545 1.16028
550 0.730987
555 0.838186
560 0.777495
565 0.540656
570 0.610095
575 0.660455
580 0.755914
585 0.940103
590 0.923758
595 1.15657
600 1.17013
Ex : 308
200 0.652653
205 0.655572
210 0.59574
215 0.439504
220 0.605352
225 0.688308
230 0.582712
235 0.51402
240 0.507682
245 0.655486
250 0.748107
255 0.747925
260 0.660727
265 0.759657
270 0.562558
275 0.514684
280 0.671331
285 0.625475
290 0.480469
295 0.703211
300 0.895141
305 1.19132
310 0.787109
315 0.628895
320 0.565692
325 0.785101
330 0.833017
335 0.764938
340 0.860773
345 0.886189
350 0.839596
355 1.00745
360 1.29695
365 0.90398
370 0.905424
375 1.29272
380 0.99087
385 1.3623
390 1.33063
395 1.21688
400 1.30396
405 1.11134
410 1.22747
415 1.22968
420 1.20804
425 1.22297
430 1.26526
435 1.11747
440 1.17539
445 1.31348
450 1.129
455 1.16775
460 1.21984
465 1.20917
470 0.982392
475 0.798518
480 0.991951
485 0.759827
490 1.09397
495 0.908612
500 0.752384
505 0.780283
510 0.885539
515 0.848411
520 0.611656
525 0.81719
530 0.759442
535 0.772342
540 0.658906
545 0.842531
550 0.652537
555 0.787761
560 0.755042
565 1.07827
570 0.740729
575 0.603822
580 0.706708
585 0.580124
590 0.563539
595 0.460092
600 0.323141
Ex : 313
200 0.533469
205 0.695139
210 0.582283
215 0.602496
220 0.614766
225 0.348822
230 0.419534
235 0.635045
240 0.473403
245 0.532815
250 0.560306
255 0.724934
260 0.650305
265 0.480737
270 0.497677
275 0.581521
280 0.506916
285 0.602758
290 0.597278
295 0.486767
300 0.725417
305 0.917406
310 1.02642
315 0.583089
320 0.577554
325 0.646221
330 0.834003
335 0.980851
340 1.0225
345 0.870567
350 0.866693
355 0.950046
360 0.994578
365 1.08436
370 1.25813
375 1.29699
380 1.30036
385 1.55635
390 1.40558
395 1.65653
400 1.63137
405 1.89535
410 1.95023
415 1.57724
420 2.24851
425 1.92064
430 1.6772
435 1.51663
440 1.64933
445 1.88431
450 1.80046
455 1.57528
460 1.62516
465 1.47555
470 1.42953
475 1.09432
480 0.940408
485 0.9862
490 1.02334
495 1.14301
500 1.09454
505 0.892876
510 1.10267
515 0.798606
520 0.858118
525 0.710254
530 0.623956
535 0.658508
540 0.603365
545 0.769132
550 0.697102
555 0.770377
560 0.851109
565 0.580165
570 0.629279
575 0.604794
580 0.660234
585 0.597644
590 0.59947
595 0.544761
600 0.494286
Ex : 318
200 0.485298
205 0.581212
210 0.463403
215 0.396893
220 0.504981
225 0.364317
230 0.45107
235 0.489438
240 0.438428
245 0.425049
250 0.433097
255 0.576617
260 0.463186
265 0.391319
270 0.510377
275 0.46563
280 0.691975
285 0.467963
290 0.566147
295 0.458294
300 0.503374
305 0.542335
310 0.980526
315 1.68131
320 1.14183
325 1.03427
330 1.09261
335 1.23116
340 1.78944
345 2.1299
350 2.96002
355 3.50215
360 4.57798
365 5.57604
370 6.12223
375 7.12969
380 8.45039
385 9.07584
390 9.7679
395 10.1989
400 11.1892
405 11.1202
410 11.2862
415 11.0437
420 11.1135
425 10.5126
430 10.1895
435 10.3141
440 10.1989
445 9.41028
450 8.68446
455 8.57807
460 7.80022
465 7.18605
470 6.94616
475 5.97342
480 5.46706
485 5.38938
490 4.91536
495 3.98816
500 4.20629
505 3.60475
510 2.84349
515 2.25435
520 2.11061
525 2.06262
530 1.97843
535 1.8654
540 1.77758
545 1.32769
550 1.3778
555 1.16121
560 1.21382
565 1.05746
570 1.09525
575 0.919396
580 0.82847
585 0.698485
590 0.56763
595 0.490402
600 0.0558059
Ex : 323
200 0.315605
205 0.428702
210 0.33044
215 0.520101
220 0.534634
225 0.4835
230 0.405046
235 0.415155
240 0.488573
245 0.478105
250 0.534201
255 0.431745
260 0.465587
265 0.327081
270 0.350993
275 0.506005
280 0.411402
285 0.498549
290 0.494329
295 0.366757
300 0.647332
305 0.364709
310 0.658972
315 7.05032
320 28.389
325 12.2363
330 3.49554
335 3.58026
340 4.9112
345 6.64964
350 9.74871
355 12.9842
360 15.4039
365 18.5496
370 21.7489
375 25.0824
380 29.2224
385 32.4614
390 35.5357
395 37.3426
400 39.772
405 39.5326
410 40.2994
415 39.1968
420 39.1999
425 38.4324
430 38.0227
435 35.1448
440 34.684
445 33.366
450 32.0212
455 29.1386
460 26.8353
465 25.3504
470 22.3909
475 20.7703
480 19.0431
485 17.1205
490 15.1226
495 13.6817
500 12.1713
505 11.1209
510 9.50974
515 8.40478
520 7.14266
525 5.70279
530 5.20429
535 4.45445
540 3.97601
545 3.59146
550 3.39319
555 2.85637
560 2.4368
565 2.12847
570 1.97021
575 1.39534
580 1.18864
585 1.11282
590 0.868597
595 0.703614
600 0.0800686
Ex : 328
200 0.392611
205 0.383559
210 0.518956
215 0.391569
220 0.393977
225 0.384246
230 0.421641
235 0.481178
240 0.320015
245 0.416674
250 0.396334
255 0.400032
260 0.337541
265 0.343079
270 0.394903
275 0.405964
280 0.449444
285 0.427298
290 0.421407
295 0.485808
300 0.495866
305 0.336124
310 0.577792
315 2.01218
320 61.5689
325 145.172
330 44.6504
335 9.11791
340 6.9211
345 8.01983
350 10.4048
355 14.0919
360 19.1318
365 20.9454
370 23.2071
375 26.1232
380 28.8217
385 34.5106
390 37.313
395 39.546
400 41.5497
405 41.0963
410 43.3648
415 42.6317
420 42.9772
425 40.9949
430 39.8134
435 37.8764
440 36.6716
445 35.2509
450 33.1457
455 31.0213
460 28.4491
465 25.9979
470 24.1278
475 22.4469
480 20.3383
485 18.3687
490 16.4621
495 14.9132
500 13.2349
505 11.9012
510 10.379
515 8.89361
520 8.22486
525 7.14857
530 6.25173
535 5.6324
540 4.69174
545 4.39835
550 3.66326
555 3.02313
560 2.65812
565 2.45959
570 1.92575
575 1.58947
580 1.38741
585 1.24693
590 1.04455
595 0.983335
600 0.757118
Ex : 333
200 0.365569
205 0.428836
210 0.472533
215 0.359289
220 0.266864
225 0.434117
230 0.360479
235 0.410981
240 0.465258
245 0.400422
250 0.439643
255 0.364319
260 0.425609
265 0.369807
270 0.439094
275 0.522214
280 0.356862
285 0.337142
290 0.393668
295 0.34365
300 0.56271
305 0.453574
310 0.463993
315 0.592615
320 8.94403
325 168.977
330 285.646
335 75.4974
340 12.6541
345 6.6369
350 6.59078
355 7.7025
360 10.7479
365 15.6966
370 16.4742
375 16.3898
380 17.8649
385 20.5324
390 23.4524
395 24.27
400 24.7695
405 26.3458
410 27.5175
415 27.0057
420 26.8299
425 25.8282
430 24.0322
435 23.7796
440 22.6383
445 21.2999
450 20.6186
455 18.4283
460 17.4912
465 15.8769
470 14.933
475 13.3811
480 12.4209
485 11.8171
490 10.1379
495 9.44418
500 8.52563
505 7.67284
510 6.72837
515 6.24982
520 5.97957
525 4.77302
530 4.37818
535 3.8217
540 3.67173
545 3.25791
550 2.85057
555 2.4528
560 2.21602
565 2.0934
570 1.75534
575 1.686
580 1.3434
585 1.20982
590 0.9611
595 1.06656
600 1.13622
Ex : 338
200 0.281918
205 0.349381
210 0.291945
215 0.350892
220 0.378169
225 0.404069
230 0.461195
235 0.348866
240 0.32256
245 0.39248
250 0.576976
255 0.505181
260 0.338147
265 0.364927
270 0.219231
275 0.328319
280 0.396915
285 0.429235
290 0.396876
295 0.44469
300 0.353584
305 0.411545
310 0.388621
315 0.410311
320 0.737607
325 16.1544
330 249.408
335 364.633
340 91.54
345 14.0812
350 5.7685
355 4.81085
360 5.32553
365 7.00334
370 11.3005
375 11.3816
380 11.5982
385 12.513
390 14.7927
395 16.162
400 15.9226
405 16.6321
410 17.9211
415 18.5969
420 18.0087
425 16.7433
430 16.143
435 15.6
440 15.0081
445 14.4572
450 13.7789
455 13.0569
460 11.3985
465 11.245
470 10.5632
475 9.57049
480 8.95478
485 7.99605
490 7.70724
495 7.13346
500 6.80839
505 6.12694
510 5.35864
515 4.77338
520 4.00285
525 3.89478
530 3.47998
535 3.52692
540 2.91773
545 2.64854
550 2.48275
555 2.35575
560 1.95265
565 1.80741
570 1.4183
575 1.36771
580 1.23744
585 0.988847
590 0.950786
595 0.798464
600 0.514974
Ex : 343
200 0.321213
205 0.309855
210 0.409258
215 0.384899
220 0.35236
225 0.325302
230 0.317788
235 0.308918
240 0.271874
245 0.436458
250 0.346678
255 0.299932
260 0.341853
265 0.345068
270 0.357987
275 0.332416
280 0.355206
285 0.431891
290 0.358093
295 0.301197
300 0.348612
305 0.412585
310 0.416202
315 0.538178
320 0.414133
325 0.759197
330 18.3993
335 281.214
340 410.111
345 99.7381
350 14.0846
355 4.83433
360 3.73604
365 3.34043
370 4.44153
375 8.4217
380 10.9642
385 11.5434
390 12.6941
395 14.1406
400 13.3294
405 13.6796
410 14.8735
415 16.541
420 15.8448
425 14.5987
430 14.1776
435 14.347
440 13.8544
445 13.2018
450 12.8301
455 11.9896
460 10.7898
465 9.88679
470 9.67511
475 9.30295
480 8.53739
485 7.5615
490 7.51216
495 6.7554
500 6.17939
505 5.53304
510 5.2385
515 4.59314
520 4.43553
525 3.94543
530 3.48386
535 3.09965
540 3.00808
545 2.83248
550 2.51611
555 2.22159
560 2.07128
565 1.86355
570 1.4112
575 1.27565
580 1.12933
585 0.972659
590 0.985271
595 0.889745
600 0.343479
Ex : 348
200 0.317134
205 0.385354
210 0.348895
215 0.392833
220 0.340148
225 0.402566
230 0.295234
235 0.254722
240 0.323514
245 0.321849
250 0.272004
255 0.375529
260 0.45905
265 0.36377
270 0.334001
275 0.399735
280 0.337548
285 0.345653
290 0.392772
295 0.38244
300 0.360676
305 0.34355
310 0.396732
315 0.405641
320 0.452724
325 0.58075
330 0.89838
335 19.1689
340 287.471
345 429.749
350 111.613
355 15.4243
360 4.55011
365 3.23919
370 3.04365
375 3.86444
380 8.81615
385 14.1478
390 15.6471
395 15.7101
400 14.4136
405 15.0964
410 17.812
415 18.7365
420 19.1947
425 16.454
430 15.6004
435 16.0628
440 15.3164
445 15.4112
450 13.8619
455 12.0533
460 11.6522
465 10.7919
470 10.1584
475 9.89883
480 9.22441
485 8.55308
490 7.87124
495 7.66031
500 6.84957
505 6.22159
510 5.56739
515 5.30199
520 4.67222
525 4.3126
530 3.98137
535 3.5728
540 3.3941
545 2.92579
550 2.75359
555 2.49564
560 2.17474
565 1.93523
570 1.65323
575 1.49253
580 1.22783
585 1.12362
590 0.909522
595 0.775473
600 0.198333
Ex : 353
200 0.392365
205 0.229093
210 0.264457
215 0.323916
220 0.313829
225 0.315401
230 0.304054
235 0.317322
240 0.333613
245 0.267429
250 0.316469
255 0.259883
260 0.210574
265 0.240251
270 0.359666
275 0.274544
280 0.333327
285 0.25588
290 0.310178
295 0.319849
300 0.362913
305 0.405555
310 0.431742
315 0.299672
320 0.36827
325 0.407415
330 0.518032
335 0.86546
340 19.3622
345 297.27
350 428.943
355 106.439
360 14.4224
365 4.13836
370 3.12833
375 3.08593
380 4.41625
385 10.1293
390 18.4481
395 18.8802
400 16.8237
405 16.2796
410 18.2814
415 20.6823
420 20.5918
425 18.5348
430 16.8736
435 17.1155
440 17.0185
445 16.4396
450 14.6292
455 13.8821
460 13.0323
465 12.1885
470 11.5238
475 10.6566
480 10.0815
485 9.34237
490 8.69008
495 8.07501
500 7.4495
505 7.01099
510 6.40343
515 5.72159
520 5.16662
525 4.78445
530 4.18616
535 3.93665
540 3.46039
545 3.23007
550 2.96483
555 2.7471
560 2.38893
565 2.26353
570 2.01379
575 1.62827
580 1.44865
585 1.19815
590 0.982129
595 0.829857
600 0.93057
Ex : 358
200 0.272716
205 0.195662
210 0.316649
215 0.259838
220 0.246056
225 0.282651
230 0.284925
235 0.229796
240 0.302073
245 0.295774
250 0.285307
255 0.254668
260 0.278749
265 0.225811
270 0.227439
275 0.283435
280 0.281074
285 0.364227
290 0.249035
295 0.290051
300 0.347422
305 0.289178
310 0.30484
315 0.322839
320 0.375827
325 0.341926
330 0.403272
335 0.537406
340 0.896022
345 17.8363
350 282.135
355 428.855
360 108.84
365 14.8276
370 4.1432
375 3.67943
380 4.26435
385 7.18431
390 12.6143
395 18.198
400 17.4462
405 16.3434
410 17.0573
415 19.6044
420 19.4961
425 17.627
430 15.9766
435 16.0286
440 16.4402
445 16.0229
450 14.4968
455 12.9805
460 12.5031
465 11.4371
470 11.0913
475 11.1175
480 10.3777
485 9.50185
490 9.31553
495 8.64925
500 7.84479
505 7.08384
510 6.74957
515 5.91849
520 5.69915
525 4.83538
530 4.42365
535 4.19653
540 3.7754
545 3.59893
550 3.04189
555 2.98358
560 2.30981
565 2.05227
570 1.93961
575 1.61147
580 1.3588
585 1.18097
590 0.888579
595 0.935622
600 1.62771
Ex : 363
200 0.234118
205 0.205232
210 0.217761
215 0.315209
220 0.244837
225 0.261573
230 0.292996
235 0.303383
240 0.253968
245 0.233303
250 0.240205
255 0.237286
260 0.24125
265 0.218365
270 0.210018
275 0.265533
280 0.384867
285 0.27298
290 0.324212
295 0.217354
300 0.302301
305 0.252452
310 0.277037
315 0.276754
320 0.380331
325 0.33152
330 0.347375
335 0.408817
340 0.555851
345 0.873928
350 16.4859
355 277.648
360 435.775
365 113.476
370 15.2213
375 4.26404
380 5.31979
385 9.01999
390 12.7565
395 14.8366
400 17.5621
405 19.5171
410 20.3901
415 22.4846
420 20.2208
425 18.1571
430 17.4771
435 17.0823
440 17.3252
445 16.7829
450 15.4318
455 14.0594
460 13.1201
465 12.6637
470 12.2296
475 11.4866
480 11.1532
485 10.2644
490 9.56358
495 8.91733
500 8.56466
505 7.8304
510 7.23121
515 6.5602
520 6.07707
525 5.4568
530 4.81367
535 4.35345
540 4.1513
545 3.67285
550 3.34554
555 2.97306
560 2.72371
565 2.42476
570 2.03207
575 1.59863
580 1.44046
585 1.22809
590 0.859568
595 0.875601
600 0.950396
Ex : 368
200 0.187375
205 0.282783
210 0.298248
215 0.218738
220 0.209948
225 0.235964
230 0.265738
235 0.259866
240 0.223238
245 0.265052
250 0.24654
255 0.237637
260 0.245141
265 0.24962
270 0.240121
275 0.20421
280 0.249804
285 0.256014
290 0.308462
295 0.244727
300 0.30158
305 0.301429
310 0.298853
315 0.294564
320 0.294804
325 0.305991
330 0.406159
335 0.315766
340 0.440911
345 0.484458
350 0.781037
355 14.1662
360 267.718
365 446.315
370 120.852
375 16.349
380 6.38216
385 10.3929
390 15.8354
395 17.9163
400 17.6378
405 20.4057
410 26.4251
415 28.0685
420 26.3554
425 22.962
430 20.6909
435 20.9792
440 20.9001
445 20.0801
450 18.2859
455 16.7054
460 15.2704
465 14.5525
470 13.8882
475 12.9611
480 12.6874
485 11.5899
490 11.3055
495 10.1619
500 9.2876
505 8.87741
510 7.92923
515 7.22582
520 6.68461
525 5.88235
530 5.30397
535 4.85465
540 4.40109
545 3.95705
550 3.78573
555 3.29586
560 2.99875
565 2.63365
570 2.20274
575 1.72507
580 1.42836
585 1.19513
590 0.99299
595 0.837557
600 0.705349
Ex : 373
200 0.229078
205 0.212397
210 0.26096
215 0.262942
220 0.210168
225 0.16944
230 0.198559
235 0.254417
240 0.34099
245 0.25666
250 0.244115
255 0.209772
260 0.251989
265 0.28776
270 0.235737
275 0.262461
280 0.212497
285 0.266842
290 0.260153
295 0.296828
300 0.251032
305 0.283548
310 0.255139
315 0.268001
320 0.294697
325 0.271495
330 0.295498
335 0.335836
340 0.387767
345 0.484754
350 0.615933
355 0.778142
360 16.3669
365 274.089
370 446.565
375 119.513
380 17.4032
385 9.08066
390 15.0251
395 18.7665
400 17.2136
405 16.6427
410 22.2721
415 28.8634
420 27.5638
425 23.2911
430 19.87
435 19.1632
440 19.8566
445 19.4407
450 17.819
455 16.1921
460 14.8786
465 14.1711
470 13.4849
475 13.5572
480 12.2943
485 11.8178
490 11.1465
495 10.636
500 9.78751
505 9.48457
510 8.57212
515 7.95003
520 7.05166
525 6.40537
530 5.78213
535 5.30729
540 4.98516
545 4.57575
550 3.88093
555 3.6189
560 3.22775
565 2.826
570 2.36435
575 2.00925
580 1.62858
585 1.2224
590 1.07138
595 0.920483
600 0.647401
Ex : 378
200 0.256099
205 0.225536
210 0.225859
215 0.171811
220 0.224339
225 0.232304
230 0.238939
235 0.264911
240 0.178511
245 0.20413
250 0.192135
255 0.232243
260 0.219131
265 0.226398
270 0.200142
275 0.236975
280 0.256782
285 0.204023
290 0.195932
295 0.194871
300 0.248916
305 0.283625
310 0.217251
315 0.275747
320 0.256973
325 0.267822
330 0.241153
335 0.377352
340 0.306745
345 0.312485
350 0.425932
355 0.579486
360 0.885813
365 15.0942
370 276.844
375 459.978
380 125.101
385 20.3062
390 12.4445
395 14.1002
400 13.0135
405 12.293
410 15.7618
415 19.4875
420 22.2433
425 19.8642
430 16.7205
435 15.9951
440 15.6632
445 16
450 14.6283
455 12.8321
460 12.6995
465 12.4377
470 12.5751
475 12.3441
480 11.7392
485 11.3072
490 10.3581
495 10.436
500 9.66467
505 9.01252
510 8.35348
515 7.84901
520 7.30489
525 6.47774
530 5.96984
535 5.62586
540 5.02331
545 4.49663
550 4.12776
555 3.71533
560 3.34782
565 2.90956
570 2.50087
575 1.97957
580 1.88061
585 1.30786
590 1.10111
595 0.837742
600 0.17623
Ex : 383
200 0.191916
205 0.17286
210 0.210054
215 0.20618
220 0.216134
225 0.178652
230 0.26
235 0.279561
240 0.227803
245 0.275988
250 0.197364
255 0.208248
260 0.224392
265 0.151809
270 0.289372
275 0.307775
280 0.213779
285 0.220437
290 0.276903
295 0.284988
300 0.207427
305 0.177763
310 0.161768
315 0.242624
320 0.213841
325 0.260488
330 0.273603
335 0.262735
340 0.327912
345 0.236461
350 0.39024
355 0.439043
360 0.529464
365 0.740436
370 14.2221
375 281.328
380 485.17
385 138.176
390 26.2108
395 13.9071
400 12.0457
405 13.0617
410 16.0328
415 18.4638
420 18.6048
425 19.2344
430 18.6916
435 17.2611
440 17.4346
445 15.9008
450 14.3814
455 13.3382
460 12.7495
465 12.5545
470 12.7315
475 12.1126
480 11.5563
485 11.2619
490 10.8233
495 10.473
500 10.13
505 9.23855
510 8.77057
515 8.04905
520 7.32437
525 6.80438
530 6.1936
535 5.72309
540 5.10657
545 4.35074
550 4.10002
555 3.61253
560 3.33589
565 2.97656
570 2.58749
575 2.17677
580 1.6463
585 1.38861
590 1.19786
595 0.966949
600 0.814094
Ex : 388
200 0.213533
205 0.217087
210 0.182606
215 0.192332
220 0.203364
225 0.217891
230 0.20083
235 0.204817
240 0.240924
245 0.232166
250 0.175602
255 0.201691
260 0.216993
265 0.201641
270 0.240069
275 0.199434
280 0.267846
285 0.183907
290 0.175428
295 0.173299
300 0.249992
305 0.207629
310 0.300968
315 0.25501
320 0.199662
325 0.337527
330 0.360717
335 0.213454
340 0.302944
345 0.285816
350 0.312156
355 0.312568
360 0.410577
365 0.556439
370 0.922072
375 16.9437
380 296.024
385 500.191
390 144.974
395 30.5265
400 16.27
405 15.7385
410 19.8116
415 22.1313
420 21.5927
425 19.519
430 19.6315
435 21.2064
440 20.6891
445 19.5433
450 17.2177
455 15.5165
460 14.2182
465 13.6537
470 13.9779
475 13.4648
480 13.0279
485 12.0286
490 11.3506
495 10.9402
500 10.1327
505 9.69689
510 8.9957
515 8.13118
520 7.53486
525 7.09601
530 6.4431
535 5.79316
540 5.23594
545 4.5918
550 4.32507
555 3.86501
560 3.32479
565 2.96916
570 2.46897
575 2.09989
580 1.674
585 1.34179
590 1.12696
595 0.919245
600 1.27155
Ex : 393
200 0.224837
205 0.229451
210 0.179325
215 0.170009
220 0.185293
225 0.219935
230 0.253321
235 0.177658
240 0.187663
245 0.190853
250 0.137465
255 0.195348
260 0.176248
265 0.198689
270 0.246851
275 0.169405
280 0.192334
285 0.199314
290 0.186991
295 0.201039
300 0.188694
305 0.19833
310 0.235088
315 0.201415
320 0.225004
325 0.255658
330 0.245095
335 0.223787
340 0.251028
345 0.265706
350 0.275417
355 0.296578
360 0.326191
365 0.388843
370 0.495455
375 0.900432
380 15.2069
385 301.71
390 521.927
395 156.546
400 32.0588
405 16.5581
410 18.1353
415 23.0494
420 22.4893
425 19.4769
430 17.369
435 18.1631
440 21.0232
445 20.454
450 18.0248
455 15.2723
460 13.9281
465 13.2236
470 13.5611
475 13.2111
480 12.6681
485 12.1332
490 11.6024
495 10.8516
500 10.3548
505 9.97086
510 9.36147
515 8.47576
520 7.65512
525 7.10964
530 6.34636
535 5.6842
540 5.24632
545 4.85778
550 4.44552
555 3.86432
560 3.51408
565 3.09984
570 2.61903
575 2.01904
580 1.87796
585 1.39694
590 1.15761
595 0.978471
600 0.949387
Ex : 398
200 0.160535
205 0.234079
210 0.160679
215 0.173778
220 0.174089
225 0.204117
230 0.167806
235 0.234653
240 0.202071
245 0.187935
250 0.189916
255 0.169875
260 0.179149
265 0.189799
270 0.199409
275 0.165819
280 0.202379
285 0.204252
290 0.213834
295 0.18772
300 0.189269
305 0.1824
310 0.232753
315 0.224328
320 0.203047
325 0.170368
330 0.22969
335 0.163208
340 0.247049
345 0.294538
350 0.277156
355 0.249356
360 0.252531
365 0.316795
370 0.39594
375 0.558187
380 1.01854
385 17.334
390 323.618
395 558.018
400 155.116
405 25.8905
410 12.09
415 14.2163
420 14.7805
425 13.1873
430 11.2484
435 11.2526
440 12.961
445 15.2854
450 14.4982
455 12.5368
460 11.3629
465 11.251
470 11.0928
475 11.3277
480 10.8108
485 10.5873
490 10.5212
495 10.2738
500 9.81853
505 9.56793
510 8.95977
515 8.21231
520 7.75383
525 7.01816
530 6.3016
535 5.99688
540 5.50724
545 5.00329
550 4.38775
555 3.90543
560 3.40042
565 3.0484
570 2.50022
575 2.16589
580 1.73133
585 1.41603
590 1.0837
595 0.917424
600 1.1246
Ex : 403
200 0.217005
205 0.178027
210 0.209959
215 0.160203
220 0.226598
225 0.200625
230 0.153881
235 0.237824
240 0.227167
245 0.18344
250 0.206011
255 0.208366
260 0.203229
265 0.243464
270 0.22007
275 0.204263
280 0.217786
285 0.168191
290 0.277563
295 0.211974
300 0.19504
305 0.236267
310 0.208589
315 0.22303
320 0.17506
325 0.269371
330 0.181822
335 0.228321
340 0.246069
345 0.23567
350 0.209967
355 0.274795
360 0.259036
365 0.293398
370 0.362836
375 0.431222
380 0.602646
385 1.16285
390 18.6642
395 319.115
400 534.641
405 146.162
410 22.2476
415 8.91285
420 8.24617
425 7.79288
430 7.29302
435 7.65331
440 7.84954
445 9.1174
450 11.3774
455 11.7634
460 10.2737
465 10.3336
470 10.0632
475 10.0461
480 10.495
485 9.99483
490 9.99229
495 10.2739
500 9.98316
505 9.25823
510 8.85367
515 8.14977
520 7.65723
525 6.95771
530 6.36044
535 6.0463
540 5.41084
545 4.9012
550 4.52654
555 3.92733
560 3.7638
565 3.1419
570 2.72773
575 2.16405
580 1.80978
585 1.37158
590 1.24054
595 1.04364
600 0.888441
Ex : 408
200 0.201181
205 0.1947
210 0.1477
215 0.200968
220 0.175957
225 0.188883
230 0.171703
235 0.200179
240 0.219738
245 0.209853
250 0.19943
255 0.175997
260 0.228516
265 0.145911
270 0.167957
275 0.172745
280 0.168442
285 0.196982
290 0.194902
295 0.193106
300 0.233513
305 0.143962
310 0.199006
315 0.170163
320 0.188585
325 0.145549
330 0.179807
335 0.159144
340 0.220218
345 0.199735
350 0.189491
355 0.236441
360 0.219973
365 0.298177
370 0.278082
375 0.331948
380 0.379799
385 0.636105
390 1.02326
395 17.6246
400 336.753
405 553.764
410 147.373
415 22.9031
420 8.55441
425 6.85195
430 6.79119
435 7.29299
440 8.17669
445 8.19275
450 8.89927
455 10.7324
460 11.968
465 10.9751
470 11.1708
475 10.7802
480 10.676
485 10.3908
490 10.3205
495 10.0578
500 10.1317
505 9.61827
510 9.00287
515 8.42473
520 7.71135
525 7.12882
530 6.46171
535 5.84807
540 5.45064
545 4.90553
550 4.46848
555 4.03009
560 3.5829
565 3.11985
570 2.65535
575 2.05071
580 1.70358
585 1.41443
590 1.07785
595 0.963566
600 0.426369
Ex : 413
200 0.201059
205 0.187352
210 0.175508
215 0.206805
220 0.171594
225 0.167965
230 0.174897
235 0.16158
240 0.19939
245 0.169647
250 0.199511
255 0.155911
260 0.202109
265 0.228953
270 0.279265
275 0.198815
280 0.172231
285 0.170464
290 0.174279
295 0.159506
300 0.185798
305 0.260716
310 0.213631
315 0.16895
320 0.219327
325 0.211
330 0.180307
335 0.154514
340 0.173054
345 0.243523
350 0.232188
355 0.241363
360 0.245329
365 0.29141
370 0.244214
375 0.293179
380 0.405778
385 0.448521
390 0.725398
395 1.00323
400 19.7803
405 347.166
410 559.847
415 148.677
420 22.9718
425 7.82052
430 6.22795
435 6.91585
440 7.35111
445 7.64731
450 7.71886
455 8.12982
460 9.22779
465 11.5745
470 11.5546
475 10.9914
480 10.5488
485 10.3772
490 9.73062
495 9.57909
500 9.45728
505 9.20184
510 8.86275
515 8.52184
520 7.66859
525 6.91468
530 6.66479
535 6.03202
540 5.50321
545 4.808
550 4.57841
555 4.1383
560 3.60365
565 3.29164
570 2.81868
575 2.17996
580 1.72479
585 1.28195
590 0.995023
595 0.91015
600 1.133
Ex : 418
200 0.2
205 0.205238
210 0.187637
215 0.117876
220 0.178358
225 0.153082
230 0.164692
235 0.190935
240 0.194018
245 0.217547
250 0.222149
255 0.192863
260 0.219344
265 0.158958
270 0.251941
275 0.186548
280 0.199746
285 0.200196
290 0.155353
295 0.207715
300 0.171042
305 0.173965
310 0.169132
315 0.161763
320 0.174522
325 0.210391
330 0.171796
335 0.189191
340 0.216055
345 0.20363
350 0.205591
355 0.226119
360 0.203833
365 0.270326
370 0.263444
375 0.249271
380 0.335415
385 0.341014
390 0.390699
395 0.628249
400 1.01387
405 19.2829
410 357.595
415 591.069
420 157.435
425 21.6968
430 6.10686
435 4.44244
440 5.26756
445 5.35597
450 5.45722
455 5.50239
460 6.09729
465 7.57047
470 10.3469
475 10.8566
480 9.66728
485 9.76519
490 9.05064
495 9.12381
500 8.78957
505 8.69963
510 8.3451
515 7.94781
520 7.50546
525 6.72383
530 6.33745
535 5.73909
540 5.30636
545 4.87627
550 4.3432
555 4.03523
560 3.40146
565 2.98466
570 2.66531
575 2.06495
580 1.76657
585 1.33693
590 1.08223
595 0.903443
600 0.666223
Ex : 423
200 0.146112
205 0.180562
210 0.164623
215 0.185447
220 0.117256
225 0.168469
230 0.165068
235 0.195007
240 0.210063
245 0.198088
250 0.142123
255 0.14902
260 0.161949
265 0.179748
270 0.182052
275 0.193587
280 0.203586
285 0.227016
290 0.243175
295 0.187791
300 0.205455
305 0.202115
310 0.20101
315 0.15441
320 0.189941
325 0.193608
330 0.25313
335 0.222927
340 0.212417
345 0.232889
350 0.252962
355 0.242454
360 0.250727
365 0.226259
370 0.254994
375 0.228736
380 0.307178
385 0.304156
390 0.340878
395 0.448689
400 0.651393
405 1.00818
410 20.2253
415 371.666
420 584.228
425 148.038
430 19.537
435 4.57597
440 3.17524
445 3.67082
450 3.94948
455 3.9408
460 4.51871
465 5.13449
470 6.19792
475 8.76119
480 9.9204
485 9.32537
490 8.88272
495 8.72462
500 8.25733
505 8.24246
510 7.56606
515 7.10574
520 6.68757
525 6.33289
530 5.86806
535 5.59707
540 5.17917
545 4.64525
550 4.04622
555 3.72259
560 3.3918
565 2.84066
570 2.42797
575 1.95065
580 1.6495
585 1.23988
590 1.09435
595 0.790843
600 0.511161
Ex : 428
200 0.19885
205 0.152959
210 0.191755
215 0.237794
220 0.226481
225 0.198663
230 0.245949
235 0.252682
240 0.150254
245 0.209216
250 0.152313
255 0.15304
260 0.146041
265 0.178457
270 0.167001
275 0.188103
280 0.230955
285 0.235508
290 0.184828
295 0.224444
300 0.229391
305 0.195111
310 0.179048
315 0.201285
320 0.160357
325 0.231499
330 0.256721
335 0.237474
340 0.254742
345 0.220979
350 0.230007
355 0.232135
360 0.275748
365 0.243519
370 0.292583
375 0.213164
380 0.287787
385 0.254104
390 0.358149
395 0.352713
400 0.457497
405 0.643412
410 1.0016
415 22.4666
420 374.24
425 595.558
430 155.98
435 20.0254
440 4.23682
445 2.72729
450 3.14529
455 3.56143
460 3.85137
465 4.42344
470 5.14993
475 6.06622
480 8.11246
485 9.76351
490 9.02174
495 8.31971
500 7.81566
505 7.36439
510 6.8696
515 6.59724
520 6.18375
525 6.02198
530 5.50817
535 5.04228
540 4.89517
545 4.2634
550 3.80297
555 3.62773
560 3.01516
565 2.79211
570 2.35593
575 1.90644
580 1.64978
585 1.18129
590 1.02256
595 0.920785
600 0.650138
Ex : 433
200 0.172934
205 0.155392
210 0.204123
215 0.122226
220 0.196316
225 0.222167
230 0.186245
235 0.162591
240 0.171331
245 0.193793
250 0.131433
255 0.22963
260 0.222616
265 0.224159
270 0.19653
275 0.185327
280 0.185334
285 0.157407
290 0.21451
295 0.203777
300 0.166663
305 0.18102
310 0.18941
315 0.207288
320 0.205417
325 0.185008
330 0.204448
335 0.204028
340 0.199236
345 0.175404
350 0.241727
355 0.200306
360 0.209909
365 0.232612
370 0.288911
375 0.200404
380 0.256695
385 0.307941
390 0.308861
395 0.323546
400 0.307423
405 0.410853
410 0.56802
415 1.01482
420 25.0073
425 406.444
430 617.208
435 156.761
440 20.0645
445 4.38046
450 2.56119
455 3.14116
460 3.78758
465 4.12188
470 4.66471
475 5.20818
480 5.56036
485 7.15636
490 8.94761
495 8.6657
500 7.78666
505 7.34422
510 6.8342
515 6.12282
520 5.8757
525 5.71681
530 5.20382
535 4.74496
540 4.27172
545 4.04423
550 3.60417
555 3.26917
560 2.94957
565 2.58425
570 2.17685
575 1.87467
580 1.47283
585 1.14892
590 1.00826
595 0.794695
600 0.729465
Ex : 438
200 0.235514
205 0.229408
210 0.284466
215 0.183507
220 0.171772
225 0.208912
230 0.231933
235 0.233919
240 0.15956
245 0.239046
250 0.263462
255 0.234171
260 0.225779
265 0.179252
270 0.194847
275 0.22484
280 0.202941
285 0.26148
290 0.187523
295 0.242462
300 0.187423
305 0.195144
310 0.225256
315 0.175336
320 0.216412
325 0.170155
330 0.224841
335 0.20039
340 0.264709
345 0.239702
350 0.243908
355 0.254843
360 0.25612
365 0.241519
370 0.257683
375 0.212767
380 0.263288
385 0.323167
390 0.29179
395 0.260348
400 0.353606
405 0.411623
410 0.478399
415 0.691142
420 1.04232
425 23.6079
430 412.964
435 663.353
440 168.381
445 21.4355
450 4.52312
455 2.98531
460 3.35888
465 4.04659
470 4.1961
475 4.53606
480 5.02408
485 5.48135
490 6.25822
495 8.00229
500 8.26939
505 6.9481
510 6.55333
515 6.01109
520 5.5377
525 5.05933
530 4.52207
535 4.38743
540 4.01633
545 3.66122
550 3.30006
555 2.93166
560 2.92016
565 2.37514
570 2.24729
575 1.79041
580 1.33683
585 1.16107
590 0.935196
595 0.782251
600 0.939415
Ex : 443
200 0.236148
205 0.169806
210 0.210855
215 0.229408
220 0.207291
225 0.225032
230 0.191484
235 0.256583
240 0.253255
245 0.189973
250 0.230864
255 0.183054
260 0.228256
265 0.206846
270 0.190453
275 0.202563
280 0.16372
285 0.215389
290 0.184861
295 0.235637
300 0.231207
305 0.166594
310 0.192504
315 0.238434
320 0.205291
325 0.176694
330 0.246904
335 0.169656
340 0.22493
345 0.201473
350 0.243707
355 0.232839
360 0.18452
365 0.197479
370 0.273029
375 0.262379
380 0.207532
385 0.238948
390 0.283585
395 0.311577
400 0.305706
405 0.347944
410 0.367714
415 0.485561
420 0.751548
425 0.963863
430 26.1782
435 442.308
440 677.079
445 168.68
450 21.7185
455 4.84065
460 2.94148
465 3.462
470 3.83162
475 4.33846
480 4.40751
485 4.60667
490 4.98427
495 5.77137
500 6.76002
505 7.5171
510 6.32744
515 5.48395
520 5.15184
525 4.94011
530 4.09479
535 3.73709
540 3.71637
545 3.50986
550 3.04701
555 2.64902
560 2.44278
565 2.17362
570 1.88108
575 1.56153
580 1.25472
585 1.06515
590 0.94551
595 0.701578
600 0.160401
Ex : 448
200 0.190946
205 0.200871
210 0.156618
215 0.203731
220 0.212588
225 0.228062
230 0.264571
235 0.216312
240 0.230917
245 0.272489
250 0.201934
255 0.200234
260 0.210162
265 0.231291
270 0.187755
275 0.261946
280 0.203328
285 0.157303
290 0.24734
295 0.223343
300 0.220091
305 0.223604
310 0.212855
315 0.216511
320 0.258064
325 0.163318
330 0.277986
335 0.239248
340 0.1903
345 0.276479
350 0.255649
355 0.263251
360 0.240237
365 0.200688
370 0.273689
375 0.302179
380 0.258266
385 0.308289
390 0.277556
395 0.298391
400 0.32188
405 0.321547
410 0.398652
415 0.43863
420 0.462239
425 0.635105
430 1.01152
435 28.028
440 470.722
445 733.525
450 183.66
455 23.5838
460 5.21181
465 3.26678
470 3.42276
475 3.99107
480 3.90969
485 4.05846
490 4.33131
495 4.29236
500 4.54646
505 5.28088
510 6.57866
515 5.97626
520 4.9322
525 4.4486
530 4.02603
535 3.46646
540 3.12212
545 2.98706
550 2.7785
555 2.41442
560 2.33092
565 1.91885
570 1.76113
575 1.37948
580 1.22917
585 0.983408
590 0.768614
595 0.728605
600 1.0851
Ex : 453
200 0.245496
205 0.170612
210 0.234211
215 0.172328
220 0.215604
225 0.190618
230 0.173048
235 0.230839
240 0.167535
245 0.190184
250 0.256617
255 0.181519
260 0.196497
265 0.212078
270 0.2004
275 0.286473
280 0.191077
285 0.20411
290 0.216503
295 0.208025
300 0.164034
305 0.258251
310 0.174954
315 0.180525
320 0.210666
325 0.218245
330 0.191868
335 0.189707
340 0.157125
345 0.247647
350 0.29756
355 0.191526
360 0.239094
365 0.275307
370 0.188478
375 0.221821
380 0.203311
385 0.199602
390 0.263716
395 0.254351
400 0.281282
405 0.270061
410 0.346912
415 0.367088
420 0.369692
425 0.498387
430 0.675875
435 0.9774
440 28.9099
445 502.572
450 732.327
455 172.502
460 22.1502
465 4.90188
470 2.9389
475 3.13586
480 3.71873
485 3.67467
490 3.56574
495 3.4334
500 3.78363
505 3.86883
510 4.11123
515 5.42315
520 5.07936
525 3.99887
530 3.75251
535 3.50419
540 2.91222
545 2.62874
550 2.45516
555 2.18741
560 2.00011
565 1.67946
570 1.57327
575 1.39808
580 1.01952
585 0.90422
590 0.846134
595 0.670747
600 0.455726
Ex : 458
200 0.188979
205 0.19485
210 0.182344
215 0.157245
220 0.163224
225 0.16026
230 0.173553
235 0.191232
240 0.20605
245 0.190508
250 0.214173
255 0.214588
260 0.233062
265 0.203776
270 0.168327
275 0.206169
280 0.286635
285 0.207272
290 0.188952
295 0.180155
300 0.189412
305 0.159126
310 0.201016
315 0.256123
320 0.208121
325 0.204887
330 0.168972
335 0.213224
340 0.239932
345 0.239549
350 0.240534
355 0.281364
360 0.247353
365 0.241103
370 0.224875
375 0.275964
380 0.25313
385 0.1936
390 0.202537
395 0.271165
400 0.302263
405 0.296759
410 0.319742
415 0.387308
420 0.386268
425 0.370327
430 0.506065
435 0.697765
440 1.07865
445 33.0997
450 540.283
455 798.61
460 192.164
465 24.4608
470 5.18819
475 2.85024
480 2.97659
485 3.17052
490 3.32795
495 2.97133
500 3.02498
505 3.17637
510 2.85763
515 3.23777
520 4.36404
525 4.90649
530 3.96502
535 3.10926
540 3.02105
545 2.55025
550 2.15431
555 1.90461
560 1.68496
565 1.54168
570 1.36822
575 1.08854
580 1.03388
585 0.816049
590 0.599923
595 0.596673
600 0.55926
Ex : 463
200 0.187161
205 0.195423
210 0.193813
215 0.226316
220 0.182707
225 0.207931
230 0.168967
235 0.147782
240 0.155837
245 0.20984
250 0.197072
255 0.248923
260 0.229591
265 0.20488
270 0.241161
275 0.188279
280 0.175348
285 0.143331
290 0.261388
295 0.239125
300 0.219339
305 0.171158
310 0.169631
315 0.168566
320 0.1727
325 0.21198
330 0.202014
335 0.242136
340 0.239855
345 0.220187
350 0.194748
355 0.191891
360 0.221739
365 0.217243
370 0.247617
375 0.173417
380 0.241335
385 0.238679
390 0.277521
395 0.241613
400 0.281769
405 0.280107
410 0.32152
415 0.278639
420 0.258174
425 0.369949
430 0.441264
435 0.533407
440 0.652247
445 1.14202
450 31.5933
455 541.071
460 815.058
465 195.802
470 24.6256
475 5.15035
480 2.76159
485 2.50549
490 2.79982
495 2.85238
500 2.67626
505 2.38896
510 2.3404
515 2.37243
520 2.51888
525 3.28016
530 4.2191
535 3.71705
540 2.65034
545 2.49765
550 2.23298
555 1.89749
560 1.59761
565 1.48939
570 1.20515
575 1.12811
580 0.851699
585 0.753717
590 0.626476
595 0.618266
600 0.162782
Ex : 468
200 0.147644
205 0.208326
210 0.181112
215 0.157189
220 0.216495
225 0.191637
230 0.168415
235 0.238712
240 0.18011
245 0.163699
250 0.16718
255 0.202397
260 0.181784
265 0.161456
270 0.184782
275 0.195844
280 0.184876
285 0.189836
290 0.153388
295 0.200493
300 0.165462
305 0.197734
310 0.165546
315 0.206905
320 0.149828
325 0.183985
330 0.228231
335 0.248374
340 0.219137
345 0.206793
350 0.176086
355 0.23878
360 0.186245
365 0.248527
370 0.187461
375 0.222389
380 0.220193
385 0.190985
390 0.297213
395 0.234971
400 0.300855
405 0.280941
410 0.311597
415 0.316553
420 0.289517
425 0.313926
430 0.372395
435 0.430143
440 0.457501
445 0.72775
450 1.08652
455 34.1091
460 538.29
465 845.326
470 202.783
475 25.2543
480 5.0265
485 2.3777
490 2.24097
495 2.41775
500 2.41057
505 2.21597
510 2.09592
515 2.01947
520 1.98982
525 2.17178
530 2.3892
535 3.56449
540 3.60099
545 2.47125
550 2.0959
555 2.04299
560 1.62129
565 1.41066
570 1.18808
575 0.980298
580 0.864066
585 0.74525
590 0.724027
595 0.542523
600 0.442926
Ex : 473
200 0.221057
205 0.239353
210 0.178179
215 0.166817
220 0.230728
225 0.202682
230 0.210381
235 0.185102
240 0.226974
245 0.186957
250 0.214045
255 0.204057
260 0.24426
265 0.156672
270 0.178169
275 0.181301
280 0.152785
285 0.150871
290 0.160215
295 0.207417
300 0.165136
305 0.153513
310 0.186297
315 0.234343
320 0.204408
325 0.224592
330 0.180143
335 0.176359
340 0.213182
345 0.140622
350 0.249792
355 0.267641
360 0.22005
365 0.222722
370 0.251507
375 0.269791
380 0.238695
385 0.198312
390 0.212663
395 0.247845
400 0.235261
405 0.292515
410 0.244792
415 0.253748
420 0.30915
425 0.290161
430 0.383449
435 0.326142
440 0.438775
445 0.583657
450 0.761425
455 1.12497
460 40.4417
465 587.161
470 814.203
475 188.127
480 23.5651
485 4.71842
490 2.12638
495 1.91404
500 2.19191
505 2.09271
510 2.01018
515 1.82879
520 1.8885
525 1.83978
530 1.91234
535 1.9302
540 2.82319
545 3.25493
550 2.53926
555 1.95655
560 1.7028
565 1.51232
570 1.28567
575 0.961124
580 0.910641
585 0.728663
590 0.598972
595 0.603934
600 0.582202
Ex : 478
200 0.218464
205 0.23046
210 0.239833
215 0.205396
220 0.210406
225 0.320557
230 0.292035
235 0.236271
240 0.208603
245 0.203269
250 0.236035
255 0.259505
260 0.256501
265 0.209821
270 0.176085
275 0.196677
280 0.256713
285 0.235216
290 0.217609
295 0.245616
300 0.228221
305 0.255772
310 0.212654
315 0.208947
320 0.233166
325 0.183712
330 0.221354
335 0.285665
340 0.213491
345 0.225927
350 0.339048
355 0.261301
360 0.257519
365 0.225428
370 0.282852
375 0.194045
380 0.244798
385 0.276587
390 0.314293
395 0.295433
400 0.278907
405 0.220108
410 0.320047
415 0.316389
420 0.337324
425 0.308946
430 0.324226
435 0.387387
440 0.425163
445 0.458851
450 0.53496
455 0.869149
460 1.42226
465 41.5137
470 600.988
475 840.711
480 206.272
485 25.6672
490 4.6406
495 2.21068
500 1.82481
505 1.96281
510 1.76295
515 1.8438
520 1.7231
525 1.79069
530 1.71702
535 1.73329
540 1.83117
545 2.31977
550 3.02069
555 2.64857
560 1.92315
565 1.55102
570 1.42941
575 1.02373
580 0.899197
585 0.658773
590 0.658424
595 0.592656
600 0.897279
Ex : 483
200 0.172402
205 0.178441
210 0.190202
215 0.187766
220 0.218699
225 0.263854
230 0.259785
235 0.241287
240 0.217043
245 0.21741
250 0.264675
255 0.313015
260 0.227434
265 0.225174
270 0.276908
275 0.26286
280 0.198859
285 0.24122
290 0.156392
295 0.197357
300 0.234244
305 0.23871
310 0.27766
315 0.200554
320 0.241809
325 0.242784
330 0.268196
335 0.265232
340 0.21404
345 0.34264
350 0.274379
355 0.260263
360 0.275839
365 0.214721
370 0.217834
375 0.223654
380 0.28353
385 0.21226
390 0.278005
395 0.258473
400 0.333624
405 0.319635
410 0.289052
415 0.284383
420 0.328735
425 0.313342
430 0.332986
435 0.411236
440 0.347683
445 0.388471
450 0.478655
455 0.634967
460 0.863008
465 1.37273
470 33.3206
475 590.18
480 889.869
485 214.208
490 26.4215
495 4.70246
500 1.97434
505 1.60499
510 1.68922
515 1.91093
520 1.85655
525 1.7293
530 1.59334
535 1.55923
540 1.58349
545 1.70196
550 1.68346
555 2.35083
560 2.65862
565 1.90407
570 1.47249
575 1.25016
580 1.00739
585 0.747054
590 0.650273
595 0.594115
600 0.581978
Ex : 488
200 0.217807
205 0.236801
210 0.222208
215 0.273595
220 0.255176
225 0.279503
230 0.18105
235 0.234942
240 0.247751
245 0.193749
250 0.252721
255 0.265398
260 0.213956
265 0.207401
270 0.181107
275 0.241521
280 0.276763
285 0.237713
290 0.28519
295 0.255425
300 0.266941
305 0.264522
310 0.303899
315 0.211922
320 0.19799
325 0.238855
330 0.337174
335 0.282625
340 0.216486
345 0.239964
350 0.311268
355 0.25305
360 0.308654
365 0.266368
370 0.296313
375 0.228118
380 0.329734
385 0.265123
390 0.293494
395 0.257316
400 0.236693
405 0.257702
410 0.307988
415 0.252171
420 0.348959
425 0.340264
430 0.371016
435 0.342427
440 0.429968
445 0.44253
450 0.444309
455 0.554531
460 0.632124
465 0.969962
470 1.47543
475 39.7772
480 626.001
485 872.349
490 205.521
495 25.5808
500 4.46239
505 2.04088
510 1.41751
515 1.61838
520 1.80643
525 1.81946
530 1.82741
535 1.56088
540 1.4578
545 1.4905
550 1.45851
555 1.44629
560 2.18303
565 2.55791
570 1.88205
575 1.28635
580 0.928632
585 0.914445
590 0.667724
595 0.616986
600 0.719406
Ex : 493
200 0.167929
205 0.288806
210 0.27719
215 0.237263
220 0.172209
225 0.236214
230 0.254886
235 0.271766
240 0.21206
245 0.271977
250 0.285646
255 0.20726
260 0.207536
265 0.214622
270 0.231359
275 0.279354
280 0.301811
285 0.187023
290 0.243568
295 0.225419
300 0.241066
305 0.208625
310 0.262743
315 0.231238
320 0.181444
325 0.241935
330 0.260674
335 0.310245
340 0.235449
345 0.300216
350 0.229422
355 0.258546
360 0.306574
365 0.229685
370 0.309651
375 0.26475
380 0.27003
385 0.210983
390 0.256736
395 0.271181
400 0.270183
405 0.304301
410 0.280343
415 0.286856
420 0.331634
425 0.339946
430 0.320368
435 0.298206
440 0.353014
445 0.376298
450 0.412691
455 0.458539
460 0.597874
465 0.729244
470 0.956242
475 1.26927
480 36.7421
485 615.455
490 906.595
495 209.467
500 25.5808
505 4.55479
510 2.00145
515 1.58229
520 1.59589
525 1.8149
530 1.85778
535 1.72774
540 1.57538
545 1.49241
550 1.38265
555 1.32764
560 1.30529
565 1.38513
570 1.94087
575 1.76898
580 1.25053
585 0.896454
590 0.783148
595 0.672669
600 0.65207
Ex : 498
200 0.169085
205 0.196105
210 0.218922
215 0.28773
220 0.269682
225 0.268243
230 0.268263
235 0.273011
240 0.263661
245 0.302224
250 0.220853
255 0.219859
260 0.26868
265 0.309621
270 0.351478
275 0.277901
280 0.255632
285 0.242607
290 0.263479
295 0.367999
300 0.272373
305 0.249454
310 0.255506
315 0.317733
320 0.2589
325 0.312335
330 0.285227
335 0.332286
340 0.212856
345 0.300812
350 0.364456
355 0.361719
360 0.27396
365 0.266962
370 0.342467
375 0.28837
380 0.276138
385 0.256888
390 0.241512
395 0.259484
400 0.269171
405 0.310721
410 0.250701
415 0.316583
420 0.310582
425 0.368878
430 0.381899
435 0.319726
440 0.352872
445 0.385637
450 0.399334
455 0.372576
460 0.471478
465 0.568628
470 0.7606
475 0.936208
480 1.19001
485 44.3898
490 642.714
495 871.588
500 200.864
505 24.5042
510 4.40748
515 1.99658
520 1.51982
525 1.55521
530 1.73925
535 1.61061
540 1.63916
545 1.45838
550 1.37212
555 1.35246
560 1.21611
565 1.16463
570 1.22514
575 1.79868
580 1.66656
585 1.17608
590 0.844191
595 0.707781
600 0.821528
Ex : 503
200 0.313031
205 0.268274
210 0.270657
215 0.235939
220 0.198232
225 0.223835
230 0.270415
235 0.242983
240 0.267397
245 0.267891
250 0.331116
255 0.259658
260 0.303478
265 0.274826
270 0.289422
275 0.274412
280 0.226961
285 0.287046
290 0.26234
295 0.19714
300 0.228545
305 0.278721
310 0.245359
315 0.292331
320 0.307922
325 0.216301
330 0.239321
335 0.297155
340 0.317499
345 0.285512
350 0.290212
355 0.425351
360 0.362685
365 0.297468
370 0.277844
375 0.307182
380 0.424974
385 0.420378
390 0.324581
395 0.291607
400 0.297942
405 0.275354
410 0.29599
415 0.338944
420 0.38241
425 0.323853
430 0.365368
435 0.338312
440 0.344616
445 0.358855
450 0.365549
455 0.40453
460 0.405085
465 0.547131
470 0.72478
475 0.751749
480 0.904553
485 1.34833
490 39.6049
495 636.029
500 887.909
505 202.542
510 24.9757
515 4.41045
520 1.92426
525 1.69009
530 1.58106
535 1.79583
540 1.65677
545 1.58657
550 1.4001
555 1.38456
560 1.32092
565 1.15159
570 1.01801
575 0.982927
580 1.30353
585 1.36989
590 1.09941
595 0.808857
600 0.333377
Ex : 508
200 0.294709
205 0.256732
210 0.26553
215 0.189593
220 0.275181
225 0.291853
230 0.207298
235 0.266622
240 0.307697
245 0.200571
250 0.231737
255 0.299079
260 0.338305
265 0.264137
270 0.288949
275 0.285241
280 0.274501
285 0.317651
290 0.265802
295 0.287263
300 0.273404
305 0.269173
310 0.29277
315 0.312166
320 0.282437
325 0.325638
330 0.262967
335 0.323498
340 0.349123
345 0.275723
350 0.230054
355 0.304347
360 0.274962
365 0.325183
370 0.342334
375 0.285119
380 0.373225
385 0.313398
390 0.334906
395 0.294525
400 0.363149
405 0.449184
410 0.297643
415 0.280457
420 0.301123
425 0.311978
430 0.392438
435 0.347898
440 0.275721
445 0.349231
450 0.482892
455 0.381736
460 0.393683
465 0.420433
470 0.509549
475 0.655588
480 0.65597
485 0.977215
490 1.50784
495 43.2106
500 643.821
505 914.299
510 218.492
515 26.8332
520 4.70985
525 2.1314
530 1.4732
535 1.52612
540 1.67848
545 1.57296
550 1.5215
555 1.34851
560 1.30296
565 1.18792
570 0.993172
575 0.998832
580 0.78137
585 0.933577
590 1.13841
595 0.988786
600 1.51396
Ex : 513
200 0.237038
205 0.343246
210 0.422928
215 0.352634
220 0.329121
225 0.266121
230 0.297876
235 0.315114
240 0.32894
245 0.250255
250 0.270702
255 0.283848
260 0.258295
265 0.268828
270 0.327577
275 0.279429
280 0.255168
285 0.311933
290 0.340277
295 0.251771
300 0.271464
305 0.261782
310 0.36204
315 0.348972
320 0.288578
325 0.328878
330 0.341629
335 0.328127
340 0.328929
345 0.293272
350 0.288467
355 0.312914
360 0.33704
365 0.328344
370 0.290768
375 0.325002
380 0.333993
385 0.329092
390 0.308864
395 0.271125
400 0.265553
405 0.290582
410 0.351746
415 0.392107
420 0.340157
425 0.368701
430 0.310648
435 0.325532
440 0.418461
445 0.346082
450 0.372025
455 0.468251
460 0.466907
465 0.42558
470 0.395235
475 0.48249
480 0.670555
485 0.777237
490 1.00924
495 1.4508
500 40.0725
505 628.864
510 910.758
515 220.166
520 27.0052
525 4.62327
530 1.91987
535 1.46619
540 1.38599
545 1.51404
550 1.45918
555 1.55844
560 1.25619
565 1.14211
570 0.95379
575 0.922365
580 0.861347
585 0.612532
590 0.612288
595 0.882468
600 1.03305
Ex : 518
200 0.324939
205 0.318974
210 0.252159
215 0.370357
220 0.31983
225 0.245996
230 0.301408
235 0.274647
240 0.309163
245 0.273055
250 0.273029
255 0.315809
260 0.283721
265 0.283578
270 0.292869
275 0.275236
280 0.241661
285 0.229736
290 0.242608
295 0.311613
300 0.258022
305 0.290922
310 0.282864
315 0.355584
320 0.297374
325 0.278217
330 0.309814
335 0.285048
340 0.255894
345 0.289799
350 0.338483
355 0.256429
360 0.246492
365 0.339408
370 0.281551
375 0.303728
380 0.310246
385 0.284897
390 0.350799
395 0.322244
400 0.355974
405 0.362433
410 0.366612
415 0.342864
420 0.308798
425 0.347033
430 0.460089
435 0.427712
440 0.405527
445 0.426038
450 0.504143
455 0.487868
460 0.507994
465 0.514012
470 0.438161
475 0.539603
480 0.40429
485 0.633532
490 0.670894
495 0.967535
500 1.41012
505 41.4236
510 668.445
515 999.866
520 236.922
525 29.0206
530 4.84641
535 1.97294
540 1.59734
545 1.50252
550 1.46786
555 1.55846
560 1.3492
565 1.25038
570 0.98095
575 0.774592
580 1.023
585 0.837269
590 0.657126
595 0.643135
600 0.564074
Ex : 523
200 0.32236
205 0.295578
210 0.410903
215 0.294372
220 0.261438
225 0.228445
230 0.285523
235 0.272558
240 0.230466
245 0.264989
250 0.260279
255 0.254639
260 0.279937
265 0.249761
270 0.29148
275 0.274443
280 0.313794
285 0.234418
290 0.304562
295 0.277003
300 0.303508
305 0.294694
310 0.280698
315 0.29468
320 0.347342
325 0.266703
330 0.311095
335 0.31676
340 0.406099
345 0.357839
350 0.306367
355 0.257593
360 0.2954
365 0.285244
370 0.362297
375 0.335628
380 0.393471
385 0.369767
390 0.363683
395 0.325159
400 0.287083
405 0.349347
410 0.380941
415 0.352102
420 0.316081
425 0.288925
430 0.333312
435 0.371635
440 0.364527
445 0.410259
450 0.424264
455 0.328716
460 0.368391
465 0.401781
470 0.509755
475 0.478701
480 0.439118
485 0.624689
490 0.596162
495 0.737762
500 1.01149
505 1.40027
510 35.4208
515 585.864
520 879.445
525 222.73
530 27.3733
535 4.69004
540 2.05172
545 1.46523
550 1.47847
555 1.38167
560 1.40346
565 1.26637
570 1.07802
575 0.931126
580 0.805723
585 0.765341
590 0.633348
595 0.572089
600 0.625761
Ex : 528
200 0.223363
205 0.277371
210 0.323166
215 0.34843
220 0.273934
225 0.284707
230 0.329466
235 0.218031
240 0.30119
245 0.330852
250 0.285352
255 0.268482
260 0.380381
265 0.303285
270 0.326081
275 0.398635
280 0.318877
285 0.299816
290 0.352174
295 0.325142
300 0.278009
305 0.289437
310 0.293851
315 0.262187
320 0.430436
325 0.201734
330 0.285333
335 0.225046
340 0.387661
345 0.312718
350 0.368786
355 0.30111
360 0.320307
365 0.321031
370 0.247823
375 0.230838
380 0.309177
385 0.308843
390 0.323579
395 0.272929
400 0.374919
405 0.334882
410 0.349886
415 0.397347
420 0.392578
425 0.42271
430 0.30986
435 0.35576
440 0.393216
445 0.362593
450 0.345261
455 0.427184
460 0.389
465 0.473467
470 0.415309
475 0.490086
480 0.461336
485 0.598904
490 0.639858
495 0.590043
500 0.744067
505 0.889508
510 1.44674
515 33.4814
520 586.04
525 898.211
530 225.235
535 27.8058
540 4.74819
545 2.01127
550 1.5563
555 1.35139
560 1.20067
565 1.16939
570 1.04733
575 1.14993
580 0.924056
585 0.722757
590 0.557312
595 0.599086
600 0.572628
Ex : 533
200 0.347331
205 0.261104
210 0.28493
215 0.276119
220 0.287527
225 0.313839
230 0.238337
235 0.257864
240 0.395124
245 0.237592
250 0.282802
255 0.339965
260 0.335575
265 0.274776
270 0.26885
275 0.322268
280 0.318553
285 0.268079
290 0.410552
295 0.31711
300 0.375063
305 0.314079
310 0.428354
315 0.301359
320 0.286414
325 0.334695
330 0.330507
335 0.328621
340 0.426522
345 0.31156
350 0.298544
355 0.34904
360 0.305546
365 0.338366
370 0.310391
375 0.309015
380 0.342472
385 0.25018
390 0.378051
395 0.303058
400 0.397967
405 0.443004
410 0.320141
415 0.436718
420 0.369311
425 0.518578
430 0.42706
435 0.347803
440 0.353587
445 0.505229
450 0.430326
455 0.490527
460 0.383146
465 0.425932
470 0.429231
475 0.420361
480 0.498757
485 0.418403
490 0.505369
495 0.589414
500 0.651831
505 0.716184
510 0.860402
515 1.29896
520 33.6033
525 559.221
530 848.801
535 218.434
540 26.8923
545 4.37834
550 1.84042
555 1.34635
560 1.21467
565 1.04594
570 1.05944
575 1.19079
580 0.900642
585 0.761696
590 0.742572
595 0.505015
600 0.395751
Ex : 538
200 0.297956
205 0.294002
210 0.294049
215 0.362434
220 0.342755
225 0.299245
230 0.352887
235 0.275712
240 0.259849
245 0.331893
250 0.281192
255 0.206986
260 0.317263
265 0.291113
270 0.284684
275 0.292947
280 0.316523
285 0.325604
290 0.342571
295 0.361915
300 0.361626
305 0.452377
310 0.352576
315 0.354905
320 0.342539
325 0.28785
330 0.352603
335 0.334937
340 0.317018
345 0.417324
350 0.370303
355 0.330981
360 0.25337
365 0.367411
370 0.369628
375 0.338837
380 0.353184
385 0.346854
390 0.393149
395 0.368632
400 0.351879
405 0.317692
410 0.331866
415 0.336698
420 0.420287
425 0.421506
430 0.435702
435 0.343614
440 0.368921
445 0.39929
450 0.393422
455 0.41141
460 0.424313
465 0.57565
470 0.443875
475 0.392723
480 0.448595
485 0.397773
490 0.531875
495 0.542912
500 0.573121
505 0.56737
510 0.710294
515 0.907546
520 1.29675
525 28.3873
530 530.962
535 860.6
540 229.242
545 28.1716
550 4.53018
555 1.78789
560 1.24228
565 0.974412
570 0.808587
575 0.941726
580 0.880752
585 0.775289
590 0.762631
595 0.649442
600 0.0838058
Ex : 543
200 0.386608
205 0.423106
210 0.404375
215 0.312179
220 0.364035
225 0.499774
230 0.365924
235 0.34295
240 0.325337
245 0.316534
250 0.30625
255 0.326097
260 0.4388
265 0.415815
270 0.368175
275 0.364065
280 0.323677
285 0.324949
290 0.289922
295 0.342018
300 0.329895
305 0.386032
310 0.397098
315 0.472493
320 0.500483
325 0.359098
330 0.250783
335 0.316672
340 0.334379
345 0.401131
350 0.285653
355 0.310623
360 0.433265
365 0.297948
370 0.356051
375 0.341308
380 0.365845
385 0.293249
390 0.332671
395 0.400785
400 0.361721
405 0.381175
410 0.347465
415 0.357169
420 0.435225
425 0.391281
430 0.427681
435 0.426857
440 0.394258
445 0.381925
450 0.504786
455 0.424425
460 0.41839
465 0.445175
470 0.553336
475 0.410195
480 0.621685
485 0.493761
490 0.353559
495 0.45796
500 0.549592
505 0.541255
510 0.687515
515 0.771761
520 0.986055
525 1.30414
530 28.8577
535 520.299
540 851.032
545 232.056
550 28.5032
555 4.37102
560 1.53137
565 1.18921
570 0.946426
575 0.798391
580 0.743992
585 0.924174
590 0.737239
595 0.580449
600 0.276338
Ex : 548
200 0.343358
205 0.320533
210 0.441587
215 0.389772
220 0.418532
225 0.396525
230 0.401356
235 0.419183
240 0.431648
245 0.396495
250 0.319321
255 0.254012
260 0.302187
265 0.343664
270 0.356932
275 0.325371
280 0.296472
285 0.287115
290 0.314025
295 0.32084
300 0.357889
305 0.391083
310 0.332738
315 0.343619
320 0.381361
325 0.430592
330 0.367395
335 0.292709
340 0.290523
345 0.316023
350 0.3398
355 0.30729
360 0.356504
365 0.362161
370 0.412179
375 0.397146
380 0.312858
385 0.350457
390 0.416309
395 0.333609
400 0.350589
405 0.337329
410 0.377551
415 0.32975
420 0.436607
425 0.43681
430 0.358385
435 0.36393
440 0.394112
445 0.504933
450 0.432306
455 0.449711
460 0.312806
465 0.52752
470 0.439105
475 0.375604
480 0.42424
485 0.441952
490 0.4924
495 0.440725
500 0.549888
505 0.499115
510 0.610613
515 0.648292
520 0.828729
525 0.899606
530 1.32838
535 29.706
540 506.969
545 822.432
550 223.936
555 27.2812
560 4.30727
565 1.43777
570 0.954844
575 0.760333
580 0.744149
585 0.715347
590 0.681238
595 0.603788
600 0.586957
Ex : 553
200 0.370222
205 0.353038
210 0.388061
215 0.329002
220 0.359915
225 0.253371
230 0.295027
235 0.257208
240 0.312029
245 0.35375
250 0.340681
255 0.42828
260 0.40728
265 0.299821
270 0.2932
275 0.279568
280 0.401065
285 0.313707
290 0.344193
295 0.367278
300 0.373324
305 0.352877
310 0.287728
315 0.430473
320 0.419192
325 0.312152
330 0.375664
335 0.391894
340 0.432718
345 0.367399
350 0.398521
355 0.431802
360 0.390556
365 0.395661
370 0.340299
375 0.371162
380 0.483803
385 0.384373
390 0.310556
395 0.398603
400 0.371856
405 0.440866
410 0.476618
415 0.49606
420 0.514813
425 0.464951
430 0.373854
435 0.394081
440 0.388671
445 0.409602
450 0.40504
455 0.390053
460 0.37436
465 0.368262
470 0.481943
475 0.446451
480 0.40587
485 0.471667
490 0.457981
495 0.43517
500 0.457539
505 0.466136
510 0.584356
515 0.572936
520 0.686748
525 0.753188
530 0.833481
535 1.26188
540 24.5392
545 481.748
550 822.783
555 229.722
560 28.0549
565 4.30154
570 1.46637
575 1.01998
580 0.7912
585 0.617705
590 0.608555
595 0.632446
600 0.14582
Ex : 558
200 0.432257
205 0.302258
210 0.27741
215 0.418779
220 0.413353
225 0.325304
230 0.351705
235 0.353956
240 0.296642
245 0.360052
250 0.3245
255 0.280374
260 0.342782
265 0.392247
270 0.397119
275 0.281995
280 0.347103
285 0.449345
290 0.425985
295 0.314944
300 0.305376
305 0.375659
310 0.404645
315 0.40898
320 0.33851
325 0.305745
330 0.386063
335 0.394527
340 0.3816
345 0.412665
350 0.410115
355 0.418828
360 0.26964
365 0.401478
370 0.318314
375 0.395484
380 0.352285
385 0.445421
390 0.31543
395 0.338343
400 0.37648
405 0.368526
410 0.342143
415 0.360402
420 0.339666
425 0.476084
430 0.410307
435 0.478668
440 0.391491
445 0.387483
450 0.293853
455 0.372255
460 0.387884
465 0.442938
470 0.373068
475 0.425357
480 0.52238
485 0.507043
490 0.46133
495 0.557151
500 0.491989
505 0.461375
510 0.420855
515 0.494287
520 0.670443
525 0.622793
530 0.748416
535 0.930585
540 1.29645
545 22.2416
550 443.101
555 789.923
560 223.636
565 27.3091
570 4.00488
575 1.19842
580 0.905155
585 0.632151
590 0.586137
595 0.633465
600 0.314278
Ex : 563
200 0.347252
205 0.434667
210 0.324157
215 0.429227
220 0.481607
225 0.462288
230 0.431746
235 0.376668
240 0.40048
245 0.384898
250 0.281631
255 0.344065
260 0.259452
265 0.406879
270 0.383522
275 0.426467
280 0.394969
285 0.341072
290 0.479396
295 0.454004
300 0.429935
305 0.378399
310 0.391246
315 0.364355
320 0.379499
325 0.375478
330 0.302158
335 0.327339
340 0.270411
345 0.378466
350 0.36965
355 0.482996
360 0.423921
365 0.349681
370 0.415654
375 0.339453
380 0.352552
385 0.399718
390 0.459374
395 0.452668
400 0.497129
405 0.470576
410 0.412445
415 0.434274
420 0.443121
425 0.386786
430 0.550613
435 0.354748
440 0.42956
445 0.385903
450 0.399126
455 0.388054
460 0.506568
465 0.397648
470 0.61448
475 0.357358
480 0.418965
485 0.406175
490 0.336154
495 0.441221
500 0.435273
505 0.395899
510 0.488698
515 0.4975
520 0.502217
525 0.663371
530 0.721011
535 0.897166
540 0.767223
545 1.23992
550 21.8216
555 430.704
560 754.038
565 218.969
570 26.7668
575 3.9687
580 1.17486
585 0.812636
590 0.658212
595 0.660159
600 0.108777
Ex : 568
200 0.262642
205 0.275814
210 0.357912
215 0.423452
220 0.383031
225 0.376943
230 0.283795
235 0.353053
240 0.391891
245 0.450568
250 0.390554
255 0.396438
260 0.44449
265 0.404811
270 0.407765
275 0.365687
280 0.37983
285 0.326591
290 0.334975
295 0.351364
300 0.353993
305 0.293043
310 0.462674
315 0.320044
320 0.329681
325 0.523716
330 0.351334
335 0.369449
340 0.56653
345 0.483589
350 0.46469
355 0.477334
360 0.393424
365 0.346397
370 0.403165
375 0.445683
380 0.372909
385 0.449633
390 0.418454
395 0.360076
400 0.363397
405 0.396817
410 0.470104
415 0.47398
420 0.423944
425 0.336755
430 0.44887
435 0.301719
440 0.329224
445 0.418824
450 0.414892
455 0.489267
460 0.393424
465 0.496421
470 0.423582
475 0.513158
480 0.456062
485 0.421441
490 0.464123
495 0.551384
500 0.489722
505 0.399001
510 0.451553
515 0.423082
520 0.523932
525 0.54569
530 0.547145
535 0.559036
540 0.636354
545 0.827433
550 1.22392
555 17.0559
560 391.591
565 730.699
570 220.037
575 26.9816
580 4.00844
585 1.14884
590 0.826353
595 0.588776
600 0.54825
Ex : 573
200 0.383738
205 0.41453
210 0.331668
215 0.429392
220 0.511086
225 0.400119
230 0.448996
235 0.321774
240 0.287628
245 0.31899
250 0.340892
255 0.407671
260 0.414763
265 0.447527
270 0.406448
275 0.33639
280 0.41509
285 0.464154
290 0.381419
295 0.314782
300 0.303582
305 0.303259
310 0.321325
315 0.42112
320 0.383836
325 0.426626
330 0.309677
335 0.362474
340 0.332198
345 0.40356
350 0.394085
355 0.478787
360 0.362629
365 0.382335
370 0.501643
375 0.448693
380 0.432176
385 0.375706
390 0.380198
395 0.34707
400 0.384226
405 0.382596
410 0.364325
415 0.389388
420 0.340191
425 0.328677
430 0.389487
435 0.520671
440 0.504445
445 0.58927
450 0.440157
455 0.481988
460 0.385517
465 0.542675
470 0.586859
475 0.613684
480 0.579658
485 0.56752
490 0.478153
495 0.383193
500 0.508234
505 0.57997
510 0.528853
515 0.535352
520 0.505746
525 0.635593
530 0.575056
535 0.596702
540 0.602738
545 0.70307
550 0.890209
555 1.05417
560 15.5901
565 345.332
570 682.333
575 210.613
580 25.7625
585 3.78709
590 1.26433
595 0.579999
600 0.595897
Ex : 578
200 0.357688
205 0.406394
210 0.323822
215 0.353996
220 0.368655
225 0.452215
230 0.586151
235 0.370615
240 0.501557
245 0.324721
250 0.363277
255 0.384176
260 0.35547
265 0.423798
270 0.39753
275 0.410835
280 0.455655
285 0.410753
290 0.329708
295 0.282939
300 0.32497
305 0.333072
310 0.451827
315 0.302752
320 0.265435
325 0.438927
330 0.424955
335 0.464966
340 0.47946
345 0.324693
350 0.36544
355 0.463637
360 0.406297
365 0.507156
370 0.341221
375 0.527688
380 0.342271
385 0.411149
390 0.362161
395 0.398546
400 0.401495
405 0.440261
410 0.344021
415 0.450648
420 0.387965
425 0.417241
430 0.342931
435 0.467001
440 0.40572
445 0.388671
450 0.395897
455 0.529644
460 0.420703
465 0.387316
470 0.355611
475 0.402527
480 0.426582
485 0.425718
490 0.389361
495 0.435063
500 0.4383
505 0.622032
510 0.639525
515 0.571754
520 0.517458
525 0.449192
530 0.557349
535 0.574535
540 0.617407
545 0.541972
550 0.632648
555 0.834961
560 1.01421
565 13.3214
570 319.929
575 619.886
580 188.146
585 22.7827
590 3.24334
595 1.03974
600 0.589704
Ex : 583
200 0.412034
205 0.404588
210 0.403479
215 0.407655
220 0.327525
225 0.269528
230 0.44855
235 0.330985
240 0.349364
245 0.300915
250 0.37924
255 0.346099
260 0.453617
265 0.483227
270 0.533297
275 0.334544
280 0.323306
285 0.39005
290 0.442576
295 0.425654
300 0.388702
305 0.404552
310 0.453742
315 0.423548
320 0.461466
325 0.484292
330 0.394758
335 0.426812
340 0.445318
345 0.352433
350 0.455807
355 0.426831
360 0.551195
365 0.556994
370 0.362976
375 0.352944
380 0.518966
385 0.583557
390 0.614408
395 0.377543
400 0.38063
405 0.324716
410 0.430769
415 0.375765
420 0.389576
425 0.355869
430 0.331427
435 0.461043
440 0.512289
445 0.455263
450 0.394353
455 0.378564
460 0.369975
465 0.528104
470 0.475874
475 0.567682
480 0.473699
485 0.439582
490 0.452398
495 0.515705
500 0.419995
505 0.342688
510 0.529017
515 0.42987
520 0.430786
525 0.543757
530 0.454503
535 0.402907
540 0.480338
545 0.619009
550 0.548235
555 0.709599
560 0.852216
565 0.929898
570 11.4135
575 271.412
580 503.906
585 148.935
590 18.1619
595 2.79406
600 0.739057
Ex : 588
200 0.37817
205 0.476972
210 0.505823
215 0.438307
220 0.418029
225 0.393652
230 0.464184
235 0.516257
240 0.325221
245 0.386407
250 0.357195
255 0.307308
260 0.384796
265 0.407126
270 0.341209
275 0.423908
280 0.356819
285 0.422716
290 0.477059
295 0.437927
300 0.386447
305 0.392453
310 0.385847
315 0.443218
320 0.406639
325 0.400787
330 0.384003
335 0.361637
340 0.398376
345 0.55028
350 0.437046
355 0.421368
360 0.409865
365 0.425725
370 0.543221
375 0.537866
380 0.393553
385 0.483865
390 0.4339
395 0.431458
400 0.400971
405 0.483292
410 0.488447
415 0.435004
420 0.350016
425 0.501809
430 0.46297
435 0.46323
440 0.503892
445 0.348547
450 0.393048
455 0.34207
460 0.431426
465 0.474472
470 0.381926
475 0.469645
480 0.430061
485 0.375955
490 0.472737
495 0.459448
500 0.395239
505 0.649669
510 0.462396
515 0.525073
520 0.491319
525 0.495939
530 0.472753
535 0.565562
540 0.552975
545 0.56174
550 0.44341
555 0.54694
560 0.48868
565 0.651803
570 0.997093
575 10.4131
580 233.488
585 438.93
590 133.372
595 16.2256
600 2.45241
Ex : 593
200 0.338013
205 0.448969
210 0.464204
215 0.425379
220 0.473647
225 0.359926
230 0.450885
235 0.510116
240 0.337998
245 0.395104
250 0.357344
255 0.298828
260 0.423745
265 0.370716
270 0.338024
275 0.418734
280 0.40698
285 0.361909
290 0.326182
295 0.419879
300 0.416581
305 0.373341
310 0.300776
315 0.35962
320 0.38259
325 0.379429
330 0.489493
335 0.47351
340 0.405145
345 0.381825
350 0.459591
355 0.49915
360 0.474914
365 0.29205
370 0.454353
375 0.498661
380 0.411391
385 0.429643
390 0.425241
395 0.409419
400 0.35154
405 0.40901
410 0.394409
415 0.361207
420 0.430915
425 0.431946
430 0.438952
435 0.320977
440 0.403829
445 0.441064
450 0.457122
455 0.606694
460 0.507627
465 0.483262
470 0.510718
475 0.368771
480 0.616999
485 0.390499
490 0.490654
495 0.485222
500 0.588802
505 0.35401
510 0.42319
515 0.50104
520 0.529004
525 0.518903
530 0.414757
535 0.487515
540 0.314806
545 0.424558
550 0.537355
555 0.496437
560 0.479461
565 0.538836
570 0.678616
575 0.871365
580 9.18234
585 205.653
590 381.224
595 114.687
600 16.4064
Ex : 598
200 0.5047
205 0.432106
210 0.587027
215 0.386805
220 0.371605
225 0.445294
230 0.418902
235 0.59189
240 0.395623
245 0.424897
250 0.405909
255 0.408377
260 0.312195
265 0.375307
270 0.476047
275 0.331443
280 0.454643
285 0.409343
290 0.417267
295 0.383268
300 0.260322
305 0.36363
310 0.344523
315 0.419375
320 0.353429
325 0.383831
330 0.373641
335 0.367667
340 0.327502
345 0.533328
350 0.432714
355 0.405987
360 0.376992
365 0.430303
370 0.423393
375 0.583653
380 0.402877
385 0.481816
390 0.374842
395 0.494247
400 0.423907
405 0.35951
410 0.363605
415 0.402735
420 0.477156
425 0.351749
430 0.554405
435 0.449211
440 0.363917
445 0.604589
450 0.557716
455 0.466037
460 0.433081
465 0.465228
470 0.418313
475 0.463831
480 0.526655
485 0.440495
490 0.504842
495 0.411072
500 0.503864
505 0.525692
510 0.394225
515 0.516276
520 0.44766
525 0.389542
530 0.460756
535 0.468599
540 0.437203
545 0.502804
550 0.522323
555 0.487386
560 0.478888
565 0.480489
570 0.776942
575 0.741756
580 0.873948
585 8.19429
590 184.046
595 335.033
600 222.372
Ex : 603
200 0.330567
205 0.503532
210 0.352701
215 0.499323
220 0.462708
225 0.323043
230 0.550202
235 0.498302
240 0.383089
245 0.423957
250 0.388638
255 0.391648
260 0.328317
265 0.470852
270 0.433255
275 0.372065
280 0.379703
285 0.651475
290 0.454861
295 0.382059
300 0.449989
305 0.463411
310 0.45719
315 0.491605
320 0.522215
325 0.351503
330 0.401675
335 0.410239
340 0.381898
345 0.331007
350 0.383079
355 0.340303
360 0.34522
365 0.422673
370 0.41923
375 0.386241
380 0.333628
385 0.297854
390 0.441166
395 0.472638
400 0.431795
405 0.49994
410 0.477426
415 0.488311
420 0.442553
425 0.45391
430 0.464342
435 0.483421
440 0.505897
445 0.448442
450 0.394536
455 0.386572
460 0.383285
465 0.432406
470 0.408512
475 0.545681
480 0.570562
485 0.491097
490 0.533928
495 0.470202
500 0.480844
505 0.377362
510 0.348995
515 0.554063
520 0.514329
525 0.513611
530 0.464475
535 0.506324
540 0.678014
545 0.594821
550 0.547081
555 0.599284
560 0.495562
565 0.663637
570 0.518174
575 0.593232
580 0.555213
585 0.75965
590 7.90297
595 160.673
600 322.296
