File format V 1.0
ven. 6. janv. 13:13:01 2017
Operator : 
Comments : 

=============================================
SpectroFluorometer parameters
Mode : 3D measurement
Data : Fluorescence
Phospho. : Ordinary
Spectrum : Fluorescence

Scan speed : 2400 nm/mn
Response : 100 ms
PM Voltage : 700 V
Shutter : On

Lambda Ex. Start : 203
Lambda Ex. End : 603
Lambda Ex. Step : 5
Ex. Slit : 5 nm

Lambda Em. Start : 200
Lambda Em. End : 600
Lambda Em. Step : 5
Em. Slit : 5 nm

Repetition : 1
Decal lambda em : 10
=============================================
DATA
Ex : 203
200 15.4574
205 9.08802
210 13.8841
215 11.0922
220 10.0546
225 9.805
230 12.7549
235 11.0018
240 11.1346
245 12.8713
250 8.51792
255 10.5197
260 9.34135
265 8.24759
270 10.7347
275 9.94346
280 6.97493
285 9.82342
290 12.7733
295 11.0534
300 10.3979
305 10.7217
310 8.98592
315 9.33468
320 12.2606
325 12.0079
330 9.75374
335 7.89736
340 8.55861
345 8.77497
350 15.4923
355 8.91385
360 10.8432
365 9.6813
370 9.31305
375 8.0134
380 13.2127
385 14.1027
390 11.6157
395 10.1839
400 7.68277
405 11.6174
410 8.89273
415 11.0462
420 12.0164
425 9.61428
430 9.43358
435 8.57215
440 12.7858
445 11.5084
450 10.4984
455 8.44437
460 9.85973
465 13.5051
470 9.05066
475 10.7782
480 9.36162
485 11.073
490 9.85787
495 12.9883
500 11.4771
505 11.8235
510 8.4351
515 9.49564
520 10.2026
525 11.4972
530 11.9347
535 11.619
540 12.7784
545 11.868
550 13.05
555 7.91412
560 8.90275
565 11.7839
570 11.5014
575 11.0927
580 9.38654
585 9.05689
590 12.6248
595 10.6338
600 6.17283
Ex : 208
200 10.5981
205 9.34052
210 11.2143
215 9.03945
220 8.80308
225 10.8021
230 7.97102
235 9.99469
240 9.7153
245 9.61631
250 10.1889
255 12.0522
260 11.2922
265 13.4746
270 10.8604
275 12.6282
280 14.5722
285 9.96278
290 9.42748
295 11.9787
300 9.35063
305 8.34155
310 9.58094
315 11.7367
320 11.3202
325 9.05184
330 15.729
335 10.6064
340 8.83884
345 10.883
350 12.0788
355 9.67685
360 9.67882
365 10.5888
370 13.0112
375 13.0421
380 9.73501
385 11.5514
390 8.47357
395 13.7079
400 8.43986
405 7.23458
410 12.0213
415 10.5189
420 9.32189
425 12.0328
430 16.4742
435 12.6302
440 11.2812
445 8.31402
450 11.1271
455 9.08129
460 12.7788
465 9.69066
470 9.07462
475 13.6483
480 9.38261
485 10.6563
490 8.38472
495 9.70967
500 8.33241
505 7.93213
510 11.7072
515 10.5287
520 7.84257
525 10.3295
530 10.108
535 9.76133
540 11.8359
545 9.74531
550 14.6801
555 10.8675
560 9.84024
565 11.501
570 9.41775
575 11.8374
580 8.9044
585 9.40805
590 8.45419
595 8.57851
600 0.976201
Ex : 213
200 9.52055
205 7.82626
210 11.5535
215 9.87361
220 11.5833
225 12.2886
230 11.1627
235 9.63106
240 9.37683
245 12.4228
250 11.8985
255 8.00874
260 9.71649
265 7.68205
270 9.11067
275 14.7729
280 11.0885
285 8.89555
290 8.86263
295 8.85599
300 7.98358
305 8.89258
310 10.8639
315 10.5828
320 7.65569
325 8.79536
330 12.1109
335 11.8884
340 10.1593
345 10.7336
350 12.0764
355 9.88015
360 9.49125
365 12.8409
370 11.0433
375 13.3358
380 10.3044
385 12.2501
390 9.94977
395 11.3764
400 8.95884
405 9.15718
410 10.114
415 12.2782
420 10.0535
425 11.5649
430 8.27115
435 10.0987
440 11.3365
445 10.5066
450 10.0706
455 8.2928
460 8.78598
465 9.39744
470 9.75978
475 8.87888
480 12.1837
485 8.48434
490 8.72079
495 9.09061
500 11.2683
505 9.26614
510 10.5988
515 11.5396
520 11.3027
525 8.48612
530 11.5754
535 11.6035
540 9.11509
545 13.1543
550 10.3875
555 8.08806
560 12.7861
565 10.8165
570 9.64568
575 9.36328
580 9.49504
585 9.04385
590 10.5898
595 11.9771
600 14.9514
Ex : 218
200 12.4
205 9.88237
210 10.0934
215 10.1541
220 8.42081
225 8.48905
230 13.4984
235 9.42918
240 7.43826
245 8.76457
250 11.5762
255 7.10748
260 8.54189
265 7.1631
270 10.4118
275 8.56308
280 11.2382
285 10.5781
290 9.42127
295 9.09931
300 9.49202
305 8.48865
310 7.05912
315 9.12537
320 12.4701
325 12.6034
330 12.3995
335 14.8648
340 9.37456
345 11.7737
350 12.79
355 10.969
360 11.37
365 11.3589
370 14.285
375 8.4894
380 12.4867
385 13.1269
390 9.5804
395 10.9286
400 8.17572
405 13.3741
410 12.961
415 9.80445
420 11.1751
425 15.6725
430 13.8753
435 9.09982
440 12.3346
445 10.0226
450 13.395
455 11.1983
460 11.4258
465 9.92986
470 7.20226
475 13.3326
480 11.465
485 9.9335
490 8.81083
495 10.5959
500 12.6097
505 12.5528
510 10.5741
515 10.0256
520 8.39618
525 9.91037
530 9.59366
535 11.4571
540 8.18731
545 11.0481
550 11.368
555 11.0541
560 9.45326
565 9.29212
570 12.4986
575 10.5784
580 11.0249
585 8.54713
590 9.46474
595 8.73894
600 1.73296
Ex : 223
200 7.88496
205 11.7122
210 13.6027
215 14.6953
220 11.2701
225 8.94487
230 13.2902
235 9.52777
240 13.2951
245 6.74922
250 8.04403
255 7.68533
260 8.52919
265 11.4599
270 8.49567
275 10.6611
280 9.9654
285 8.64214
290 8.8534
295 9.2979
300 8.99469
305 10.1341
310 8.73912
315 9.33925
320 10.0312
325 14.5724
330 14.4723
335 8.23874
340 8.36983
345 12.1186
350 9.52752
355 9.35679
360 11.5196
365 12.1888
370 11.9226
375 12.4504
380 11.5663
385 8.11996
390 10.1076
395 12.917
400 11.5372
405 9.15923
410 12.2062
415 9.68711
420 12.2756
425 9.79607
430 8.35523
435 8.18551
440 11.9713
445 11.41
450 10.38
455 10.0901
460 10.8348
465 8.25138
470 12.3836
475 9.19309
480 10.0531
485 12.2038
490 12.6984
495 11.2099
500 11.0904
505 10.4848
510 11.3262
515 11.4238
520 9.16887
525 12.3192
530 10.0452
535 8.10966
540 9.26104
545 11.0453
550 10.7098
555 13.3617
560 12.8737
565 12.001
570 11.0497
575 6.88008
580 8.75078
585 9.43869
590 9.09325
595 10.549
600 10.3579
Ex : 228
200 10.7131
205 10.2315
210 8.29804
215 10.0011
220 9.23495
225 7.02314
230 13.1391
235 9.30886
240 9.04729
245 12.3126
250 10.2814
255 8.42387
260 9.62286
265 11.0363
270 10.8894
275 9.55705
280 11.135
285 8.82523
290 8.4732
295 9.66185
300 9.31164
305 10.9107
310 8.42684
315 10.3931
320 9.90279
325 8.65429
330 9.99078
335 8.88664
340 11.2748
345 9.0526
350 8.66268
355 11.0749
360 8.82619
365 12.7273
370 8.58263
375 10.7775
380 10.0646
385 10.3066
390 12.5679
395 10.5592
400 11.271
405 11.4007
410 8.75396
415 11.4678
420 10.0954
425 9.97789
430 10.358
435 9.78866
440 11.033
445 8.94955
450 12.1582
455 9.70358
460 12.9935
465 12.0349
470 12.7496
475 9.93537
480 10.2867
485 9.06519
490 7.15582
495 7.95096
500 11.1199
505 13.3015
510 9.54907
515 9.28772
520 9.13844
525 8.27336
530 11.771
535 12.0351
540 8.18373
545 8.97846
550 9.15834
555 10.523
560 12.3195
565 8.06399
570 7.7237
575 8.66839
580 9.64478
585 12.0525
590 9.84993
595 8.1666
600 8.16666
Ex : 233
200 7.37313
205 10.2192
210 10.5674
215 7.26909
220 9.36383
225 7.62138
230 10.2676
235 8.87129
240 8.58638
245 9.78257
250 9.11076
255 8.70639
260 7.46547
265 10.343
270 8.00815
275 7.57384
280 9.12833
285 7.71181
290 7.65613
295 9.92393
300 9.64041
305 7.86507
310 10.0588
315 9.59962
320 7.26701
325 8.53011
330 12.2237
335 10.1183
340 10.0876
345 8.4695
350 10.6013
355 11.667
360 9.52147
365 9.59845
370 11.2178
375 9.40791
380 9.71107
385 9.17172
390 8.8832
395 11.5712
400 12.4966
405 7.42739
410 9.76908
415 8.74554
420 9.14405
425 8.95804
430 8.42325
435 11.8192
440 9.04992
445 10.7127
450 12.667
455 10.4119
460 9.98993
465 11.2837
470 12.7649
475 12.4106
480 10.1739
485 9.41619
490 9.35467
495 9.17497
500 8.66836
505 12.0357
510 14.9433
515 10.3199
520 10.3176
525 7.7797
530 10.4182
535 9.4701
540 8.2852
545 7.50073
550 9.81964
555 9.20536
560 8.269
565 9.44927
570 9.21992
575 7.9729
580 8.74133
585 10.3194
590 10.5412
595 8.4054
600 15.1358
Ex : 238
200 8.10769
205 8.43595
210 7.94555
215 6.67594
220 8.09162
225 8.74266
230 7.36382
235 8.04217
240 7.50489
245 12.3957
250 7.82992
255 8.03793
260 9.04691
265 6.57313
270 6.47834
275 7.97118
280 7.81553
285 8.23073
290 7.74059
295 9.17272
300 9.06561
305 8.79895
310 6.42563
315 6.83969
320 7.97141
325 9.59256
330 7.83531
335 8.09203
340 8.71332
345 11.6164
350 9.91741
355 11.7763
360 9.30327
365 9.99734
370 11.1432
375 9.91574
380 8.50815
385 8.71402
390 9.06253
395 10.3119
400 10.6595
405 10.0953
410 7.22887
415 8.97635
420 8.41646
425 10.2773
430 9.07897
435 8.72332
440 8.44545
445 8.52711
450 7.09727
455 8.12886
460 7.89893
465 9.2453
470 9.53666
475 10.7302
480 7.77699
485 10.1061
490 9.85008
495 8.51679
500 11.7307
505 10.1175
510 7.98594
515 7.69636
520 8.92058
525 6.40231
530 7.8473
535 7.66796
540 10.1163
545 10.6167
550 9.19412
555 8.40908
560 7.6755
565 9.04585
570 7.37564
575 5.96963
580 8.24116
585 8.03093
590 9.37697
595 8.94771
600 18.1515
Ex : 243
200 8.04319
205 6.54459
210 6.26208
215 6.43157
220 8.34491
225 6.83654
230 7.7427
235 9.9215
240 6.38039
245 8.06806
250 9.08515
255 6.31644
260 7.71357
265 8.38374
270 7.5413
275 7.69761
280 7.50235
285 7.06902
290 5.0139
295 6.94941
300 6.91501
305 9.93358
310 6.22463
315 6.53985
320 7.44126
325 7.24073
330 5.92483
335 7.21894
340 7.70545
345 6.14194
350 7.09513
355 5.67128
360 7.53227
365 6.90778
370 9.2619
375 8.31551
380 7.63087
385 6.41513
390 9.44435
395 10.6673
400 7.03951
405 9.1778
410 9.98387
415 7.87302
420 6.13156
425 9.08493
430 7.71067
435 7.89606
440 7.1998
445 5.94364
450 7.39222
455 8.62208
460 6.89311
465 6.66532
470 8.63748
475 7.92736
480 7.32563
485 8.00643
490 9.71192
495 8.97332
500 5.38421
505 7.89927
510 7.72438
515 6.54448
520 8.44163
525 9.04491
530 6.27705
535 6.43462
540 6.06357
545 6.24756
550 7.8155
555 8.52301
560 9.4412
565 7.90747
570 6.93363
575 5.29868
580 9.46501
585 9.15452
590 7.81825
595 10.9008
600 23.6171
Ex : 248
200 6.93333
205 6.46639
210 6.53085
215 6.85539
220 6.36627
225 7.30877
230 5.9061
235 5.58398
240 7.78125
245 7.14197
250 4.92173
255 5.28894
260 6.80529
265 7.4107
270 6.78816
275 6.21335
280 5.76095
285 8.12388
290 6.21897
295 6.34944
300 8.12361
305 6.01405
310 5.2482
315 5.29703
320 6.97221
325 7.41609
330 7.89831
335 4.17191
340 8.20637
345 6.80925
350 7.30547
355 7.43305
360 7.3089
365 7.48211
370 7.57117
375 4.91576
380 5.55252
385 7.93249
390 6.63462
395 6.01843
400 8.26966
405 6.26346
410 5.1614
415 7.97152
420 6.72569
425 4.89299
430 8.2245
435 10.0475
440 8.57933
445 6.36111
450 8.00163
455 6.88224
460 7.63088
465 7.35506
470 6.95472
475 7.17514
480 5.25742
485 8.0429
490 7.23871
495 9.43702
500 7.82248
505 7.27388
510 6.59051
515 6.6546
520 6.1188
525 6.32087
530 6.70872
535 8.35682
540 9.48984
545 6.14018
550 6.06533
555 5.13124
560 7.7474
565 8.519
570 6.32957
575 5.89744
580 6.75519
585 6.60738
590 5.71765
595 7.63077
600 10.912
Ex : 253
200 4.90361
205 5.25338
210 5.18936
215 4.92355
220 3.74227
225 6.37483
230 6.66847
235 4.87758
240 4.76667
245 5.92184
250 5.36338
255 6.84446
260 6.27587
265 5.7701
270 4.69666
275 3.74535
280 6.47219
285 7.59351
290 6.79634
295 6.6501
300 5.69788
305 5.51286
310 6.12013
315 4.12252
320 4.61837
325 5.13296
330 6.26911
335 6.14277
340 4.25473
345 5.98034
350 5.2719
355 5.40397
360 7.01629
365 5.13709
370 5.09237
375 5.0148
380 4.26175
385 7.16593
390 5.8485
395 5.87527
400 6.70464
405 6.1017
410 6.39377
415 7.07579
420 6.3057
425 6.1407
430 6.35587
435 5.13493
440 7.82828
445 7.49272
450 5.9371
455 7.83089
460 5.65894
465 6.37489
470 6.37691
475 6.02585
480 4.63534
485 5.30499
490 5.44898
495 5.60011
500 5.83532
505 4.52372
510 5.1848
515 5.95781
520 7.32016
525 7.19152
530 4.52609
535 7.97086
540 5.14162
545 5.70731
550 5.15288
555 4.5851
560 5.85587
565 6.38064
570 6.96718
575 4.6654
580 5.58629
585 6.353
590 7.49354
595 8.44211
600 6.54376
Ex : 258
200 4.22763
205 3.87967
210 5.22941
215 6.52803
220 4.28593
225 3.62139
230 4.68768
235 5.3605
240 4.65441
245 3.09965
250 4.41228
255 4.07308
260 4.90328
265 4.77623
270 3.53621
275 3.20048
280 3.22626
285 3.77009
290 4.18542
295 3.91294
300 4.92349
305 5.1946
310 5.16868
315 4.49521
320 3.67245
325 4.11485
330 5.18279
335 5.38707
340 3.51317
345 6.1056
350 4.19086
355 5.45895
360 4.67797
365 4.42918
370 5.28036
375 3.81249
380 3.92469
385 4.61299
390 5.63375
395 4.63169
400 6.21057
405 6.79738
410 5.32719
415 5.41028
420 5.03265
425 4.23135
430 4.67682
435 6.71116
440 5.14291
445 6.202
450 4.74018
455 4.76767
460 6.21074
465 5.04394
470 4.09819
475 5.72204
480 4.23898
485 4.7115
490 4.52407
495 4.18471
500 6.02331
505 3.97371
510 4.57847
515 4.3431
520 4.29825
525 5.18618
530 5.44002
535 4.6479
540 4.3825
545 5.01061
550 5.97707
555 4.52334
560 4.30797
565 4.09785
570 4.13403
575 4.94658
580 4.5264
585 4.70133
590 5.3959
595 4.84014
600 0.69849
Ex : 263
200 3.48352
205 3.93153
210 2.93151
215 2.44992
220 3.09429
225 3.88843
230 3.24485
235 2.96196
240 3.08947
245 2.57483
250 4.2292
255 3.50971
260 3.40232
265 4.08736
270 3.72841
275 4.2207
280 3.40084
285 3.1886
290 2.99751
295 3.52068
300 3.73727
305 3.51578
310 3.32117
315 2.84655
320 2.82464
325 3.96318
330 3.88521
335 3.43936
340 4.03189
345 4.08032
350 3.9057
355 4.08981
360 4.15465
365 3.38849
370 3.1012
375 3.37052
380 3.16483
385 4.86325
390 4.78277
395 4.57117
400 4.25845
405 4.3313
410 4.35014
415 4.10335
420 3.66736
425 4.37637
430 3.79831
435 5.2269
440 4.19166
445 4.16041
450 4.71564
455 4.07862
460 3.65161
465 4.43159
470 4.50093
475 4.45354
480 3.20455
485 4.41404
490 3.87957
495 4.45722
500 5.02727
505 4.73767
510 5.20145
515 4.42264
520 3.87113
525 3.83482
530 4.3924
535 4.05023
540 3.11103
545 3.57633
550 4.11114
555 3.96286
560 4.09378
565 3.9497
570 3.50194
575 3.21426
580 3.86446
585 4.18478
590 3.29583
595 4.10651
600 4.0712
Ex : 268
200 3.1063
205 2.40628
210 2.37606
215 2.44878
220 2.82721
225 3.02022
230 2.18597
235 3.0163
240 2.9257
245 3.69054
250 2.43223
255 2.61985
260 2.39904
265 2.88426
270 3.9345
275 2.43864
280 1.83487
285 3.20042
290 3.01952
295 2.84756
300 2.58095
305 2.50035
310 4.60073
315 1.9253
320 3.5351
325 3.22025
330 3.03863
335 3.36749
340 3.58614
345 3.29764
350 3.08474
355 3.78437
360 3.22353
365 3.62476
370 2.95796
375 4.14063
380 3.40081
385 2.54131
390 2.88145
395 3.89403
400 3.56652
405 3.93048
410 3.09336
415 3.3573
420 3.33718
425 3.22164
430 3.87058
435 3.37036
440 4.30751
445 4.71746
450 3.75888
455 3.94692
460 3.10217
465 3.70464
470 2.80099
475 2.94699
480 3.56164
485 2.95833
490 2.24659
495 2.33878
500 3.57141
505 3.40187
510 2.64007
515 2.97568
520 3.1055
525 2.88218
530 2.91773
535 4.23768
540 2.94466
545 2.70994
550 2.82718
555 2.9384
560 2.63207
565 3.05107
570 3.39868
575 3.01171
580 2.87264
585 3.17902
590 2.26378
595 2.43929
600 0.277582
Ex : 273
200 2.07996
205 2.69431
210 2.44735
215 1.89052
220 2.3148
225 2.26435
230 2.16319
235 2.49349
240 2.76349
245 2.82585
250 3.05502
255 2.88742
260 2.20993
265 2.2902
270 2.04733
275 2.29295
280 2.35725
285 2.23569
290 2.29377
295 2.16312
300 1.98763
305 2.52297
310 2.44203
315 2.75781
320 1.97614
325 2.36585
330 2.23369
335 2.57458
340 2.34057
345 2.01861
350 2.67541
355 2.79183
360 3.17949
365 3.59973
370 2.92326
375 2.78092
380 3.25473
385 3.33164
390 2.51859
395 2.76871
400 2.1468
405 2.42565
410 3.54887
415 2.50414
420 3.05017
425 2.49775
430 2.85749
435 2.78445
440 2.64224
445 3.08718
450 2.23631
455 2.44748
460 3.31251
465 3.41087
470 2.94537
475 2.89645
480 3.24571
485 3.42743
490 2.06948
495 3.6439
500 2.27069
505 2.2218
510 2.39676
515 2.8849
520 2.32814
525 2.5226
530 2.75227
535 3.1218
540 3.43317
545 3.1742
550 2.29955
555 3.05546
560 2.40391
565 2.16152
570 2.28096
575 1.82788
580 2.58681
585 1.57211
590 2.05992
595 2.21049
600 1.63865
Ex : 278
200 1.53518
205 1.61047
210 1.51145
215 1.91737
220 1.28269
225 2.24281
230 1.53133
235 1.56965
240 2.05074
245 2.40921
250 2.34939
255 2.26713
260 1.56712
265 1.70269
270 1.76264
275 1.81841
280 2.0421
285 1.82434
290 2.51384
295 1.96726
300 2.04982
305 1.35763
310 2.1856
315 2.52003
320 2.8546
325 2.57675
330 2.14296
335 2.17993
340 2.51887
345 1.97547
350 1.98596
355 2.30929
360 2.43478
365 2.04651
370 1.66723
375 2.20822
380 2.66269
385 2.14421
390 2.3745
395 2.81888
400 2.52651
405 2.7817
410 2.42834
415 2.47753
420 2.23561
425 2.35272
430 2.62313
435 2.65153
440 1.74614
445 2.45536
450 2.31325
455 2.56103
460 1.9205
465 2.7161
470 2.74803
475 2.27094
480 2.03837
485 1.96024
490 2.37677
495 2.87237
500 2.21629
505 1.83376
510 2.1066
515 1.9476
520 1.86915
525 1.97316
530 2.2641
535 1.61113
540 1.91412
545 2.31657
550 3.1736
555 2.58512
560 2.5233
565 2.24831
570 1.8627
575 1.97688
580 1.75405
585 2.24876
590 2.18699
595 1.76293
600 1.34002
Ex : 283
200 1.21236
205 1.37615
210 1.41838
215 1.41108
220 1.20865
225 1.24057
230 1.35743
235 1.63793
240 1.68742
245 1.16125
250 1.32197
255 1.10893
260 2.05647
265 2.08935
270 1.88161
275 1.89784
280 1.44138
285 1.52116
290 1.5989
295 1.30435
300 1.89899
305 1.74493
310 1.67662
315 1.7312
320 1.21186
325 1.41007
330 1.76979
335 1.83751
340 1.90361
345 1.87396
350 1.69339
355 1.66308
360 1.51918
365 2.23692
370 2.17885
375 1.98408
380 2.49206
385 2.06221
390 1.78104
395 2.19899
400 2.17234
405 2.35171
410 1.96043
415 1.7799
420 1.95749
425 2.09286
430 2.51533
435 2.34783
440 2.34319
445 2.18052
450 2.63617
455 1.79214
460 1.94226
465 2.10334
470 2.71821
475 1.91431
480 2.61369
485 2.08785
490 2.45278
495 1.86028
500 1.70039
505 1.6833
510 1.5221
515 1.66238
520 1.87183
525 1.97783
530 2.25632
535 1.70882
540 2.09857
545 1.67834
550 1.78477
555 1.69684
560 2.57426
565 1.65121
570 1.61272
575 1.53648
580 1.6738
585 1.43514
590 1.39955
595 1.60998
600 0.18321
Ex : 288
200 1.37653
205 1.39378
210 1.59105
215 1.42688
220 1.45543
225 1.2631
230 1.37865
235 1.31445
240 0.992516
245 1.28936
250 1.19491
255 0.965191
260 1.41908
265 1.08488
270 1.21173
275 1.67318
280 1.73567
285 2.03288
290 1.60947
295 1.68657
300 1.31917
305 1.23146
310 1.13029
315 1.05336
320 2.09324
325 1.40216
330 1.23581
335 1.40634
340 1.46514
345 1.29112
350 1.46767
355 2.00313
360 1.90361
365 1.64826
370 1.54343
375 1.6411
380 1.61606
385 1.48696
390 1.91963
395 1.59641
400 1.77673
405 2.12641
410 2.10473
415 1.87342
420 1.7202
425 1.82391
430 1.8422
435 1.95422
440 1.87435
445 1.81458
450 2.01235
455 1.68741
460 1.78279
465 1.96585
470 1.7251
475 1.96611
480 1.77215
485 1.54165
490 1.25305
495 1.54966
500 1.35448
505 1.41285
510 1.34082
515 1.27448
520 1.45659
525 1.40644
530 1.6619
535 1.65456
540 1.47892
545 1.52152
550 1.43115
555 1.44488
560 1.14137
565 1.39024
570 1.72218
575 1.73875
580 1.30783
585 1.42768
590 1.19472
595 1.52584
600 0.173634
Ex : 293
200 1.40409
205 0.936322
210 1.03016
215 1.40824
220 1.04779
225 1.2232
230 1.26427
235 1.21318
240 0.858179
245 1.22584
250 1.14211
255 1.15514
260 1.05033
265 1.11305
270 1.08351
275 1.20748
280 0.981917
285 1.24328
290 1.15307
295 1.08832
300 1.06056
305 0.968478
310 1.08539
315 1.2288
320 1.39945
325 1.25739
330 1.38906
335 1.38841
340 1.38082
345 1.15628
350 1.45465
355 1.86802
360 1.78805
365 1.36732
370 1.82299
375 1.42191
380 1.39181
385 1.27791
390 1.33087
395 1.81102
400 1.62321
405 1.83489
410 1.95862
415 1.44152
420 1.71042
425 2.23286
430 1.42513
435 1.82681
440 1.55816
445 1.3244
450 1.79671
455 1.48661
460 1.55828
465 1.66883
470 1.28082
475 1.26606
480 1.38096
485 1.32175
490 1.5379
495 1.13296
500 1.13038
505 1.09442
510 1.21908
515 1.39052
520 1.45862
525 1.77927
530 1.31136
535 1.15565
540 1.25184
545 1.58314
550 1.14489
555 0.97327
560 1.06812
565 1.08209
570 1.06223
575 1.45926
580 1.50338
585 1.51979
590 1.651
595 1.42161
600 1.12032
Ex : 298
200 1.04543
205 1.0995
210 0.936666
215 0.807119
220 0.947398
225 0.959397
230 0.99186
235 0.856422
240 0.860653
245 0.894674
250 1.13071
255 0.87149
260 0.936164
265 0.869016
270 0.968067
275 1.10661
280 0.988202
285 1.26998
290 1.26018
295 1.30139
300 1.30721
305 0.841986
310 1.30177
315 0.941403
320 1.14804
325 1.36026
330 1.05154
335 1.34108
340 1.19186
345 1.10496
350 1.54212
355 1.45364
360 1.56243
365 1.46947
370 1.56384
375 1.44947
380 1.36801
385 1.27274
390 1.7532
395 1.65204
400 1.6418
405 1.28952
410 1.489
415 1.42734
420 1.28688
425 1.48621
430 1.4165
435 1.33306
440 1.57567
445 1.71939
450 1.49334
455 1.64694
460 1.353
465 1.37395
470 1.19947
475 1.56081
480 1.23106
485 1.22732
490 1.37701
495 1.22992
500 1.29422
505 1.29981
510 1.16908
515 0.891105
520 1.10592
525 0.863199
530 1.05928
535 1.00597
540 1.25841
545 1.32017
550 1.06384
555 0.877483
560 0.9459
565 1.14996
570 1.08778
575 1.16324
580 0.951503
585 1.22184
590 1.43647
595 1.1223
600 0.751338
Ex : 303
200 1.01813
205 0.847941
210 0.794264
215 0.775025
220 0.762407
225 0.655159
230 0.697979
235 1.10158
240 0.724946
245 0.641672
250 0.911031
255 0.859277
260 0.800089
265 0.739423
270 0.705594
275 0.813518
280 1.05193
285 1.02898
290 1.12331
295 1.27322
300 1.3148
305 1.04788
310 0.887984
315 1.00581
320 0.627006
325 0.796701
330 0.833569
335 1.0362
340 1.21288
345 1.06146
350 0.969369
355 0.94476
360 1.47612
365 1.28293
370 1.16364
375 1.19566
380 1.25118
385 1.35763
390 1.50206
395 1.27441
400 1.65016
405 1.43556
410 1.74021
415 1.45477
420 1.6226
425 1.43227
430 1.38721
435 1.33946
440 1.37339
445 1.37953
450 1.14449
455 1.24017
460 1.35991
465 1.103
470 1.32284
475 1.25045
480 1.49445
485 1.36853
490 1.06735
495 1.02454
500 0.885658
505 1.08325
510 1.28867
515 1.08442
520 0.907082
525 1.23768
530 0.687585
535 1.16378
540 0.840589
545 1.11768
550 0.791924
555 0.984437
560 1.00968
565 1.00279
570 1.03709
575 0.915969
580 0.780609
585 0.866444
590 0.807026
595 0.878267
600 2.5647
Ex : 308
200 0.859545
205 0.657458
210 0.621717
215 0.828115
220 0.621746
225 0.674618
230 0.768091
235 0.78203
240 0.690565
245 0.74235
250 0.983378
255 0.766578
260 0.708762
265 1.26363
270 0.685596
275 0.536236
280 0.927604
285 0.955071
290 0.668562
295 0.888065
300 0.842527
305 0.859681
310 0.880711
315 0.72331
320 0.717043
325 1.17403
330 0.999417
335 1.05026
340 0.885818
345 0.968692
350 0.916658
355 1.23672
360 1.33642
365 0.964458
370 1.01047
375 1.25982
380 1.0405
385 1.03233
390 1.58533
395 1.52621
400 1.5938
405 1.25139
410 1.3432
415 1.5736
420 1.28002
425 1.51376
430 1.17512
435 1.2001
440 1.15548
445 1.25903
450 1.50816
455 1.27488
460 1.40865
465 1.41242
470 1.30161
475 1.20724
480 1.1829
485 0.960652
490 1.29878
495 1.06484
500 0.773264
505 1.08655
510 0.96209
515 0.900505
520 0.797721
525 0.98794
530 0.866595
535 0.812895
540 1.21979
545 1.03651
550 1.0876
555 0.689628
560 0.710973
565 0.806707
570 0.952035
575 0.925302
580 0.780485
585 0.81818
590 0.563469
595 0.709978
600 0.321334
Ex : 313
200 0.562409
205 0.809312
210 0.604206
215 0.613139
220 0.596038
225 0.744304
230 0.697983
235 0.966412
240 0.818937
245 0.77835
250 0.533372
255 0.727233
260 0.74961
265 0.529053
270 0.845873
275 0.663791
280 0.684541
285 0.738532
290 0.733268
295 0.648498
300 0.587805
305 0.918054
310 0.894444
315 0.690516
320 0.934025
325 0.798881
330 0.989536
335 0.843114
340 0.818988
345 0.956758
350 0.92199
355 1.2771
360 1.22112
365 1.47463
370 1.71521
375 1.53398
380 1.60782
385 1.80239
390 2.21064
395 1.82947
400 1.94344
405 1.95384
410 1.71044
415 1.94495
420 1.89048
425 1.71464
430 2.05978
435 1.90839
440 1.81787
445 1.95588
450 1.71976
455 1.55895
460 1.64446
465 1.56464
470 1.27857
475 1.41815
480 1.25348
485 1.3449
490 1.14083
495 1.12654
500 1.12798
505 1.08908
510 1.01689
515 0.9632
520 0.923105
525 0.9694
530 0.914129
535 0.862663
540 0.891635
545 0.758142
550 0.794202
555 0.86629
560 0.784008
565 0.834786
570 0.803802
575 0.743159
580 0.580014
585 0.772905
590 0.734671
595 0.517249
600 1.18877
Ex : 318
200 0.619866
205 0.528545
210 0.50069
215 0.506113
220 0.771865
225 0.841027
230 0.775267
235 0.706096
240 0.64554
245 0.595856
250 0.486638
255 0.470641
260 0.645054
265 0.519613
270 0.609783
275 0.564759
280 0.70366
285 0.509032
290 0.540427
295 0.623369
300 0.48243
305 0.676788
310 0.928308
315 1.85261
320 1.38007
325 0.884295
330 1.19303
335 1.35889
340 2.07086
345 2.50261
350 3.2599
355 3.83836
360 4.57302
365 5.83028
370 6.86275
375 7.49082
380 8.66532
385 10.3521
390 10.1448
395 11.5437
400 11.9615
405 12.4883
410 12.1687
415 12.5011
420 12.3271
425 11.1045
430 11.091
435 11.298
440 10.7324
445 10.0227
450 10.3341
455 9.49822
460 8.4516
465 7.95408
470 7.08755
475 7.1365
480 5.94178
485 5.54156
490 4.8566
495 4.23273
500 4.07497
505 3.74169
510 3.33588
515 3.01919
520 2.33529
525 2.55416
530 2.16982
535 2.04893
540 1.46664
545 1.62342
550 1.31049
555 1.32119
560 1.15747
565 1.18073
570 0.819786
575 0.893186
580 0.857151
585 0.782419
590 0.77118
595 0.772699
600 0.345215
Ex : 323
200 0.6306
205 0.449715
210 0.66107
215 0.722264
220 0.457456
225 0.540537
230 0.554077
235 0.469955
240 0.521106
245 0.589284
250 0.55532
255 0.456695
260 0.517763
265 0.629486
270 0.57217
275 0.603954
280 0.549615
285 0.621981
290 0.478429
295 0.510046
300 0.665506
305 0.521411
310 0.43728
315 7.54497
320 33.7623
325 14.5219
330 4.40497
335 3.85303
340 4.77172
345 6.80914
350 9.2861
355 13.4568
360 16.4
365 18.9023
370 22.6756
375 25.3886
380 28.1487
385 32.2266
390 34.8458
395 37.3579
400 38.8385
405 39.912
410 41.6845
415 40.0689
420 40.1977
425 39.0733
430 37.3783
435 37.1169
440 34.8456
445 32.9157
450 31.6272
455 29.3077
460 27.6235
465 24.9698
470 22.8204
475 22.0718
480 19.5584
485 17.3892
490 15.6737
495 13.9938
500 12.3444
505 10.7755
510 9.79712
515 8.39394
520 7.31994
525 6.47007
530 5.78847
535 4.90268
540 4.38296
545 3.84557
550 3.33799
555 3.04671
560 2.60315
565 2.18941
570 1.94317
575 1.77084
580 1.33459
585 1.09784
590 1.06778
595 0.889071
600 0.531615
Ex : 328
200 0.485
205 0.401934
210 0.556917
215 0.494215
220 0.505017
225 0.512577
230 0.427706
235 0.490371
240 0.41413
245 0.4121
250 0.493246
255 0.565257
260 0.401231
265 0.531545
270 0.555856
275 0.577686
280 0.519301
285 0.542888
290 0.43061
295 0.65501
300 0.542749
305 0.51785
310 0.58629
315 2.58629
320 70.9612
325 164.839
330 48.4705
335 9.77761
340 6.56521
345 8.05504
350 10.1879
355 13.4419
360 18.6087
365 20.7899
370 22.8136
375 25.8169
380 29.4245
385 33.2245
390 35.9834
395 38.474
400 40.1607
405 41.7112
410 41.3125
415 41.6587
420 40.8775
425 39.8254
430 38.8694
435 36.4738
440 35.523
445 34.0019
450 32.1697
455 29.7441
460 27.3481
465 25.4109
470 23.7118
475 20.9462
480 19.288
485 17.6639
490 15.7327
495 14.3029
500 12.7469
505 10.989
510 10.1026
515 8.61033
520 8.20191
525 7.29771
530 6.43579
535 5.82669
540 4.99959
545 3.93957
550 3.88482
555 3.34623
560 2.96693
565 2.50064
570 2.20089
575 2.32395
580 1.68632
585 1.46418
590 1.07661
595 1.07467
600 0.603594
Ex : 333
200 0.446017
205 0.455896
210 0.46104
215 0.382532
220 0.344358
225 0.434534
230 0.494442
235 0.458125
240 0.500751
245 0.604744
250 0.493661
255 0.503303
260 0.497292
265 0.416334
270 0.495672
275 0.428713
280 0.436998
285 0.538669
290 0.45095
295 0.413363
300 0.420088
305 0.422986
310 0.668528
315 0.56309
320 10.1193
325 186.091
330 304.02
335 80.4466
340 13.5736
345 7.04213
350 6.6127
355 7.39903
360 10.341
365 15.1692
370 16.1173
375 16.3336
380 17.3071
385 19.9868
390 22.5004
395 24.1862
400 25.0037
405 25.0242
410 26.2939
415 27.5441
420 26.8017
425 24.7055
430 24.1932
435 23.174
440 22.4915
445 21.2605
450 18.8846
455 18.2708
460 17.1956
465 15.6269
470 14.6894
475 13.7806
480 12.4929
485 10.8125
490 10.5992
495 9.83129
500 8.57498
505 7.77235
510 6.47774
515 6.31388
520 5.51174
525 4.85695
530 4.42929
535 3.75115
540 3.69893
545 3.19903
550 3.07656
555 2.62048
560 2.47627
565 2.4346
570 2.01697
575 1.67808
580 1.46851
585 1.387
590 1.28937
595 1.01992
600 0.505992
Ex : 338
200 0.481494
205 0.399893
210 0.401343
215 0.279004
220 0.431441
225 0.554524
230 0.421451
235 0.376373
240 0.463873
245 0.443102
250 0.474883
255 0.365781
260 0.392733
265 0.424845
270 0.440537
275 0.444601
280 0.360943
285 0.377556
290 0.443007
295 0.413336
300 0.406341
305 0.433074
310 0.585787
315 0.682118
320 0.721827
325 17.2374
330 260.81
335 384.757
340 95.9256
345 14.6419
350 5.69402
355 5.01917
360 4.52211
365 6.62414
370 11.0738
375 11.679
380 11.1039
385 12.2807
390 15.1861
395 16.0596
400 15.5799
405 16.19
410 17.2977
415 18.6717
420 17.7027
425 17.5267
430 15.8841
435 15.3375
440 15.4933
445 14.0953
450 13.001
455 12.2284
460 11.7358
465 10.9088
470 10.6511
475 9.98154
480 8.73822
485 8.00285
490 7.46888
495 7.21673
500 6.35223
505 5.94146
510 5.55666
515 4.62891
520 4.25812
525 4.02354
530 3.53529
535 3.24677
540 2.86735
545 2.78305
550 2.43674
555 2.37313
560 2.28871
565 1.89058
570 1.66887
575 1.57948
580 1.30947
585 1.18127
590 1.00518
595 0.851111
600 0.674812
Ex : 343
200 0.506912
205 0.392561
210 0.394015
215 0.332066
220 0.378504
225 0.37917
230 0.463382
235 0.364827
240 0.402619
245 0.338095
250 0.314248
255 0.370113
260 0.442243
265 0.547154
270 0.436726
275 0.483324
280 0.48678
285 0.51644
290 0.434109
295 0.446068
300 0.464
305 0.388114
310 0.512179
315 0.484072
320 0.529499
325 0.774177
330 19.5291
335 302.304
340 436.509
345 106.069
350 15.3203
355 4.72875
360 3.98371
365 3.18008
370 4.55634
375 8.36322
380 10.7897
385 11.7036
390 12.9828
395 13.22
400 12.9176
405 13.5036
410 15.3375
415 16.4254
420 16.1107
425 14.7469
430 13.9872
435 13.7597
440 13.6632
445 13.2317
450 12.0215
455 11.4703
460 10.1552
465 9.66378
470 9.01594
475 8.94262
480 8.36554
485 7.67302
490 7.23408
495 6.73645
500 6.44448
505 5.73078
510 5.2915
515 5.11363
520 4.55268
525 4.02781
530 4.00345
535 3.17607
540 3.32157
545 2.86113
550 2.69172
555 2.49157
560 2.26009
565 2.04683
570 1.6968
575 1.62008
580 1.36455
585 1.04248
590 0.987894
595 0.944926
600 0.65489
Ex : 348
200 0.406474
205 0.368083
210 0.348167
215 0.341195
220 0.469437
225 0.405314
230 0.394605
235 0.411286
240 0.359795
245 0.289221
250 0.425419
255 0.443559
260 0.370068
265 0.450576
270 0.359468
275 0.423848
280 0.461461
285 0.40189
290 0.521315
295 0.331157
300 0.508431
305 0.466271
310 0.390486
315 0.438771
320 0.5119
325 0.624529
330 0.917892
335 19.7918
340 300.705
345 451.187
350 116.347
355 15.8896
360 4.65242
365 3.32485
370 2.59666
375 3.18012
380 8.3761
385 14.2097
390 16.7114
395 16.3393
400 14.7427
405 15.8466
410 17.4948
415 19.1031
420 18.9135
425 16.9205
430 15.8622
435 15.4919
440 15.9145
445 14.8009
450 13.5615
455 12.0956
460 11.1486
465 11.0337
470 10.3985
475 9.91089
480 8.79851
485 8.81685
490 8.24832
495 7.50995
500 6.90678
505 6.56109
510 5.81892
515 5.44303
520 4.78812
525 4.25496
530 4.14321
535 3.82091
540 3.51156
545 3.29302
550 2.83589
555 2.57612
560 2.37526
565 2.01006
570 1.8634
575 1.43211
580 1.32595
585 1.06134
590 1.08796
595 0.971542
600 1.16968
Ex : 353
200 0.382918
205 0.284084
210 0.322813
215 0.461228
220 0.434955
225 0.300035
230 0.315594
235 0.288906
240 0.340205
245 0.320793
250 0.320453
255 0.325273
260 0.28549
265 0.295702
270 0.349622
275 0.459764
280 0.371425
285 0.351763
290 0.34357
295 0.391334
300 0.357203
305 0.366215
310 0.333976
315 0.424807
320 0.373335
325 0.432922
330 0.653012
335 0.785491
340 20.1793
345 310.451
350 448.528
355 111.363
360 15.1153
365 4.52107
370 3.23036
375 2.95357
380 4.50434
385 10.3467
390 18.6001
395 19.7917
400 17.1778
405 16.7486
410 18.0088
415 21.1364
420 20.7118
425 18.5253
430 16.7268
435 16.3564
440 16.4631
445 16.6567
450 15.1017
455 13.6855
460 11.9895
465 11.6475
470 11.2039
475 11.0696
480 10.3334
485 9.14206
490 8.93838
495 8.03901
500 7.61948
505 6.98097
510 6.35215
515 6.11675
520 5.79104
525 5.04189
530 4.65107
535 4.05522
540 3.75267
545 3.42453
550 3.27688
555 2.83091
560 2.43141
565 2.56659
570 1.96129
575 1.67766
580 1.40265
585 1.44081
590 1.05125
595 0.912974
600 1.02575
Ex : 358
200 0.328974
205 0.406425
210 0.282129
215 0.36817
220 0.360093
225 0.369845
230 0.31508
235 0.238831
240 0.358716
245 0.378535
250 0.321389
255 0.310949
260 0.327208
265 0.357813
270 0.315556
275 0.355793
280 0.276989
285 0.362256
290 0.345184
295 0.280932
300 0.373866
305 0.283499
310 0.366394
315 0.345042
320 0.326014
325 0.392325
330 0.503901
335 0.669759
340 0.969384
345 19.481
350 300.62
355 453.257
360 113.58
365 15.2625
370 4.03569
375 3.49474
380 4.38763
385 7.51321
390 13.3432
395 18.9079
400 18.2051
405 16.6515
410 17.7951
415 19.1411
420 19.0973
425 17.1507
430 16.1363
435 16.1475
440 15.8583
445 15.611
450 14.1265
455 13.2101
460 11.9033
465 11.3096
470 11.426
475 11.0162
480 10.2019
485 9.76263
490 9.39115
495 8.6704
500 8.39301
505 7.38443
510 7.55047
515 6.65297
520 5.98722
525 5.49568
530 5.21256
535 4.5495
540 3.92042
545 3.80488
550 3.47389
555 3.13896
560 3.01761
565 2.41034
570 2.08749
575 1.76845
580 1.42989
585 1.2665
590 1.09692
595 1.10884
600 1.19429
Ex : 363
200 0.271734
205 0.310202
210 0.268301
215 0.280344
220 0.334198
225 0.236715
230 0.351065
235 0.321909
240 0.369737
245 0.348764
250 0.332765
255 0.269891
260 0.302947
265 0.319386
270 0.318507
275 0.366626
280 0.397563
285 0.344037
290 0.360482
295 0.386939
300 0.375075
305 0.343972
310 0.29444
315 0.378018
320 0.331914
325 0.378626
330 0.392533
335 0.542418
340 0.601777
345 0.891383
350 17.926
355 286.94
360 455.576
365 119.5
370 15.9476
375 4.45396
380 5.30523
385 9.3259
390 12.9882
395 15.5343
400 18.4193
405 19.508
410 21.1672
415 22.9166
420 20.3901
425 17.9936
430 17.0781
435 17.0832
440 16.8404
445 16.432
450 15.1725
455 13.9513
460 13.2109
465 12.3411
470 12.5512
475 12.075
480 11.657
485 10.4166
490 9.92947
495 9.31697
500 8.62278
505 7.92423
510 7.44714
515 6.66171
520 6.23281
525 6.11029
530 5.09786
535 4.72823
540 4.59299
545 4.11551
550 3.59305
555 3.28568
560 2.82306
565 2.48961
570 2.19554
575 2.07483
580 1.62865
585 1.35864
590 1.0551
595 0.975942
600 1.01056
Ex : 368
200 0.299614
205 0.235232
210 0.312103
215 0.255529
220 0.262977
225 0.254773
230 0.266281
235 0.246872
240 0.370369
245 0.286433
250 0.257776
255 0.25214
260 0.300932
265 0.256068
270 0.348546
275 0.390021
280 0.295666
285 0.310898
290 0.408088
295 0.319815
300 0.335216
305 0.330191
310 0.341949
315 0.35688
320 0.350921
325 0.401599
330 0.453034
335 0.46048
340 0.550567
345 0.581823
350 0.828084
355 14.8975
360 278.621
365 463.246
370 124.595
375 16.9785
380 6.27787
385 10.5023
390 15.9802
395 18.7772
400 18.2846
405 21.2458
410 26.6246
415 28.2022
420 26.7863
425 23.2415
430 20.6906
435 20.3839
440 20.7239
445 19.5436
450 17.8469
455 16.2285
460 14.7531
465 14.1687
470 14.0115
475 13.1335
480 12.4301
485 11.7002
490 11.3131
495 10.6056
500 9.96083
505 9.02094
510 8.5155
515 7.65543
520 7.11532
525 6.39982
530 5.67391
535 5.25446
540 4.78375
545 4.5882
550 4.06026
555 3.52741
560 3.27621
565 2.80725
570 2.34505
575 1.9864
580 1.56938
585 1.34081
590 1.23224
595 0.927676
600 0.379187
Ex : 373
200 0.259405
205 0.228732
210 0.26733
215 0.225106
220 0.287708
225 0.277663
230 0.277075
235 0.316734
240 0.357117
245 0.255453
250 0.287856
255 0.29453
260 0.26957
265 0.294489
270 0.305755
275 0.269882
280 0.32152
285 0.340562
290 0.344271
295 0.311317
300 0.36014
305 0.288243
310 0.33984
315 0.31356
320 0.321929
325 0.286713
330 0.480301
335 0.317067
340 0.449929
345 0.464166
350 0.536835
355 0.914824
360 17.2594
365 286.182
370 465.272
375 124.85
380 17.9621
385 9.47053
390 15.8715
395 19.4882
400 18.423
405 17.8071
410 22.6482
415 29.0375
420 27.678
425 23.8852
430 20.0285
435 19.287
440 19.1946
445 19.7852
450 17.6348
455 15.574
460 14.7135
465 14.1979
470 13.7617
475 13.6966
480 13.1722
485 12.0161
490 11.329
495 10.7
500 10.4473
505 9.4934
510 9.04595
515 8.05338
520 7.65647
525 6.9165
530 6.22741
535 5.71385
540 5.49562
545 4.95644
550 4.43191
555 3.77025
560 3.45376
565 3.01814
570 2.61171
575 2.26138
580 1.72917
585 1.5659
590 1.10977
595 1.02949
600 0.577821
Ex : 378
200 0.215725
205 0.227826
210 0.298997
215 0.266646
220 0.287583
225 0.220601
230 0.247586
235 0.286474
240 0.258637
245 0.278677
250 0.294183
255 0.206962
260 0.356352
265 0.283613
270 0.269053
275 0.250652
280 0.27826
285 0.239208
290 0.304907
295 0.259417
300 0.269143
305 0.294179
310 0.233803
315 0.32307
320 0.288331
325 0.313792
330 0.256118
335 0.347331
340 0.359003
345 0.445453
350 0.462555
355 0.574807
360 0.847272
365 16.5434
370 293.417
375 486.319
380 132.531
385 21.5398
390 12.9759
395 14.3628
400 13.3794
405 12.8182
410 15.5024
415 19.9348
420 22.3963
425 19.467
430 16.5179
435 15.514
440 15.3663
445 14.9272
450 14.2534
455 13.2316
460 12.0943
465 12.5119
470 12.424
475 12.2355
480 12.1243
485 11.5902
490 10.9354
495 10.5087
500 10.2646
505 9.91444
510 9.53045
515 8.57751
520 7.59436
525 7.38288
530 6.40891
535 5.88031
540 5.45471
545 5.08847
550 4.43841
555 3.99808
560 3.61178
565 3.24802
570 2.62895
575 2.24326
580 1.80278
585 1.34405
590 1.24198
595 1.02338
600 1.39037
Ex : 383
200 0.237597
205 0.247091
210 0.242617
215 0.281458
220 0.284439
225 0.23407
230 0.270836
235 0.280451
240 0.227084
245 0.214426
250 0.259359
255 0.335139
260 0.261121
265 0.268483
270 0.23968
275 0.254426
280 0.274219
285 0.252819
290 0.429296
295 0.342908
300 0.295001
305 0.246652
310 0.275767
315 0.291271
320 0.358983
325 0.323898
330 0.312464
335 0.3029
340 0.327738
345 0.377749
350 0.473539
355 0.475269
360 0.593878
365 0.927267
370 15.5647
375 297.297
380 515.148
385 144.843
390 27.9005
395 14.6811
400 12.4328
405 13.6813
410 15.6666
415 18.0165
420 18.1133
425 18.5842
430 18.2313
435 17.1291
440 16.4357
445 15.1428
450 13.9157
455 13.0021
460 12.8884
465 12.7597
470 12.637
475 12.7446
480 12.2684
485 11.7939
490 11.4664
495 10.8321
500 10.4488
505 9.71116
510 9.34599
515 8.66005
520 8.20345
525 7.25981
530 6.58769
535 6.06343
540 5.52654
545 5.03967
550 4.49056
555 4.0628
560 3.59367
565 3.25235
570 2.71745
575 2.28132
580 1.80458
585 1.57025
590 1.16593
595 1.0645
600 1.60745
Ex : 388
200 0.199185
205 0.227213
210 0.233694
215 0.210669
220 0.252624
225 0.277755
230 0.281666
235 0.346625
240 0.224064
245 0.251367
250 0.248644
255 0.231424
260 0.30003
265 0.235064
270 0.201113
275 0.246127
280 0.239391
285 0.230392
290 0.238194
295 0.311085
300 0.3096
305 0.303882
310 0.196988
315 0.224445
320 0.33608
325 0.267871
330 0.256782
335 0.297708
340 0.386152
345 0.439204
350 0.441609
355 0.377157
360 0.57354
365 0.624936
370 0.873117
375 17.4708
380 315.365
385 531.705
390 152.381
395 32.5448
400 17.2526
405 16.6923
410 20.3557
415 22.0197
420 21.7813
425 19.0223
430 19.1629
435 20.8976
440 20.026
445 18.6492
450 16.6769
455 14.6726
460 13.6153
465 13.7458
470 13.6632
475 13.2416
480 13.1102
485 12.5395
490 11.7315
495 11.6603
500 10.9989
505 10.243
510 9.37504
515 9.32814
520 8.18268
525 7.43012
530 6.5402
535 6.05218
540 5.65116
545 5.17226
550 4.52527
555 4.08284
560 3.72372
565 3.34878
570 2.88816
575 2.16605
580 1.84253
585 1.46424
590 1.26784
595 1.04857
600 0.691947
Ex : 393
200 0.261124
205 0.23076
210 0.245178
215 0.227476
220 0.204021
225 0.226595
230 0.24352
235 0.225741
240 0.245215
245 0.342364
250 0.247406
255 0.2187
260 0.213988
265 0.322841
270 0.320354
275 0.22602
280 0.301828
285 0.2575
290 0.271513
295 0.243515
300 0.29239
305 0.274238
310 0.305503
315 0.269192
320 0.2728
325 0.296682
330 0.240142
335 0.232591
340 0.348787
345 0.352746
350 0.305756
355 0.346393
360 0.433554
365 0.512452
370 0.496083
375 1.04971
380 16.7743
385 320.593
390 549.917
395 161.035
400 33.453
405 17.2225
410 18.5621
415 22.4388
420 22.9255
425 19.4907
430 17.5975
435 17.6706
440 20.8433
445 19.7466
450 17.2393
455 15.3006
460 14.0063
465 13.5373
470 13.3799
475 13.2112
480 12.8518
485 12.412
490 11.6611
495 11.487
500 11.14
505 10.5139
510 10.0101
515 9.30327
520 8.34653
525 7.66083
530 7.05542
535 6.44789
540 5.83932
545 5.39439
550 4.81001
555 4.57393
560 3.88768
565 3.33656
570 2.73302
575 2.27003
580 1.8642
585 1.51281
590 1.21934
595 1.07383
600 1.06138
Ex : 398
200 0.214257
205 0.218665
210 0.229381
215 0.21214
220 0.22632
225 0.26742
230 0.207568
235 0.227977
240 0.230306
245 0.179347
250 0.240237
255 0.241191
260 0.245189
265 0.23288
270 0.237565
275 0.23677
280 0.212198
285 0.28159
290 0.247138
295 0.228927
300 0.253191
305 0.287041
310 0.370525
315 0.269327
320 0.235752
325 0.248781
330 0.311957
335 0.318374
340 0.299356
345 0.343851
350 0.373501
355 0.312154
360 0.394178
365 0.416431
370 0.448212
375 0.632254
380 1.21749
385 18.1391
390 331.013
395 569.533
400 158.45
405 26.4389
410 12.5674
415 14.2461
420 14.7229
425 12.7307
430 10.5494
435 10.9816
440 12.2708
445 14.755
450 14.4936
455 12.4391
460 11.3629
465 11.22
470 11.196
475 11.2502
480 11.201
485 11.2133
490 10.6006
495 10.9065
500 10.4251
505 10.1787
510 9.63478
515 8.8373
520 8.26381
525 7.88414
530 7.10965
535 6.54837
540 5.87815
545 5.39961
550 4.90888
555 4.48445
560 4.11724
565 3.15467
570 2.81546
575 2.25062
580 1.89386
585 1.54007
590 1.27149
595 1.11093
600 0.887763
Ex : 403
200 0.204963
205 0.221915
210 0.220649
215 0.208098
220 0.251587
225 0.249097
230 0.276928
235 0.23712
240 0.23101
245 0.212803
250 0.257734
255 0.244473
260 0.251907
265 0.278604
270 0.269828
275 0.264789
280 0.212757
285 0.228697
290 0.267811
295 0.226147
300 0.260719
305 0.237245
310 0.235839
315 0.199347
320 0.294088
325 0.256179
330 0.302908
335 0.285167
340 0.288786
345 0.31869
350 0.287613
355 0.316657
360 0.260309
365 0.374167
370 0.394365
375 0.413121
380 0.614972
385 1.25093
390 19.5532
395 338.661
400 561.112
405 153.304
410 22.352
415 8.99248
420 7.70667
425 7.23302
430 6.62599
435 6.89585
440 7.576
445 8.45591
450 10.7495
455 11.191
460 10.3721
465 10.3438
470 9.92951
475 10.3314
480 10.6964
485 10.6797
490 10.6599
495 10.5614
500 10.3907
505 10.1958
510 9.51618
515 8.88642
520 8.39429
525 7.75705
530 6.97182
535 6.62908
540 5.9307
545 5.54275
550 4.80811
555 4.46903
560 4.0749
565 3.46465
570 2.91679
575 2.38047
580 1.97185
585 1.74452
590 1.26423
595 1.03677
600 1.12991
Ex : 408
200 0.271893
205 0.188642
210 0.25898
215 0.222801
220 0.240262
225 0.209491
230 0.308082
235 0.240464
240 0.226946
245 0.232984
250 0.200557
255 0.224086
260 0.232621
265 0.221502
270 0.19668
275 0.21533
280 0.181271
285 0.218031
290 0.181803
295 0.193796
300 0.215131
305 0.263159
310 0.204677
315 0.262005
320 0.203383
325 0.287686
330 0.303251
335 0.294612
340 0.259462
345 0.29624
350 0.308424
355 0.27667
360 0.303842
365 0.277189
370 0.37406
375 0.37449
380 0.526232
385 0.729315
390 1.19403
395 18.3883
400 346.945
405 573.91
410 155.44
415 23.6249
420 8.42243
425 6.36251
430 6.10415
435 6.4294
440 6.9304
445 7.36304
450 8.0027
455 9.84797
460 11.6131
465 10.941
470 10.9064
475 10.9994
480 11.0021
485 11.032
490 10.827
495 10.8816
500 10.8643
505 10.0415
510 9.59079
515 9.35346
520 8.7078
525 7.62685
530 7.38573
535 6.62704
540 5.99229
545 5.41429
550 4.88608
555 4.48739
560 4.04106
565 3.38452
570 2.88482
575 2.36345
580 1.97524
585 1.64825
590 1.28086
595 1.1533
600 0.827325
Ex : 413
200 0.206229
205 0.246362
210 0.229442
215 0.202646
220 0.226812
225 0.239276
230 0.241003
235 0.210642
240 0.255667
245 0.178975
250 0.226947
255 0.214976
260 0.226258
265 0.230404
270 0.204863
275 0.233918
280 0.226257
285 0.240956
290 0.188293
295 0.206561
300 0.213381
305 0.279016
310 0.243951
315 0.271426
320 0.245479
325 0.282448
330 0.233685
335 0.24623
340 0.233141
345 0.252135
350 0.212855
355 0.222455
360 0.269822
365 0.328653
370 0.303432
375 0.327562
380 0.42447
385 0.523923
390 0.688682
395 1.01821
400 21.0891
405 364.818
410 589.969
415 155.14
420 22.8365
425 7.27878
430 5.5545
435 6.23412
440 6.66995
445 7.01023
450 6.87798
455 7.19942
460 8.81746
465 11.4154
470 11.7415
475 10.9726
480 11.2145
485 11.0745
490 10.4741
495 10.6543
500 10.3397
505 10.3888
510 9.71057
515 9.0931
520 8.40787
525 7.83543
530 7.25072
535 6.76613
540 6.11524
545 5.5051
550 4.93434
555 4.66021
560 3.92211
565 3.62542
570 2.98332
575 2.48961
580 2.00959
585 1.55091
590 1.26531
595 1.08357
600 0.967736
Ex : 418
200 0.221561
205 0.192306
210 0.229723
215 0.237109
220 0.243467
225 0.188801
230 0.217563
235 0.23704
240 0.200097
245 0.266746
250 0.184167
255 0.215665
260 0.166496
265 0.241592
270 0.278676
275 0.27704
280 0.239849
285 0.200432
290 0.226174
295 0.25322
300 0.304079
305 0.232897
310 0.228632
315 0.230401
320 0.2286
325 0.245874
330 0.238808
335 0.222865
340 0.256171
345 0.338341
350 0.295702
355 0.281242
360 0.285296
365 0.319946
370 0.271576
375 0.336453
380 0.329168
385 0.36346
390 0.590003
395 0.653999
400 1.07929
405 19.6348
410 365.715
415 600.952
420 161.199
425 21.9709
430 5.8927
435 4.32497
440 4.75277
445 5.11801
450 4.90137
455 5.6292
460 6.03103
465 7.59374
470 10.3361
475 11.3578
480 10.5131
485 10.528
490 10.2835
495 9.71462
500 9.69148
505 9.56471
510 9.18007
515 8.69578
520 8.11563
525 7.431
530 7.01914
535 6.50385
540 5.96689
545 5.26327
550 4.87643
555 4.31307
560 3.88858
565 3.54506
570 2.80541
575 2.55892
580 1.91884
585 1.57131
590 1.32647
595 1.09081
600 1.661
Ex : 423
200 0.144481
205 0.189376
210 0.25127
215 0.193037
220 0.236738
225 0.215375
230 0.250528
235 0.224245
240 0.189581
245 0.239684
250 0.201978
255 0.214713
260 0.220523
265 0.265317
270 0.24362
275 0.23977
280 0.229918
285 0.242449
290 0.263649
295 0.206977
300 0.259193
305 0.250363
310 0.215063
315 0.252324
320 0.222704
325 0.259411
330 0.205754
335 0.265422
340 0.311327
345 0.2497
350 0.25826
355 0.29031
360 0.2406
365 0.241329
370 0.33217
375 0.277992
380 0.388317
385 0.385402
390 0.403388
395 0.487847
400 0.615399
405 1.1433
410 20.8087
415 388.365
420 614.417
425 157.292
430 20.6412
435 4.7268
440 3.11837
445 3.39433
450 3.92912
455 4.0562
460 4.63415
465 5.72632
470 6.67689
475 9.2527
480 10.8245
485 9.75844
490 9.57911
495 9.71183
500 9.48788
505 9.03573
510 8.53267
515 8.05348
520 7.90499
525 6.93446
530 6.54688
535 5.98659
540 5.41792
545 5.04462
550 4.56762
555 4.11411
560 3.63181
565 3.31172
570 2.74543
575 2.23155
580 1.97327
585 1.51381
590 1.26626
595 0.98702
600 1.06287
Ex : 428
200 0.240764
205 0.198069
210 0.216046
215 0.190375
220 0.190943
225 0.225879
230 0.228891
235 0.199475
240 0.194865
245 0.155302
250 0.210586
255 0.25677
260 0.302177
265 0.200893
270 0.237532
275 0.183704
280 0.151355
285 0.215655
290 0.240645
295 0.225884
300 0.249148
305 0.185527
310 0.211151
315 0.238799
320 0.250839
325 0.223913
330 0.194267
335 0.229132
340 0.215009
345 0.20446
350 0.267186
355 0.278153
360 0.272717
365 0.270433
370 0.284159
375 0.33766
380 0.405056
385 0.341828
390 0.429092
395 0.432589
400 0.494325
405 0.693563
410 1.19756
415 22.9593
420 395.916
425 634.755
430 166.085
435 21.2128
440 4.61702
445 2.80189
450 3.30851
455 3.6098
460 4.1303
465 4.79479
470 5.58978
475 6.57247
480 8.35718
485 10.4233
490 9.75766
495 9.13483
500 8.791
505 8.53553
510 8.02544
515 7.42776
520 7.35011
525 6.94074
530 6.27895
535 5.66889
540 5.31135
545 4.63427
550 4.44993
555 4.11931
560 3.61461
565 3.12747
570 2.59111
575 2.15898
580 2.01638
585 1.53918
590 1.20259
595 0.975743
600 1.00616
Ex : 433
200 0.18619
205 0.242487
210 0.202974
215 0.194848
220 0.18115
225 0.248042
230 0.252374
235 0.232203
240 0.254028
245 0.163757
250 0.226841
255 0.2587
260 0.280102
265 0.290568
270 0.230294
275 0.297149
280 0.196222
285 0.265808
290 0.298655
295 0.205187
300 0.227144
305 0.186369
310 0.213405
315 0.192418
320 0.31236
325 0.25373
330 0.252887
335 0.207553
340 0.251711
345 0.245231
350 0.225922
355 0.267485
360 0.285788
365 0.288009
370 0.343021
375 0.36083
380 0.326885
385 0.298782
390 0.369522
395 0.349435
400 0.394693
405 0.577879
410 0.681695
415 1.01789
420 25.7921
425 429.675
430 652.887
435 165.334
440 20.9861
445 4.49323
450 2.80542
455 3.4598
460 4.20908
465 4.43747
470 4.90202
475 5.45314
480 6.49859
485 7.92586
490 9.89806
495 9.66508
500 8.54218
505 8.10229
510 7.8017
515 7.12797
520 6.62629
525 6.28408
530 5.72543
535 5.1337
540 4.85897
545 4.44827
550 4.07726
555 3.67836
560 3.39345
565 2.93235
570 2.59735
575 2.05992
580 1.66046
585 1.31542
590 1.15397
595 0.870096
600 1.07263
Ex : 438
200 0.27085
205 0.231877
210 0.20908
215 0.231222
220 0.275442
225 0.222967
230 0.245044
235 0.23836
240 0.223406
245 0.253062
250 0.273828
255 0.224944
260 0.231198
265 0.217366
270 0.180968
275 0.208709
280 0.21113
285 0.250382
290 0.230548
295 0.198299
300 0.211455
305 0.300299
310 0.253056
315 0.269428
320 0.200139
325 0.325458
330 0.236983
335 0.236411
340 0.262799
345 0.291274
350 0.302596
355 0.267386
360 0.261061
365 0.269544
370 0.227949
375 0.259902
380 0.235748
385 0.320166
390 0.374588
395 0.357872
400 0.400279
405 0.399518
410 0.515845
415 0.706844
420 0.907493
425 25.4326
430 435.415
435 695.792
440 173.071
445 22.1182
450 4.66231
455 3.02585
460 3.68374
465 4.20585
470 4.70603
475 4.79006
480 5.31953
485 6.15891
490 6.72537
495 8.62118
500 8.93786
505 7.62301
510 7.10858
515 6.59046
520 6.03067
525 5.48548
530 5.1653
535 4.62996
540 4.32915
545 4.11031
550 3.76571
555 3.55471
560 3.05199
565 2.74539
570 2.28475
575 1.8098
580 1.52974
585 1.24137
590 1.08483
595 0.923068
600 0.973342
Ex : 443
200 0.242175
205 0.219734
210 0.249938
215 0.243621
220 0.180799
225 0.235665
230 0.262899
235 0.226452
240 0.220983
245 0.278338
250 0.250286
255 0.282645
260 0.271931
265 0.20503
270 0.223521
275 0.298584
280 0.291548
285 0.260614
290 0.266915
295 0.233527
300 0.211625
305 0.268307
310 0.243058
315 0.272147
320 0.264821
325 0.257514
330 0.241855
335 0.266281
340 0.26743
345 0.267294
350 0.31024
355 0.293619
360 0.265601
365 0.292453
370 0.278126
375 0.325269
380 0.255441
385 0.304437
390 0.292966
395 0.362246
400 0.305011
405 0.395544
410 0.448907
415 0.561533
420 0.729763
425 1.09378
430 28.3084
435 470.309
440 718.443
445 178.534
450 22.7732
455 5.10161
460 3.31636
465 3.75256
470 4.53498
475 4.46128
480 4.90133
485 5.14332
490 5.19991
495 5.86101
500 7.21399
505 7.93708
510 6.81202
515 6.33122
520 5.85769
525 5.27882
530 4.50326
535 4.346
540 4.02314
545 3.61704
550 3.41231
555 3.01641
560 2.63071
565 2.34741
570 1.9636
575 1.80803
580 1.41169
585 1.24515
590 0.995269
595 0.863533
600 1.57975
Ex : 448
200 0.240292
205 0.230878
210 0.247303
215 0.218074
220 0.205649
225 0.232879
230 0.235888
235 0.259779
240 0.301527
245 0.232632
250 0.265556
255 0.269537
260 0.215496
265 0.238357
270 0.314809
275 0.292319
280 0.313723
285 0.292531
290 0.256227
295 0.24495
300 0.269957
305 0.237143
310 0.232291
315 0.274525
320 0.223095
325 0.27829
330 0.229027
335 0.225079
340 0.289903
345 0.297021
350 0.257688
355 0.289386
360 0.285571
365 0.245425
370 0.344167
375 0.270458
380 0.2933
385 0.341048
390 0.280196
395 0.296687
400 0.304552
405 0.378873
410 0.416355
415 0.524075
420 0.617298
425 0.735079
430 1.13212
435 29.4276
440 502.533
445 784.821
450 200.314
455 25.622
460 5.41728
465 3.3406
470 3.64885
475 4.18995
480 4.30397
485 4.44035
490 4.84239
495 4.70021
500 5.11689
505 5.79715
510 7.03328
515 6.33054
520 5.17342
525 4.94873
530 4.33195
535 3.87182
540 3.53788
545 3.16975
550 2.92397
555 2.64862
560 2.39838
565 2.07344
570 1.85376
575 1.55041
580 1.31821
585 1.12278
590 0.95323
595 0.878806
600 1.15444
Ex : 453
200 0.21389
205 0.19449
210 0.240163
215 0.209202
220 0.297755
225 0.221482
230 0.180016
235 0.246114
240 0.270258
245 0.264115
250 0.261415
255 0.273279
260 0.234401
265 0.265309
270 0.248442
275 0.271143
280 0.228617
285 0.216557
290 0.264241
295 0.276132
300 0.23951
305 0.228985
310 0.279713
315 0.218582
320 0.241455
325 0.267926
330 0.308487
335 0.294949
340 0.255928
345 0.366456
350 0.252618
355 0.316772
360 0.241224
365 0.248561
370 0.308225
375 0.268736
380 0.285201
385 0.314686
390 0.342063
395 0.319953
400 0.315159
405 0.314609
410 0.401902
415 0.356729
420 0.468689
425 0.517023
430 0.738311
435 1.14338
440 31.201
445 535.967
450 783.398
455 184
460 23.7263
465 5.34611
470 3.41347
475 3.34953
480 3.77702
485 3.93635
490 3.93867
495 3.80627
500 3.86743
505 4.11294
510 4.45568
515 5.85308
520 5.69072
525 4.37846
530 4.22533
535 3.72042
540 3.14121
545 2.93704
550 2.66929
555 2.53948
560 2.15071
565 1.99026
570 1.66354
575 1.36219
580 1.18047
585 0.952299
590 0.887104
595 0.65437
600 0.93809
Ex : 458
200 0.289953
205 0.195602
210 0.266376
215 0.273163
220 0.269929
225 0.206601
230 0.296178
235 0.309443
240 0.277916
245 0.239632
250 0.229509
255 0.237281
260 0.217763
265 0.240069
270 0.229884
275 0.212474
280 0.212487
285 0.242073
290 0.268286
295 0.292374
300 0.236668
305 0.248553
310 0.228169
315 0.244577
320 0.274262
325 0.226412
330 0.240216
335 0.269169
340 0.262763
345 0.319464
350 0.336783
355 0.245927
360 0.303322
365 0.260159
370 0.321444
375 0.300162
380 0.298146
385 0.256341
390 0.255628
395 0.367832
400 0.287425
405 0.404217
410 0.305356
415 0.453965
420 0.388153
425 0.431293
430 0.54125
435 0.821586
440 1.24943
445 34.7601
450 556.453
455 831.907
460 199.602
465 25.5931
470 5.51685
475 2.97872
480 3.15932
485 3.52217
490 3.49138
495 3.35728
500 3.30706
505 3.25667
510 3.29694
515 3.53187
520 4.19552
525 4.87258
530 4.20601
535 3.33025
540 3.25252
545 2.70102
550 2.31917
555 2.15598
560 1.90571
565 1.70947
570 1.48908
575 1.26165
580 1.04915
585 0.876222
590 0.792544
595 0.650809
600 0.346063
Ex : 463
200 0.262969
205 0.204792
210 0.234158
215 0.285593
220 0.219199
225 0.255967
230 0.231481
235 0.196649
240 0.193497
245 0.261451
250 0.230902
255 0.252135
260 0.241638
265 0.26107
270 0.322354
275 0.260666
280 0.223844
285 0.266879
290 0.276972
295 0.244065
300 0.239735
305 0.206504
310 0.206976
315 0.248818
320 0.279672
325 0.186272
330 0.27281
335 0.304183
340 0.263945
345 0.213841
350 0.194708
355 0.333159
360 0.241084
365 0.312817
370 0.323368
375 0.327274
380 0.283827
385 0.314766
390 0.248956
395 0.292237
400 0.366738
405 0.355091
410 0.309871
415 0.326095
420 0.404839
425 0.409647
430 0.517935
435 0.583444
440 0.798575
445 1.24798
450 34.0229
455 572.779
460 872.328
465 211.39
470 26.7825
475 5.32549
480 2.86455
485 2.65718
490 2.8935
495 2.98138
500 2.77324
505 2.67383
510 2.72397
515 2.55825
520 2.70233
525 3.29601
530 4.23113
535 3.70828
540 2.85371
545 2.45014
550 2.18618
555 1.92874
560 1.68366
565 1.55036
570 1.27386
575 1.24978
580 0.942032
585 0.879687
590 0.721833
595 0.604894
600 0.319699
Ex : 468
200 0.180693
205 0.215648
210 0.253339
215 0.193428
220 0.178089
225 0.211965
230 0.225787
235 0.2354
240 0.251132
245 0.287536
250 0.255256
255 0.214576
260 0.211748
265 0.209965
270 0.248761
275 0.223322
280 0.206602
285 0.245957
290 0.211219
295 0.223304
300 0.199062
305 0.22178
310 0.219229
315 0.193569
320 0.237988
325 0.207703
330 0.174696
335 0.204892
340 0.239614
345 0.212895
350 0.242028
355 0.240432
360 0.243351
365 0.251207
370 0.263935
375 0.300393
380 0.253397
385 0.2479
390 0.276637
395 0.289271
400 0.22576
405 0.251312
410 0.269579
415 0.313549
420 0.321577
425 0.319475
430 0.412326
435 0.446613
440 0.578825
445 0.729537
450 1.0562
455 36.257
460 574.612
465 911.106
470 220.693
475 27.4036
480 5.286
485 2.46586
490 2.2328
495 2.40208
500 2.53612
505 2.42767
510 2.21615
515 2.17098
520 2.20533
525 2.29108
530 2.45117
535 3.38191
540 3.64232
545 2.59465
550 2.24976
555 2.11248
560 1.76857
565 1.52892
570 1.34261
575 0.99567
580 0.983118
585 0.820136
590 0.713747
595 0.589331
600 0.46966
Ex : 473
200 0.264202
205 0.263362
210 0.217393
215 0.281407
220 0.197936
225 0.269138
230 0.218215
235 0.211622
240 0.228949
245 0.245399
250 0.256241
255 0.244557
260 0.291015
265 0.247908
270 0.261793
275 0.222155
280 0.281554
285 0.194995
290 0.215632
295 0.240887
300 0.240001
305 0.245009
310 0.260251
315 0.227586
320 0.299282
325 0.273024
330 0.246625
335 0.235532
340 0.218014
345 0.254483
350 0.235156
355 0.26634
360 0.329801
365 0.219093
370 0.307545
375 0.305354
380 0.304573
385 0.261678
390 0.26117
395 0.303656
400 0.216684
405 0.343929
410 0.258972
415 0.285975
420 0.35204
425 0.335732
430 0.412039
435 0.36393
440 0.42954
445 0.648804
450 0.812583
455 1.29121
460 41.0922
465 624.203
470 869.177
475 201.496
480 25.1512
485 4.66207
490 2.31248
495 1.97546
500 2.27017
505 2.25156
510 2.12385
515 1.85752
520 1.83063
525 1.99526
530 2.0046
535 2.02489
540 2.96804
545 3.29966
550 2.45649
555 2.0991
560 1.89658
565 1.47022
570 1.36151
575 1.05103
580 0.90453
585 0.751016
590 0.624775
595 0.648779
600 0.769759
Ex : 478
200 0.209721
205 0.279424
210 0.289161
215 0.298797
220 0.238383
225 0.255533
230 0.25922
235 0.273817
240 0.312169
245 0.295328
250 0.25338
255 0.277174
260 0.275249
265 0.274079
270 0.30185
275 0.268115
280 0.221779
285 0.30987
290 0.264011
295 0.265078
300 0.330006
305 0.267641
310 0.26399
315 0.27976
320 0.331661
325 0.29401
330 0.275031
335 0.302614
340 0.311013
345 0.310319
350 0.306457
355 0.277646
360 0.294182
365 0.272812
370 0.285725
375 0.201819
380 0.305892
385 0.350057
390 0.308117
395 0.370008
400 0.324919
405 0.345321
410 0.356877
415 0.311059
420 0.331327
425 0.389462
430 0.423155
435 0.415803
440 0.406525
445 0.610188
450 0.685111
455 0.891805
460 1.5186
465 44.5526
470 629.865
475 868.367
480 209.68
485 26.0245
490 4.76949
495 2.20882
500 1.85552
505 1.84134
510 2.07754
515 1.8553
520 1.82619
525 1.85384
530 1.7273
535 1.74691
540 1.73567
545 2.25081
550 3.08045
555 2.6697
560 1.82834
565 1.6663
570 1.5165
575 1.17401
580 0.85425
585 0.755014
590 0.655291
595 0.574851
600 0.522811
Ex : 483
200 0.251776
205 0.249867
210 0.283588
215 0.287279
220 0.280804
225 0.283874
230 0.234391
235 0.226102
240 0.308252
245 0.272342
250 0.260961
255 0.285774
260 0.295574
265 0.252915
270 0.255748
275 0.316816
280 0.289831
285 0.286727
290 0.296982
295 0.228709
300 0.291798
305 0.250702
310 0.291701
315 0.222823
320 0.233677
325 0.271745
330 0.283468
335 0.298516
340 0.331464
345 0.347125
350 0.329327
355 0.36413
360 0.290548
365 0.322091
370 0.394973
375 0.366372
380 0.325096
385 0.344202
390 0.359429
395 0.349563
400 0.373344
405 0.340743
410 0.364399
415 0.353587
420 0.35669
425 0.357422
430 0.391956
435 0.353492
440 0.416611
445 0.51221
450 0.556351
455 0.704866
460 0.967087
465 1.55927
470 35.339
475 624.099
480 949.223
485 224.784
490 27.7273
495 4.71094
500 2.02795
505 1.53738
510 1.70202
515 1.80636
520 1.96624
525 1.73316
530 1.69386
535 1.63523
540 1.53104
545 1.57026
550 1.63866
555 2.75023
560 2.63523
565 1.9749
570 1.4979
575 1.29154
580 1.12723
585 0.864907
590 0.60074
595 0.577142
600 0.50568
Ex : 488
200 0.27119
205 0.232181
210 0.246611
215 0.28026
220 0.289403
225 0.29939
230 0.275473
235 0.257839
240 0.267972
245 0.261347
250 0.280983
255 0.341651
260 0.324783
265 0.257125
270 0.291704
275 0.400097
280 0.318855
285 0.253182
290 0.305452
295 0.233274
300 0.30852
305 0.30424
310 0.331539
315 0.378212
320 0.353951
325 0.332708
330 0.323709
335 0.30422
340 0.272238
345 0.293198
350 0.285749
355 0.311874
360 0.32998
365 0.303527
370 0.310123
375 0.276374
380 0.351945
385 0.349072
390 0.406451
395 0.388261
400 0.287595
405 0.407387
410 0.380008
415 0.38418
420 0.412047
425 0.406146
430 0.470841
435 0.482245
440 0.411046
445 0.456028
450 0.550703
455 0.614599
460 0.839391
465 1.19058
470 1.50953
475 43.8441
480 678.789
485 938.408
490 220.327
495 27.2119
500 4.73865
505 2.02267
510 1.53045
515 1.83672
520 2.02614
525 1.89509
530 1.69031
535 1.6406
540 1.57418
545 1.49228
550 1.44617
555 1.56069
560 2.14256
565 2.46848
570 1.9504
575 1.4112
580 1.12247
585 0.934308
590 0.801061
595 0.696587
600 0.276203
Ex : 493
200 0.338746
205 0.37182
210 0.277665
215 0.373834
220 0.24085
225 0.263403
230 0.290159
235 0.286116
240 0.288281
245 0.347057
250 0.373209
255 0.319027
260 0.30983
265 0.31363
270 0.271782
275 0.277477
280 0.262774
285 0.263968
290 0.366703
295 0.281255
300 0.229683
305 0.325076
310 0.241488
315 0.281614
320 0.272795
325 0.257914
330 0.355504
335 0.325973
340 0.28309
345 0.244382
350 0.320207
355 0.348434
360 0.313476
365 0.271177
370 0.281449
375 0.363671
380 0.2917
385 0.301832
390 0.318317
395 0.335455
400 0.401838
405 0.429964
410 0.314143
415 0.361661
420 0.422981
425 0.322564
430 0.37758
435 0.426345
440 0.437308
445 0.450763
450 0.461374
455 0.524058
460 0.677078
465 0.719889
470 0.929863
475 1.3029
480 39.2684
485 649.076
490 962.059
495 219.582
500 26.8461
505 4.73574
510 2.16521
515 1.55653
520 1.64362
525 1.86388
530 1.88508
535 1.80312
540 1.5623
545 1.37114
550 1.45038
555 1.22027
560 1.35386
565 1.56397
570 2.06836
575 1.76558
580 1.18473
585 0.931428
590 0.846719
595 0.71348
600 0.462941
Ex : 498
200 0.301264
205 0.318223
210 0.328071
215 0.25217
220 0.295203
225 0.334468
230 0.340648
235 0.267518
240 0.338942
245 0.271853
250 0.28054
255 0.305156
260 0.330277
265 0.288092
270 0.284344
275 0.281981
280 0.259036
285 0.202771
290 0.357442
295 0.309711
300 0.322664
305 0.321595
310 0.289578
315 0.45323
320 0.387281
325 0.249515
330 0.339828
335 0.364796
340 0.479873
345 0.330352
350 0.370111
355 0.320746
360 0.392607
365 0.367791
370 0.359022
375 0.370463
380 0.366275
385 0.328531
390 0.283223
395 0.347162
400 0.302078
405 0.394112
410 0.290202
415 0.426036
420 0.373719
425 0.442218
430 0.416356
435 0.372972
440 0.420441
445 0.368943
450 0.395227
455 0.565266
460 0.530469
465 0.701178
470 0.784366
475 1.04231
480 1.52536
485 47.5949
490 687.06
495 931.581
500 213.398
505 26.1659
510 4.68349
515 2.14359
520 1.66618
525 1.70709
530 1.75266
535 1.72945
540 1.75959
545 1.55733
550 1.41535
555 1.34092
560 1.21209
565 1.2465
570 1.41272
575 1.87863
580 1.62879
585 1.16893
590 0.861011
595 0.890089
600 0.513345
Ex : 503
200 0.308981
205 0.268182
210 0.333217
215 0.246236
220 0.303593
225 0.239291
230 0.364408
235 0.353496
240 0.295961
245 0.371501
250 0.390593
255 0.313872
260 0.299176
265 0.339826
270 0.33801
275 0.307787
280 0.311296
285 0.309134
290 0.319823
295 0.204109
300 0.350208
305 0.385581
310 0.245102
315 0.356196
320 0.339404
325 0.291634
330 0.382007
335 0.340019
340 0.326692
345 0.333784
350 0.357537
355 0.274674
360 0.336267
365 0.379334
370 0.420649
375 0.396976
380 0.349795
385 0.459201
390 0.435974
395 0.451306
400 0.380293
405 0.523263
410 0.326828
415 0.364652
420 0.398912
425 0.452287
430 0.346364
435 0.417606
440 0.438299
445 0.434203
450 0.48577
455 0.497481
460 0.5939
465 0.576582
470 0.751269
475 0.875342
480 1.14764
485 1.43503
490 43.5588
495 695.662
500 975.007
505 223.006
510 27.3015
515 4.73424
520 2.09768
525 1.74792
530 1.61002
535 1.82448
540 1.94187
545 1.5983
550 1.48236
555 1.43446
560 1.2823
565 1.18866
570 1.13915
575 1.05097
580 1.26693
585 1.53437
590 1.20619
595 0.825551
600 0.594157
Ex : 508
200 0.374408
205 0.39838
210 0.294772
215 0.304973
220 0.303571
225 0.438349
230 0.279382
235 0.304327
240 0.285777
245 0.380292
250 0.372864
255 0.31916
260 0.358941
265 0.38124
270 0.320101
275 0.397436
280 0.330994
285 0.345554
290 0.30015
295 0.3789
300 0.355832
305 0.361478
310 0.354847
315 0.367344
320 0.345672
325 0.346375
330 0.34736
335 0.384355
340 0.322082
345 0.306877
350 0.297126
355 0.386019
360 0.464383
365 0.398378
370 0.447082
375 0.369491
380 0.399491
385 0.399588
390 0.385521
395 0.483621
400 0.490426
405 0.292293
410 0.311724
415 0.410704
420 0.410312
425 0.391502
430 0.497398
435 0.403617
440 0.474967
445 0.486277
450 0.472166
455 0.512995
460 0.499853
465 0.5264
470 0.625414
475 0.648503
480 0.706772
485 1.05523
490 1.59076
495 46.0098
500 681.639
505 957.482
510 230.979
515 28.4427
520 4.8891
525 2.19695
530 1.63064
535 1.58262
540 1.61604
545 1.45728
550 1.46281
555 1.26761
560 1.20899
565 1.30287
570 1.07743
575 1.02248
580 0.911668
585 1.00742
590 1.26948
595 1.07879
600 1.24992
Ex : 513
200 0.327306
205 0.341834
210 0.324027
215 0.368617
220 0.338964
225 0.262881
230 0.334918
235 0.342634
240 0.29148
245 0.408055
250 0.358523
255 0.331965
260 0.366721
265 0.336998
270 0.339818
275 0.311784
280 0.285825
285 0.289932
290 0.355626
295 0.361017
300 0.317662
305 0.27648
310 0.385762
315 0.372643
320 0.304602
325 0.406106
330 0.44589
335 0.333466
340 0.291554
345 0.390735
350 0.37331
355 0.453488
360 0.436863
365 0.36036
370 0.381871
375 0.377211
380 0.381711
385 0.426234
390 0.433356
395 0.358787
400 0.359931
405 0.370239
410 0.36526
415 0.461607
420 0.417723
425 0.353944
430 0.522966
435 0.435832
440 0.483835
445 0.361146
450 0.525199
455 0.388351
460 0.400936
465 0.448675
470 0.578212
475 0.626977
480 0.74006
485 0.825671
490 1.03243
495 1.39438
500 42.1954
505 674.987
510 962.324
515 233.099
520 28.7948
525 4.85609
530 2.05826
535 1.57507
540 1.4333
545 1.48157
550 1.52756
555 1.31269
560 1.39875
565 1.27338
570 0.916663
575 0.955292
580 0.832002
585 0.829226
590 0.761015
595 1.1073
600 1.28651
Ex : 518
200 0.348024
205 0.369996
210 0.346362
215 0.270169
220 0.383083
225 0.348607
230 0.372822
235 0.354111
240 0.37502
245 0.341591
250 0.36232
255 0.359879
260 0.377569
265 0.336108
270 0.404931
275 0.374307
280 0.334411
285 0.386363
290 0.332648
295 0.274563
300 0.337073
305 0.333654
310 0.332954
315 0.364773
320 0.359088
325 0.332217
330 0.393987
335 0.357846
340 0.425556
345 0.336193
350 0.391135
355 0.327701
360 0.36788
365 0.369063
370 0.369982
375 0.39417
380 0.323272
385 0.330972
390 0.413908
395 0.406647
400 0.387283
405 0.380602
410 0.366599
415 0.396575
420 0.39066
425 0.432085
430 0.478093
435 0.421329
440 0.481658
445 0.434121
450 0.460823
455 0.563312
460 0.488088
465 0.464872
470 0.622953
475 0.580176
480 0.605799
485 0.686862
490 0.871474
495 1.07637
500 1.36121
505 42.8118
510 651.323
515 961.588
520 234.714
525 28.9376
530 4.90995
535 2.13444
540 1.54634
545 1.50943
550 1.46455
555 1.43872
560 1.41777
565 1.15937
570 0.977967
575 1.0326
580 0.96497
585 0.817236
590 0.763471
595 0.689499
600 0.698368
Ex : 523
200 0.383558
205 0.29867
210 0.322726
215 0.350591
220 0.345016
225 0.444362
230 0.478781
235 0.421608
240 0.42049
245 0.375253
250 0.462863
255 0.41519
260 0.367011
265 0.358235
270 0.427021
275 0.33949
280 0.351499
285 0.339205
290 0.311179
295 0.261824
300 0.325734
305 0.441996
310 0.433979
315 0.397502
320 0.38326
325 0.319314
330 0.301635
335 0.363208
340 0.353535
345 0.366152
350 0.319466
355 0.528138
360 0.513549
365 0.374514
370 0.400953
375 0.449482
380 0.32674
385 0.354914
390 0.428591
395 0.403167
400 0.367998
405 0.311358
410 0.431672
415 0.481644
420 0.42937
425 0.416749
430 0.419695
435 0.423666
440 0.503771
445 0.471283
450 0.418258
455 0.371605
460 0.500332
465 0.490337
470 0.556237
475 0.533319
480 0.633094
485 0.587796
490 0.775057
495 0.847756
500 1.04403
505 1.59842
510 39.7185
515 632.496
520 936.043
525 238.035
530 29.1818
535 4.87441
540 2.06987
545 1.37931
550 1.25071
555 1.23156
560 1.42088
565 1.28181
570 1.05089
575 1.16131
580 0.968157
585 0.796446
590 0.680282
595 0.719395
600 0.465445
Ex : 528
200 0.366976
205 0.370394
210 0.391454
215 0.536857
220 0.378515
225 0.450963
230 0.346756
235 0.381134
240 0.359715
245 0.421354
250 0.392911
255 0.33767
260 0.438507
265 0.332538
270 0.501568
275 0.395239
280 0.41434
285 0.319386
290 0.396327
295 0.414445
300 0.371272
305 0.347706
310 0.337226
315 0.436816
320 0.370915
325 0.351811
330 0.350406
335 0.418749
340 0.461221
345 0.42333
350 0.439303
355 0.378968
360 0.414406
365 0.377099
370 0.471215
375 0.383812
380 0.42891
385 0.444007
390 0.467152
395 0.383341
400 0.423504
405 0.470829
410 0.431989
415 0.486921
420 0.394034
425 0.463942
430 0.437086
435 0.449012
440 0.414021
445 0.399556
450 0.429382
455 0.53016
460 0.470449
465 0.469221
470 0.490355
475 0.514492
480 0.498084
485 0.62678
490 0.614914
495 0.675783
500 0.758785
505 1.01182
510 1.55132
515 35.1198
520 601.887
525 920.73
530 232.585
535 28.4721
540 4.75615
545 1.82584
550 1.40791
555 1.17684
560 1.14126
565 1.38936
570 1.04642
575 1.02767
580 0.863757
585 0.734231
590 0.891183
595 0.744538
600 0.915971
Ex : 533
200 0.349259
205 0.35172
210 0.337297
215 0.406373
220 0.413926
225 0.416307
230 0.41319
235 0.349064
240 0.360016
245 0.319725
250 0.325375
255 0.321927
260 0.351435
265 0.323858
270 0.542114
275 0.407716
280 0.363102
285 0.423099
290 0.422814
295 0.415794
300 0.353403
305 0.442703
310 0.351048
315 0.24736
320 0.430231
325 0.41308
330 0.391904
335 0.439088
340 0.423979
345 0.393157
350 0.425209
355 0.409425
360 0.393516
365 0.572839
370 0.451628
375 0.369785
380 0.416412
385 0.402897
390 0.34931
395 0.347152
400 0.37
405 0.465322
410 0.45086
415 0.513698
420 0.44319
425 0.418253
430 0.521411
435 0.47807
440 0.453865
445 0.547945
450 0.512834
455 0.421172
460 0.413807
465 0.586021
470 0.547324
475 0.558612
480 0.483097
485 0.570295
490 0.587586
495 0.671262
500 0.734413
505 0.860953
510 1.1211
515 1.51767
520 35.6098
525 589.697
530 925.743
535 238.794
540 29.327
545 4.80835
550 1.82682
555 1.38872
560 1.247
565 1.18064
570 1.31035
575 1.05618
580 0.92535
585 0.776195
590 0.725173
595 0.74815
600 3.35509
Ex : 538
200 0.359015
205 0.313307
210 0.367744
215 0.370864
220 0.398739
225 0.347137
230 0.335657
235 0.360388
240 0.430917
245 0.316269
250 0.358515
255 0.385301
260 0.415865
265 0.416803
270 0.395362
275 0.353889
280 0.37697
285 0.363601
290 0.380895
295 0.380658
300 0.32198
305 0.338715
310 0.386031
315 0.357881
320 0.386827
325 0.339617
330 0.379
335 0.315761
340 0.488495
345 0.430811
350 0.386868
355 0.432072
360 0.411092
365 0.421371
370 0.528982
375 0.422541
380 0.434778
385 0.42713
390 0.493537
395 0.351603
400 0.490311
405 0.469357
410 0.489233
415 0.454465
420 0.392218
425 0.451312
430 0.685379
435 0.522932
440 0.437993
445 0.502606
450 0.380422
455 0.438683
460 0.357579
465 0.481903
470 0.488382
475 0.42531
480 0.484223
485 0.539967
490 0.58424
495 0.581785
500 0.56544
505 0.67722
510 0.864644
515 1.1226
520 1.45123
525 30.5913
530 552.699
535 912.649
540 244.021
545 29.9615
550 4.69517
555 1.74747
560 1.38184
565 1.08103
570 0.988199
575 0.998304
580 0.947524
585 0.912212
590 0.717843
595 0.593976
600 0.0675922
Ex : 543
200 0.418025
205 0.41169
210 0.416302
215 0.537003
220 0.413779
225 0.376141
230 0.418416
235 0.428556
240 0.374275
245 0.40541
250 0.402824
255 0.333473
260 0.33351
265 0.498472
270 0.425703
275 0.326304
280 0.389197
285 0.413833
290 0.413906
295 0.429758
300 0.47503
305 0.350551
310 0.435046
315 0.438719
320 0.391052
325 0.510324
330 0.417727
335 0.42656
340 0.459094
345 0.369265
350 0.350681
355 0.414657
360 0.413529
365 0.408413
370 0.359756
375 0.543932
380 0.473742
385 0.554618
390 0.415097
395 0.402781
400 0.442393
405 0.49235
410 0.469459
415 0.384206
420 0.491779
425 0.473021
430 0.41636
435 0.447782
440 0.50644
445 0.496694
450 0.432827
455 0.414218
460 0.578448
465 0.487579
470 0.488681
475 0.521665
480 0.551967
485 0.695106
490 0.581752
495 0.595955
500 0.62079
505 0.53954
510 0.660387
515 0.839031
520 1.07725
525 1.47709
530 27.7604
535 532.385
540 901.232
545 247.887
550 30.263
555 4.71181
560 1.61304
565 1.42915
570 1.03568
575 0.847275
580 0.915081
585 0.880046
590 0.784042
595 0.77126
600 2.10187
Ex : 548
200 0.473026
205 0.407461
210 0.343964
215 0.310054
220 0.420871
225 0.364404
230 0.353104
235 0.468661
240 0.318021
245 0.631548
250 0.463193
255 0.409157
260 0.37231
265 0.375703
270 0.460976
275 0.425871
280 0.447347
285 0.465123
290 0.359659
295 0.390794
300 0.412726
305 0.424756
310 0.357756
315 0.465317
320 0.331107
325 0.486702
330 0.363662
335 0.416995
340 0.434848
345 0.348887
350 0.490215
355 0.476847
360 0.364721
365 0.519225
370 0.528399
375 0.500488
380 0.587277
385 0.474346
390 0.455927
395 0.50498
400 0.502446
405 0.373919
410 0.363866
415 0.36636
420 0.383943
425 0.408334
430 0.46105
435 0.474367
440 0.456619
445 0.527946
450 0.483564
455 0.415208
460 0.596405
465 0.524428
470 0.567324
475 0.522359
480 0.579763
485 0.538683
490 0.651275
495 0.5605
500 0.535107
505 0.701178
510 0.691813
515 0.61249
520 0.842134
525 1.13672
530 1.60251
535 31.6637
540 548.722
545 881.392
550 242.868
555 29.5534
560 4.76631
565 1.59179
570 1.21875
575 0.961255
580 0.845988
585 0.698302
590 0.732391
595 0.715357
600 0.694534
Ex : 553
200 0.536032
205 0.427125
210 0.386353
215 0.413153
220 0.413159
225 0.394658
230 0.466407
235 0.336225
240 0.390765
245 0.459212
250 0.354797
255 0.520407
260 0.559055
265 0.301246
270 0.44631
275 0.418931
280 0.44791
285 0.324351
290 0.479434
295 0.530637
300 0.457639
305 0.421875
310 0.55771
315 0.475004
320 0.565791
325 0.556978
330 0.386823
335 0.49537
340 0.515515
345 0.406455
350 0.385096
355 0.374315
360 0.443573
365 0.465781
370 0.566184
375 0.416214
380 0.478123
385 0.467279
390 0.515725
395 0.579548
400 0.502343
405 0.429843
410 0.422734
415 0.320656
420 0.406244
425 0.395137
430 0.409971
435 0.539486
440 0.592961
445 0.457788
450 0.580753
455 0.368938
460 0.4906
465 0.4981
470 0.62829
475 0.5296
480 0.515386
485 0.568569
490 0.570702
495 0.561228
500 0.543418
505 0.650163
510 0.594561
515 0.681975
520 0.6511
525 0.679386
530 0.942201
535 1.38461
540 27.4557
545 509.82
550 864.008
555 242.667
560 29.4941
565 4.49055
570 1.57414
575 1.10941
580 0.843852
585 0.827056
590 0.870344
595 0.751846
600 0.653364
Ex : 558
200 0.42086
205 0.379538
210 0.477974
215 0.493078
220 0.437884
225 0.416134
230 0.417809
235 0.335459
240 0.405393
245 0.411102
250 0.397447
255 0.380255
260 0.446728
265 0.510641
270 0.404454
275 0.536428
280 0.52725
285 0.430145
290 0.44046
295 0.417795
300 0.447113
305 0.476527
310 0.457732
315 0.509664
320 0.605006
325 0.451547
330 0.513378
335 0.345695
340 0.535407
345 0.500317
350 0.479724
355 0.458755
360 0.454737
365 0.468506
370 0.457527
375 0.464631
380 0.437133
385 0.514291
390 0.458464
395 0.588771
400 0.551187
405 0.45602
410 0.513254
415 0.495584
420 0.456103
425 0.490847
430 0.538606
435 0.55662
440 0.555282
445 0.556417
450 0.591848
455 0.521455
460 0.596505
465 0.630139
470 0.51402
475 0.507849
480 0.579872
485 0.518523
490 0.78913
495 0.617874
500 0.559941
505 0.649683
510 0.658794
515 0.649886
520 0.759708
525 0.718829
530 0.954895
535 0.925968
540 1.28834
545 24.3002
550 490.421
555 854.453
560 241.2
565 29.2705
570 4.34053
575 1.47696
580 1.05057
585 1.00417
590 0.85317
595 0.757417
600 0.707362
Ex : 563
200 0.560618
205 0.456244
210 0.553453
215 0.603016
220 0.436489
225 0.483691
230 0.438977
235 0.40836
240 0.438252
245 0.382147
250 0.492419
255 0.490186
260 0.368326
265 0.398777
270 0.603763
275 0.395886
280 0.388242
285 0.440383
290 0.480501
295 0.436668
300 0.457996
305 0.340236
310 0.528909
315 0.425063
320 0.47245
325 0.42272
330 0.56606
335 0.423247
340 0.413265
345 0.46008
350 0.555196
355 0.516946
360 0.472015
365 0.426426
370 0.451048
375 0.436569
380 0.58045
385 0.401417
390 0.430303
395 0.540498
400 0.432811
405 0.454083
410 0.447657
415 0.564744
420 0.446935
425 0.427172
430 0.456114
435 0.440488
440 0.591748
445 0.546342
450 0.424356
455 0.528973
460 0.625373
465 0.457801
470 0.582069
475 0.588523
480 0.546008
485 0.561489
490 0.645258
495 0.652365
500 0.656813
505 0.431324
510 0.553584
515 0.588128
520 0.596471
525 0.662359
530 0.834211
535 0.834614
540 0.996727
545 1.37623
550 23.9176
555 455.74
560 799.492
565 232.646
570 28.4035
575 4.25034
580 1.25293
585 0.950665
590 0.835117
595 0.722608
600 0.442429
Ex : 568
200 0.467777
205 0.512266
210 0.533801
215 0.367453
220 0.457575
225 0.63951
230 0.423978
235 0.449065
240 0.545509
245 0.519034
250 0.471421
255 0.44739
260 0.459723
265 0.335047
270 0.499032
275 0.541983
280 0.510708
285 0.425414
290 0.426093
295 0.605803
300 0.444669
305 0.431668
310 0.441797
315 0.438993
320 0.500563
325 0.489393
330 0.486467
335 0.416991
340 0.579905
345 0.541039
350 0.43845
355 0.536242
360 0.566364
365 0.471445
370 0.508234
375 0.412121
380 0.478085
385 0.551396
390 0.502405
395 0.445
400 0.476874
405 0.475072
410 0.485081
415 0.478483
420 0.524591
425 0.445638
430 0.509064
435 0.361397
440 0.529891
445 0.574594
450 0.498495
455 0.44301
460 0.514795
465 0.547796
470 0.626629
475 0.568228
480 0.63351
485 0.563769
490 0.524852
495 0.546796
500 0.529588
505 0.464043
510 0.538276
515 0.629517
520 0.710934
525 0.654204
530 0.638123
535 0.816982
540 0.945511
545 1.02765
550 1.37804
555 18.717
560 421.841
565 785.489
570 237.03
575 29.008
580 4.29854
585 1.38743
590 0.955552
595 1.04466
600 1.62132
Ex : 573
200 0.454206
205 0.555251
210 0.358346
215 0.423543
220 0.39252
225 0.454352
230 0.45127
235 0.511331
240 0.460994
245 0.4813
250 0.473545
255 0.375051
260 0.582875
265 0.611352
270 0.40267
275 0.460583
280 0.496744
285 0.37229
290 0.390691
295 0.42875
300 0.494854
305 0.460931
310 0.514857
315 0.363235
320 0.500746
325 0.497988
330 0.477171
335 0.50939
340 0.359247
345 0.50282
350 0.574677
355 0.417624
360 0.599649
365 0.489626
370 0.466464
375 0.47011
380 0.438065
385 0.445771
390 0.453244
395 0.547696
400 0.421037
405 0.530235
410 0.50525
415 0.658725
420 0.464746
425 0.495409
430 0.497358
435 0.546205
440 0.546132
445 0.580633
450 0.503312
455 0.424369
460 0.546509
465 0.683328
470 0.48207
475 0.491818
480 0.473259
485 0.478098
490 0.599129
495 0.61674
500 0.526576
505 0.57003
510 0.496837
515 0.588232
520 0.621559
525 0.61816
530 0.571003
535 0.649887
540 0.74766
545 0.898072
550 1.03561
555 1.32881
560 15.9627
565 361.316
570 715.631
575 225.095
580 27.7378
585 4.14184
590 1.21629
595 0.785114
600 2.28713
Ex : 578
200 0.503639
205 0.580823
210 0.520102
215 0.481478
220 0.505506
225 0.390019
230 0.429274
235 0.556376
240 0.436428
245 0.589073
250 0.501451
255 0.611442
260 0.5456
265 0.380158
270 0.382487
275 0.436965
280 0.451601
285 0.466734
290 0.470351
295 0.535625
300 0.360424
305 0.426639
310 0.392518
315 0.493033
320 0.44433
325 0.499452
330 0.424169
335 0.420789
340 0.360496
345 0.375479
350 0.364144
355 0.435208
360 0.420981
365 0.493238
370 0.458733
375 0.552359
380 0.593148
385 0.435303
390 0.511387
395 0.394667
400 0.496495
405 0.410294
410 0.520153
415 0.592719
420 0.538277
425 0.543149
430 0.458315
435 0.613599
440 0.5221
445 0.576464
450 0.587201
455 0.559767
460 0.59209
465 0.670363
470 0.473549
475 0.532294
480 0.528234
485 0.533069
490 0.58834
495 0.538851
500 0.504271
505 0.47304
510 0.610542
515 0.570794
520 0.662263
525 0.712755
530 0.463531
535 0.561503
540 0.64702
545 0.613677
550 0.763307
555 1.06467
560 1.14394
565 14.2837
570 332.009
575 633.957
580 193.814
585 23.8431
590 3.47415
595 1.03355
600 2.34862
Ex : 583
200 0.580673
205 0.456939
210 0.463199
215 0.522155
220 0.472746
225 0.434537
230 0.510324
235 0.469329
240 0.511495
245 0.594061
250 0.548252
255 0.539856
260 0.392962
265 0.403729
270 0.326279
275 0.454283
280 0.4281
285 0.499677
290 0.44425
295 0.477896
300 0.46961
305 0.476196
310 0.482537
315 0.490534
320 0.417409
325 0.620154
330 0.554361
335 0.420081
340 0.555167
345 0.535696
350 0.575638
355 0.517945
360 0.479688
365 0.40968
370 0.527881
375 0.464149
380 0.519965
385 0.495565
390 0.455262
395 0.534314
400 0.487482
405 0.510308
410 0.483041
415 0.613652
420 0.501615
425 0.466017
430 0.442547
435 0.516287
440 0.57592
445 0.413787
450 0.524521
455 0.586262
460 0.510046
465 0.550667
470 0.512606
475 0.634699
480 0.588911
485 0.464585
490 0.524367
495 0.523757
500 0.552682
505 0.591139
510 0.559537
515 0.512504
520 0.499667
525 0.573076
530 0.481351
535 0.4731
540 0.536833
545 0.667021
550 0.671876
555 0.669291
560 0.89806
565 1.108
570 12.04
575 286.767
580 544.335
585 160.163
590 19.6576
595 2.83805
600 0.943302
Ex : 588
200 0.542585
205 0.429969
210 0.344015
215 0.396946
220 0.496493
225 0.433822
230 0.475208
235 0.484752
240 0.437831
245 0.449892
250 0.494377
255 0.452892
260 0.387302
265 0.441011
270 0.453633
275 0.53466
280 0.316724
285 0.451249
290 0.518845
295 0.421854
300 0.502972
305 0.595317
310 0.44179
315 0.42906
320 0.434351
325 0.456802
330 0.54619
335 0.472746
340 0.580265
345 0.531403
350 0.592541
355 0.535051
360 0.471724
365 0.407121
370 0.645727
375 0.478936
380 0.57144
385 0.602002
390 0.533739
395 0.580503
400 0.532515
405 0.428928
410 0.524781
415 0.615569
420 0.606942
425 0.467254
430 0.422001
435 0.5509
440 0.541856
445 0.497224
450 0.722374
455 0.495639
460 0.535546
465 0.411848
470 0.446236
475 0.450864
480 0.611756
485 0.457617
490 0.580097
495 0.584801
500 0.583644
505 0.630379
510 0.531447
515 0.519299
520 0.64147
525 0.570109
530 0.488899
535 0.504522
540 0.440375
545 0.510536
550 0.674065
555 0.706398
560 0.710613
565 0.982558
570 1.16213
575 10.7333
580 244.915
585 460.97
590 139.833
595 17.178
600 2.19589
Ex : 593
200 0.488811
205 0.449639
210 0.541331
215 0.452409
220 0.524212
225 0.569707
230 0.427428
235 0.642879
240 0.64604
245 0.639207
250 0.592039
255 0.426715
260 0.473903
265 0.414926
270 0.367221
275 0.455537
280 0.465554
285 0.468468
290 0.447124
295 0.396448
300 0.605491
305 0.548663
310 0.535921
315 0.412222
320 0.448175
325 0.364127
330 0.462479
335 0.577361
340 0.466658
345 0.416345
350 0.487774
355 0.558394
360 0.382458
365 0.427916
370 0.467212
375 0.543744
380 0.423863
385 0.545325
390 0.594702
395 0.42844
400 0.594986
405 0.420514
410 0.45812
415 0.369502
420 0.569574
425 0.477851
430 0.52923
435 0.575471
440 0.600276
445 0.477112
450 0.458751
455 0.625591
460 0.543964
465 0.520878
470 0.528325
475 0.519897
480 0.559199
485 0.466574
490 0.564897
495 0.63276
500 0.416924
505 0.528108
510 0.683776
515 0.698368
520 0.496034
525 0.629311
530 0.601313
535 0.573961
540 0.543861
545 0.669478
550 0.604603
555 0.694115
560 0.831859
565 0.722027
570 0.822808
575 1.10327
580 9.55153
585 216.295
590 398.308
595 123.103
600 18.5989
Ex : 598
200 0.524178
205 0.436893
210 0.523936
215 0.418364
220 0.411082
225 0.479844
230 0.536724
235 0.476383
240 0.495257
245 0.558563
250 0.483626
255 0.65364
260 0.448126
265 0.582854
270 0.591231
275 0.429464
280 0.384313
285 0.450217
290 0.4413
295 0.570753
300 0.534775
305 0.43955
310 0.434791
315 0.360036
320 0.515673
325 0.469707
330 0.400399
335 0.566577
340 0.579223
345 0.591908
350 0.664079
355 0.534395
360 0.614348
365 0.551659
370 0.597301
375 0.680646
380 0.549428
385 0.519708
390 0.625399
395 0.496594
400 0.615144
405 0.588373
410 0.48469
415 0.435105
420 0.523377
425 0.483583
430 0.530919
435 0.509783
440 0.568568
445 0.531479
450 0.606288
455 0.595332
460 0.593597
465 0.56935
470 0.638063
475 0.467301
480 0.615319
485 0.461104
490 0.623988
495 0.660538
500 0.547924
505 0.537909
510 0.763819
515 0.609664
520 0.556729
525 0.441681
530 0.367209
535 0.447525
540 0.500528
545 0.605982
550 0.689747
555 0.610041
560 0.6821
565 0.640612
570 0.630841
575 0.73739
580 0.835738
585 8.73228
590 194.198
595 354.216
600 226.615
Ex : 603
200 0.465852
205 0.510652
210 0.540093
215 0.50528
220 0.557616
225 0.41585
230 0.361904
235 0.447717
240 0.593885
245 0.556578
250 0.619653
255 0.416774
260 0.453791
265 0.509978
270 0.444028
275 0.447675
280 0.477561
285 0.490168
290 0.606891
295 0.567833
300 0.472217
305 0.532116
310 0.522192
315 0.481717
320 0.484039
325 0.711103
330 0.398736
335 0.657311
340 0.519258
345 0.606715
350 0.663014
355 0.715484
360 0.493829
365 0.427304
370 0.538701
375 0.690029
380 0.718618
385 0.533418
390 0.688323
395 0.533906
400 0.555914
405 0.585802
410 0.592179
415 0.469177
420 0.499198
425 0.539521
430 0.594994
435 0.68469
440 0.607947
445 0.455624
450 0.412256
455 0.379776
460 0.58373
465 0.543085
470 0.665957
475 0.653406
480 0.568981
485 0.615082
490 0.546544
495 0.562912
500 0.523603
505 0.594448
510 0.580617
515 0.558947
520 0.561916
525 0.454024
530 0.497838
535 0.58191
540 0.513728
545 0.533334
550 0.650836
555 0.528047
560 0.590196
565 0.490788
570 0.563383
575 0.706997
580 0.70854
585 0.848516
590 7.53906
595 168.908
600 325.452
