File format V 1.0
ven. 6. janv. 12:25:42 2017
Operator : 
Comments : 

=============================================
SpectroFluorometer parameters
Mode : 3D measurement
Data : Fluorescence
Phospho. : Ordinary
Spectrum : Fluorescence

Scan speed : 2400 nm/mn
Response : 100 ms
PM Voltage : 700 V
Shutter : On

Lambda Ex. Start : 203
Lambda Ex. End : 603
Lambda Ex. Step : 5
Ex. Slit : 5 nm

Lambda Em. Start : 200
Lambda Em. End : 600
Lambda Em. Step : 5
Em. Slit : 5 nm

Repetition : 1
Decal lambda em : 10
=============================================
DATA
Ex : 203
200 11.1381
205 8.39991
210 7.57909
215 12.1932
220 6.93147
225 8.62627
230 10.1448
235 7.84328
240 6.79662
245 9.7986
250 8.16123
255 8.8236
260 8.43956
265 8.48199
270 8.05917
275 9.86905
280 11.6407
285 8.46116
290 8.146
295 7.97359
300 7.16002
305 8.66218
310 7.37483
315 7.32164
320 7.19054
325 9.02209
330 8.2336
335 11.9723
340 11.7807
345 9.36115
350 8.58329
355 10.2474
360 10.5253
365 8.30742
370 10.0206
375 14.388
380 7.38713
385 9.50338
390 11.9931
395 11.4787
400 8.90412
405 11.7208
410 11.3628
415 11.6233
420 10.9831
425 8.55086
430 11.4389
435 12.0281
440 13.2475
445 11.6612
450 13.9533
455 11.8187
460 12.4079
465 13.3187
470 12.9557
475 8.95034
480 9.65676
485 11.9159
490 8.32496
495 9.1503
500 8.66605
505 10.537
510 7.94286
515 6.92267
520 10.9229
525 9.36575
530 7.62802
535 14.4794
540 9.27078
545 8.16581
550 9.76041
555 9.06133
560 12.4437
565 10.0295
570 8.99842
575 9.81818
580 10.9606
585 8.50333
590 12.6482
595 8.27822
600 10.9118
Ex : 208
200 10.0722
205 9.94069
210 8.26284
215 8.04228
220 8.96861
225 10.8248
230 12.8411
235 10.4809
240 8.82157
245 8.08902
250 8.17813
255 8.63476
260 8.88078
265 9.10459
270 8.47212
275 8.01764
280 7.5589
285 8.40127
290 9.8137
295 13.4708
300 9.9324
305 8.40827
310 11.4816
315 9.23662
320 10.9457
325 11.2878
330 10.9372
335 11.9743
340 13.8856
345 10.8132
350 10.0669
355 8.94764
360 10.0081
365 8.39847
370 8.4699
375 12.9298
380 9.30749
385 8.34904
390 9.46107
395 10.4704
400 14.8668
405 9.60371
410 8.27668
415 9.38835
420 11.214
425 9.15442
430 10.4456
435 12.2684
440 14.1503
445 9.394
450 8.21975
455 12.039
460 10.8902
465 8.77896
470 10.2893
475 11.6946
480 12.7728
485 9.71111
490 8.35959
495 12.288
500 5.67697
505 8.90325
510 7.94594
515 9.31235
520 11.9093
525 9.10223
530 9.11815
535 8.9855
540 7.23854
545 12.4839
550 9.41325
555 10.6703
560 10.59
565 11.4939
570 7.93793
575 11.4531
580 10.4304
585 10.9895
590 10.7362
595 12.5643
600 8.2662
Ex : 213
200 9.82381
205 8.89962
210 8.11849
215 7.57038
220 7.74011
225 7.86569
230 7.22031
235 8.785
240 11.4822
245 10.1233
250 5.6738
255 10.2516
260 13.107
265 8.78313
270 8.25985
275 8.44015
280 7.30585
285 7.9124
290 10.0041
295 11.041
300 8.459
305 9.59055
310 10.8102
315 5.80888
320 6.32851
325 8.37302
330 7.77415
335 8.67982
340 10.0808
345 10.8635
350 10.4931
355 13.3405
360 10.2331
365 11.8079
370 10.9316
375 8.2
380 7.40627
385 9.14686
390 9.61866
395 13.5662
400 12.3978
405 14.8292
410 11.4271
415 9.65304
420 10.0724
425 8.4659
430 10.9799
435 9.42652
440 11.1666
445 12.0211
450 10.7422
455 13.9504
460 8.79008
465 9.55278
470 10.1936
475 11.2051
480 9.85272
485 9.29127
490 5.85419
495 8.34806
500 13.2995
505 10.3927
510 8.09419
515 7.58616
520 12.5177
525 14.0127
530 10.3133
535 8.38806
540 9.80792
545 13.7074
550 9.32163
555 10.2649
560 7.50555
565 11.8177
570 9.51569
575 11.9877
580 10.389
585 9.36981
590 9.90412
595 10.7875
600 14.5206
Ex : 218
200 8.60268
205 8.64226
210 6.77888
215 9.50376
220 7.83291
225 10.0115
230 11.6309
235 9.92679
240 7.80898
245 8.53925
250 13.4851
255 6.09985
260 5.83331
265 6.51035
270 9.74595
275 7.80972
280 8.41942
285 8.06469
290 8.12552
295 9.63967
300 10.9507
305 7.78854
310 11.314
315 9.71745
320 9.43859
325 8.86528
330 11.3383
335 9.42684
340 10.0424
345 12.3976
350 8.39117
355 9.34069
360 12.9616
365 10.2194
370 10.8537
375 11.8937
380 12.2571
385 9.50254
390 12.4186
395 11.9785
400 10.837
405 10.5341
410 9.83519
415 10.1402
420 12.0046
425 11.131
430 9.5644
435 10.6533
440 11.5959
445 8.76686
450 7.18488
455 9.63973
460 12.0437
465 11.0732
470 14.0197
475 13.1531
480 9.02349
485 11.7814
490 8.91579
495 9.36109
500 11.5479
505 14.0972
510 10.5557
515 9.97708
520 12.3144
525 9.14847
530 7.28158
535 10.9852
540 10.0345
545 9.37092
550 11.078
555 9.87487
560 8.96109
565 8.53157
570 11.5712
575 7.88703
580 9.58402
585 8.06654
590 10.1362
595 8.63205
600 34.5103
Ex : 223
200 7.96698
205 6.17528
210 8.94809
215 9.47517
220 10.105
225 10.0738
230 10.9526
235 6.7416
240 9.65779
245 8.59366
250 12.9021
255 7.59107
260 11.2124
265 9.05764
270 7.06694
275 6.32339
280 7.26415
285 9.1932
290 8.19358
295 8.10981
300 11.0788
305 7.979
310 6.70606
315 7.29492
320 7.67557
325 7.89833
330 7.53712
335 8.27965
340 7.62401
345 11.055
350 10.6806
355 11.7355
360 9.33815
365 12.3138
370 8.03513
375 10.1568
380 10.7684
385 9.41557
390 9.5027
395 9.2614
400 8.94844
405 11.0328
410 10.1175
415 9.39262
420 9.92672
425 11.5061
430 13.9118
435 9.52185
440 7.94448
445 8.7498
450 12.1602
455 10.347
460 10.8932
465 9.48664
470 11.3173
475 9.73218
480 8.80715
485 9.72411
490 8.87914
495 8.81145
500 8.04783
505 10.486
510 8.30304
515 13.233
520 11.062
525 7.85904
530 8.76209
535 6.31432
540 6.24619
545 9.55657
550 10.6234
555 8.83658
560 8.50482
565 8.44641
570 6.00511
575 12.7484
580 9.05958
585 9.21316
590 11.4841
595 12.0552
600 27.0717
Ex : 228
200 7.55455
205 6.25576
210 8.59682
215 7.75249
220 11.8832
225 9.72197
230 10.2143
235 9.01977
240 7.48737
245 12.7638
250 10.5886
255 6.73871
260 7.24155
265 7.34195
270 7.55112
275 8.67702
280 8.74074
285 5.89295
290 7.31909
295 7.5077
300 9.51157
305 9.00877
310 10.1352
315 8.3352
320 6.76517
325 6.92663
330 7.28705
335 12.8925
340 9.0154
345 12.0647
350 10.3268
355 8.18738
360 11.374
365 7.51283
370 10.6918
375 10.8809
380 9.51209
385 7.35871
390 9.79071
395 11.2785
400 11.4961
405 12.6824
410 12.7728
415 7.84958
420 11.019
425 8.64164
430 10.8599
435 9.57891
440 11.8608
445 10.3299
450 8.57372
455 8.55114
460 8.11128
465 7.43643
470 13.8094
475 10.4256
480 13.5699
485 10.123
490 12.8762
495 9.48794
500 12.2029
505 8.57281
510 9.80477
515 8.6718
520 7.30946
525 10.4727
530 10.8671
535 9.65364
540 10.886
545 9.55863
550 8.57534
555 7.38536
560 11.5051
565 11.0342
570 9.76237
575 10.89
580 11.1736
585 8.50693
590 9.76044
595 11.1596
600 1.80164
Ex : 233
200 8.91667
205 7.57401
210 6.58435
215 8.19927
220 8.87592
225 6.76133
230 8.37799
235 7.75473
240 7.64387
245 10.7961
250 6.90721
255 8.03376
260 7.97033
265 10.6699
270 5.9288
275 7.27652
280 7.23123
285 8.63928
290 8.0288
295 8.66418
300 8.64947
305 7.7972
310 7.22621
315 8.0246
320 8.85777
325 9.87734
330 7.94666
335 7.47759
340 13.4998
345 8.15124
350 11.8428
355 12.0364
360 9.46892
365 9.46645
370 9.65365
375 9.26454
380 9.95293
385 9.83702
390 11.3588
395 10.2068
400 8.71584
405 11.8947
410 10.03
415 8.00333
420 12.5071
425 8.77627
430 10.9927
435 9.10783
440 7.37279
445 10.2747
450 9.56562
455 9.74379
460 10.1555
465 9.25532
470 7.5885
475 7.93501
480 7.3471
485 9.13745
490 9.89386
495 8.14843
500 10.3203
505 7.45411
510 9.08845
515 8.34066
520 9.41986
525 7.92381
530 9.90386
535 11.2439
540 8.25467
545 8.8159
550 8.79556
555 7.74109
560 7.23564
565 9.73245
570 6.01545
575 8.2209
580 10.8171
585 10.1184
590 6.83335
595 7.30716
600 0.831527
Ex : 238
200 7.51779
205 5.37314
210 5.44496
215 9.71359
220 6.87854
225 7.28728
230 7.99977
235 7.65693
240 7.469
245 6.34112
250 9.05836
255 6.45464
260 6.63468
265 6.87016
270 6.74637
275 7.68638
280 6.99423
285 7.87181
290 6.34442
295 6.2949
300 5.92021
305 6.74026
310 5.51061
315 9.75767
320 5.71208
325 8.05984
330 9.52103
335 6.5865
340 7.22536
345 8.04581
350 6.6439
355 8.57351
360 8.10205
365 10.576
370 8.67047
375 8.95589
380 8.06546
385 9.0442
390 8.06282
395 6.09659
400 5.60278
405 10.2163
410 8.75714
415 9.80603
420 7.50946
425 6.10574
430 9.61704
435 7.63057
440 8.23978
445 9.23697
450 7.74473
455 8.26086
460 9.99713
465 9.45061
470 9.25654
475 9.74026
480 8.81102
485 10.2389
490 7.08313
495 10.3319
500 7.27703
505 7.92111
510 9.1357
515 8.73664
520 9.17375
525 7.04182
530 7.66338
535 7.73673
540 7.8337
545 9.46936
550 8.94996
555 7.015
560 8.50352
565 6.25054
570 9.37601
575 9.6701
580 9.19802
585 7.36004
590 7.59569
595 7.20985
600 3.98547
Ex : 243
200 7.43
205 6.93816
210 6.63304
215 5.01967
220 5.40118
225 8.48164
230 9.73704
235 5.8799
240 4.79876
245 6.02775
250 8.43705
255 6.24759
260 7.3072
265 6.63242
270 7.09451
275 5.69602
280 6.8455
285 8.58259
290 3.76937
295 4.06029
300 5.71287
305 5.4877
310 5.67041
315 6.69406
320 5.09167
325 7.61035
330 8.04693
335 6.32972
340 7.52434
345 6.58112
350 7.86273
355 9.31516
360 7.39551
365 8.7992
370 6.59457
375 7.41183
380 6.52891
385 7.84722
390 8.37487
395 8.71393
400 7.14465
405 8.25595
410 9.2746
415 6.8326
420 6.76995
425 10.3704
430 9.57477
435 8.66203
440 8.30916
445 6.20389
450 7.71612
455 7.78332
460 10.4511
465 7.94133
470 7.79801
475 6.58001
480 4.9948
485 5.94118
490 5.45375
495 7.80645
500 8.47065
505 6.57553
510 7.73809
515 7.87431
520 8.78537
525 6.66725
530 7.29828
535 6.68743
540 7.86866
545 5.16233
550 7.80109
555 7.44386
560 6.22501
565 8.0793
570 5.55062
575 7.76046
580 8.69393
585 5.55554
590 6.74996
595 8.55895
600 0.973976
Ex : 248
200 6.51014
205 4.37551
210 6.2099
215 6.71664
220 5.70652
225 4.80026
230 6.65444
235 6.23779
240 6.02157
245 4.90525
250 5.30402
255 4.56364
260 4.51656
265 6.27304
270 7.84388
275 5.19016
280 5.37508
285 5.60421
290 4.82465
295 5.78712
300 5.42289
305 6.77456
310 6.02298
315 5.23935
320 7.87629
325 5.38033
330 6.20721
335 5.62238
340 7.75527
345 7.55197
350 8.27901
355 5.12406
360 6.4082
365 5.48702
370 8.85532
375 7.41422
380 6.51028
385 6.46868
390 5.36724
395 6.99937
400 6.72606
405 6.65118
410 4.93137
415 5.55474
420 5.86853
425 7.33419
430 9.23334
435 6.28858
440 5.77189
445 6.80218
450 6.77912
455 6.02889
460 6.51962
465 6.7529
470 5.34421
475 7.85235
480 5.0411
485 7.45018
490 5.7285
495 5.07762
500 7.14007
505 5.51581
510 5.72135
515 7.60007
520 7.57431
525 5.74916
530 6.47338
535 4.74882
540 5.87904
545 6.18051
550 6.06446
555 4.58994
560 6.16547
565 7.03955
570 5.42199
575 5.13378
580 6.52015
585 7.11572
590 5.60612
595 5.52226
600 6.45204
Ex : 253
200 4.19072
205 4.7066
210 5.62475
215 4.65458
220 5.55872
225 3.33115
230 4.94558
235 4.92069
240 4.64508
245 6.13977
250 5.03147
255 4.38954
260 3.85869
265 6.27218
270 4.20709
275 6.15175
280 3.63546
285 4.61979
290 3.35049
295 4.23191
300 4.53155
305 4.91544
310 5.6512
315 4.87891
320 4.2777
325 5.39568
330 5.0163
335 6.00991
340 7.61099
345 6.4192
350 5.82014
355 7.23553
360 5.87205
365 5.91963
370 6.34668
375 6.71552
380 5.65048
385 6.87538
390 6.8839
395 5.29097
400 4.91598
405 5.43138
410 4.88939
415 4.73421
420 5.19802
425 5.68276
430 6.13895
435 6.2285
440 5.53562
445 5.88151
450 8.15977
455 5.22022
460 5.68184
465 6.62789
470 5.75777
475 4.77551
480 4.89047
485 4.39821
490 6.61194
495 5.56421
500 7.60627
505 6.69643
510 5.7683
515 6.27503
520 5.91358
525 5.70312
530 6.46974
535 6.73346
540 5.05484
545 4.96456
550 4.33022
555 3.81824
560 6.05157
565 4.65778
570 5.13018
575 3.4755
580 4.27654
585 5.68394
590 4.28292
595 4.96965
600 32.3802
Ex : 258
200 4.99598
205 5.83562
210 3.70984
215 4.17561
220 4.30204
225 4.168
230 4.15339
235 3.84548
240 3.5674
245 3.75526
250 4.73252
255 4.2775
260 4.9051
265 4.52173
270 3.4235
275 3.76823
280 3.49927
285 6.11031
290 4.62096
295 4.20242
300 4.08453
305 3.9321
310 3.69216
315 4.6265
320 4.15973
325 3.1734
330 3.75528
335 4.54527
340 4.69659
345 5.27503
350 5.02596
355 5.79754
360 5.19328
365 5.82489
370 5.0067
375 3.9114
380 4.11853
385 3.84127
390 4.66322
395 5.06193
400 6.65439
405 5.58095
410 4.53865
415 5.44577
420 5.447
425 4.14874
430 3.7062
435 3.92144
440 4.42534
445 5.76018
450 4.4704
455 4.69594
460 6.69431
465 4.77814
470 4.16225
475 4.4511
480 5.03938
485 5.5014
490 5.15118
495 4.63919
500 6.77799
505 5.58264
510 5.97631
515 4.0505
520 4.47998
525 4.71066
530 4.66751
535 4.23256
540 4.99614
545 3.55439
550 4.63836
555 4.9253
560 4.57042
565 4.50623
570 4.46043
575 3.65252
580 2.80116
585 4.13033
590 3.40254
595 3.30656
600 3.47799
Ex : 263
200 3.35494
205 3.19982
210 2.94959
215 2.48075
220 3.08225
225 2.67703
230 3.33286
235 3.68671
240 3.50393
245 2.72155
250 3.22863
255 4.52945
260 3.4918
265 2.65732
270 3.57097
275 3.28471
280 2.55785
285 3.7368
290 2.88659
295 2.44686
300 2.26486
305 3.39537
310 3.80684
315 2.47133
320 3.63523
325 3.07229
330 2.99331
335 4.11377
340 3.19055
345 3.39542
350 4.3321
355 3.11509
360 3.82211
365 3.3551
370 4.32734
375 4.20929
380 4.24067
385 3.77338
390 4.47899
395 4.09846
400 3.79293
405 3.29983
410 4.4569
415 4.37528
420 4.24972
425 2.85483
430 4.06546
435 3.54877
440 5.12931
445 3.64743
450 3.60199
455 4.45302
460 4.42439
465 5.2702
470 4.30999
475 3.29196
480 2.54792
485 4.43127
490 3.24775
495 3.60685
500 2.62523
505 4.7761
510 4.07535
515 3.63453
520 3.47361
525 3.49058
530 3.83343
535 3.41813
540 3.42376
545 5.49597
550 3.66674
555 5.06522
560 2.83193
565 3.36606
570 2.99077
575 2.61079
580 3.63484
585 2.83184
590 3.43606
595 3.38248
600 3.51617
Ex : 268
200 2.08417
205 1.86434
210 2.48571
215 2.78716
220 2.36955
225 2.27071
230 2.12078
235 2.15
240 2.90099
245 1.88013
250 3.97464
255 2.55156
260 2.71302
265 2.38914
270 2.20603
275 2.45466
280 2.40959
285 3.1112
290 2.59788
295 2.28902
300 2.52712
305 1.93929
310 2.5474
315 1.9125
320 2.67463
325 3.1241
330 3.47075
335 2.62263
340 2.72444
345 3.29163
350 3.13191
355 3.64429
360 3.93826
365 3.24556
370 3.66437
375 3.43457
380 3.66375
385 3.60543
390 3.27647
395 2.67016
400 2.85353
405 3.60675
410 3.66286
415 3.36818
420 2.7656
425 3.27599
430 4.39682
435 2.45818
440 2.70671
445 2.94304
450 2.5094
455 2.87799
460 3.7525
465 2.43949
470 3.8349
475 3.32722
480 3.04853
485 2.90292
490 2.69923
495 3.49224
500 2.92699
505 2.6764
510 2.42764
515 2.38457
520 2.62561
525 2.83416
530 3.03393
535 2.94032
540 2.86644
545 3.15861
550 3.17823
555 3.37545
560 2.80355
565 2.6325
570 2.66165
575 2.67257
580 2.5849
585 3.4829
590 2.57147
595 2.83739
600 5.9666
Ex : 273
200 1.92062
205 1.74357
210 2.14347
215 1.84907
220 1.81489
225 1.7993
230 1.99993
235 1.65715
240 1.87833
245 2.31779
250 1.26563
255 1.97095
260 1.88721
265 2.21695
270 2.39287
275 2.49655
280 2.01655
285 2.14577
290 2.67598
295 2.70172
300 2.1778
305 2.17147
310 2.21402
315 1.9329
320 2.5294
325 3.00614
330 2.05905
335 2.52437
340 1.95504
345 2.94122
350 1.89676
355 1.91692
360 2.09421
365 2.35694
370 2.44714
375 2.60602
380 2.35608
385 1.85497
390 2.43119
395 3.25073
400 3.12865
405 2.29248
410 3.24764
415 2.93215
420 2.52279
425 3.21037
430 1.97284
435 2.2125
440 3.53862
445 2.66277
450 2.39225
455 2.45231
460 2.14394
465 2.9384
470 2.33569
475 1.67048
480 1.84668
485 2.50234
490 2.45503
495 2.79432
500 2.83399
505 2.38546
510 2.68796
515 2.60519
520 2.05609
525 2.1107
530 1.75662
535 1.63703
540 2.99732
545 2.57726
550 2.34817
555 2.12677
560 2.10886
565 1.85349
570 2.25185
575 1.82094
580 3.33473
585 2.10529
590 1.9972
595 1.8715
600 0.27627
Ex : 278
200 1.74767
205 1.57708
210 1.55008
215 1.46487
220 1.43725
225 1.61515
230 1.77301
235 1.27872
240 1.65372
245 1.66545
250 1.83325
255 1.63402
260 1.60691
265 1.22155
270 1.43527
275 2.37274
280 2.10119
285 2.08841
290 2.40678
295 2.3282
300 1.33452
305 1.36792
310 1.78533
315 1.73657
320 1.72632
325 2.27415
330 1.69076
335 2.08469
340 2.1319
345 1.81167
350 2.07762
355 1.83541
360 1.74826
365 2.67454
370 3.07839
375 1.9567
380 2.45369
385 2.27679
390 2.29433
395 2.56085
400 2.40368
405 2.38024
410 2.02744
415 2.3532
420 2.0485
425 2.41587
430 2.42854
435 2.2857
440 2.1484
445 1.79078
450 2.17143
455 2.97324
460 2.68154
465 1.95031
470 2.1203
475 1.83735
480 2.01273
485 2.08467
490 2.18157
495 2.12205
500 1.87987
505 2.24162
510 2.1415
515 1.87461
520 1.91386
525 1.70258
530 1.24573
535 2.05327
540 2.2707
545 2.23878
550 2.2808
555 2.09455
560 1.99772
565 1.81913
570 1.6935
575 1.56368
580 2.02451
585 2.24668
590 2.18762
595 1.45577
600 0.165661
Ex : 283
200 1.45315
205 1.49939
210 1.25864
215 1.05916
220 1.15433
225 1.17727
230 1.94314
235 1.81667
240 1.04342
245 1.23151
250 1.04985
255 1.20873
260 1.29025
265 1.36043
270 1.51522
275 1.5803
280 1.89681
285 1.23844
290 0.852799
295 1.64524
300 1.2812
305 1.25402
310 1.55584
315 1.50983
320 1.78534
325 1.88487
330 1.56702
335 1.89029
340 2.05293
345 1.53638
350 1.66836
355 2.07946
360 2.69684
365 1.69272
370 1.90879
375 1.87083
380 1.37119
385 1.50271
390 2.65312
395 2.41285
400 2.23988
405 1.93264
410 2.44608
415 2.17664
420 2.24965
425 2.33959
430 1.4951
435 1.6099
440 1.47934
445 1.52037
450 1.95176
455 1.79834
460 1.74722
465 1.81888
470 1.65158
475 1.62802
480 1.54234
485 1.68301
490 1.68683
495 1.92889
500 1.7539
505 1.61524
510 1.84694
515 1.99767
520 1.91969
525 1.66403
530 1.52407
535 1.90159
540 1.7906
545 1.69962
550 1.42397
555 1.76703
560 1.764
565 2.01334
570 1.73673
575 1.86218
580 1.83756
585 1.30909
590 1.61385
595 1.43402
600 3.86913
Ex : 288
200 1.26596
205 1.16959
210 1.26353
215 1.70295
220 1.0291
225 0.773075
230 1.48518
235 1.13755
240 1.10954
245 0.90221
250 0.879276
255 1.21134
260 1.33916
265 1.33697
270 1.77065
275 1.30768
280 1.36036
285 0.976812
290 1.18503
295 1.11748
300 1.47999
305 0.906226
310 1.06177
315 1.47746
320 1.07376
325 1.55306
330 1.6942
335 1.69361
340 1.31399
345 1.44863
350 1.41798
355 1.68502
360 1.4573
365 1.56061
370 1.89735
375 1.72355
380 1.63714
385 1.64759
390 1.83315
395 1.59085
400 1.56612
405 1.60437
410 1.39238
415 2.08386
420 1.9843
425 1.3304
430 1.98653
435 1.49681
440 1.6977
445 1.65611
450 1.60319
455 1.9367
460 1.52431
465 1.81934
470 1.9126
475 1.67585
480 1.68696
485 1.17687
490 1.34477
495 1.48234
500 1.40706
505 1.66313
510 1.40596
515 1.81445
520 1.58473
525 1.07856
530 1.4076
535 1.1229
540 1.47736
545 0.956029
550 1.3501
555 1.42062
560 1.0364
565 1.36197
570 1.41792
575 1.18609
580 1.48686
585 1.08336
590 1.10406
595 1.46409
600 0.251009
Ex : 293
200 0.780549
205 0.870556
210 0.777489
215 0.869869
220 0.834205
225 0.778637
230 0.875026
235 1.12597
240 0.765749
245 1.27665
250 1.22227
255 1.08291
260 1.44174
265 0.974205
270 1.26943
275 0.973904
280 0.956605
285 1.09318
290 1.13964
295 1.16718
300 1.02842
305 0.955695
310 1.211
315 0.858155
320 1.08504
325 1.27939
330 1.21366
335 1.15381
340 1.36211
345 1.53095
350 1.57114
355 1.57554
360 1.64552
365 1.38935
370 1.05146
375 1.52012
380 1.416
385 1.50125
390 1.46914
395 1.48348
400 1.47909
405 1.53177
410 1.46435
415 1.43105
420 1.39959
425 1.20018
430 1.42982
435 1.283
440 1.4933
445 1.64724
450 1.47962
455 1.34488
460 1.07425
465 1.42246
470 1.49073
475 1.41005
480 1.24246
485 1.40023
490 1.20133
495 1.71356
500 1.40137
505 1.13465
510 1.0965
515 0.945353
520 0.925059
525 1.23977
530 1.21699
535 0.915202
540 0.861056
545 0.780407
550 1.33822
555 1.50385
560 1.42804
565 1.06217
570 1.31983
575 1.27792
580 1.59352
585 1.32743
590 0.90075
595 1.01284
600 0.115257
Ex : 298
200 0.891939
205 0.910116
210 0.827509
215 0.779897
220 0.710606
225 1.22858
230 0.977037
235 0.905253
240 1.17309
245 0.748243
250 1.06758
255 1.09977
260 0.806037
265 0.933578
270 1.04448
275 1.16449
280 0.824958
285 0.912938
290 1.03702
295 0.884539
300 0.920732
305 0.726488
310 0.89052
315 1.02747
320 0.731736
325 1.156
330 1.21682
335 1.11544
340 1.44428
345 1.32276
350 1.15894
355 1.31752
360 1.384
365 1.52948
370 1.68376
375 1.57424
380 1.73792
385 1.49493
390 1.56116
395 1.53564
400 1.66673
405 1.83735
410 1.81858
415 1.28009
420 1.03187
425 1.265
430 1.46657
435 1.36937
440 1.7708
445 1.46332
450 0.99114
455 1.51073
460 1.43153
465 1.39053
470 1.1439
475 1.32881
480 1.15983
485 1.12574
490 0.997108
495 1.25076
500 0.697515
505 0.879842
510 1.17339
515 1.0538
520 1.3141
525 0.805439
530 0.866001
535 0.933474
540 0.893222
545 1.05724
550 1.15421
555 1.40191
560 1.09874
565 0.853302
570 0.960543
575 0.741919
580 0.662911
585 1.2542
590 1.60638
595 0.948602
600 1.24032
Ex : 303
200 0.941447
205 0.929576
210 0.681008
215 0.936968
220 0.929793
225 0.864782
230 0.692855
235 0.687772
240 0.567439
245 0.861953
250 0.781273
255 0.664017
260 0.987232
265 0.983285
270 0.703599
275 0.989342
280 0.944788
285 0.767582
290 0.855659
295 0.977846
300 1.01479
305 0.968184
310 0.795215
315 0.894678
320 0.671634
325 0.968068
330 1.13097
335 1.24774
340 1.48502
345 1.2602
350 1.58643
355 1.32758
360 1.18634
365 1.16414
370 1.50673
375 1.3263
380 1.34506
385 1.18912
390 1.2361
395 1.35149
400 1.30701
405 1.09422
410 1.15831
415 1.47994
420 1.27995
425 1.33088
430 1.11937
435 1.12653
440 1.3125
445 1.12995
450 1.21776
455 0.970958
460 1.07202
465 1.09805
470 0.998046
475 0.824838
480 1.23528
485 1.35354
490 1.06046
495 1.01767
500 1.03133
505 1.04152
510 1.02383
515 0.763491
520 0.803997
525 0.935269
530 0.763219
535 0.928524
540 1.04873
545 0.700765
550 1.35311
555 0.925768
560 0.854535
565 0.764514
570 1.02791
575 0.932009
580 0.846812
585 0.802139
590 1.1108
595 0.929018
600 0.777518
Ex : 308
200 0.463609
205 0.539975
210 0.723499
215 0.899144
220 0.495591
225 0.671022
230 0.654787
235 0.951771
240 0.683862
245 0.461486
250 0.590024
255 0.65014
260 0.914885
265 0.613663
270 0.62639
275 0.67512
280 0.69477
285 0.647677
290 0.486333
295 0.489821
300 0.722839
305 0.780253
310 0.633155
315 0.649003
320 0.778951
325 1.14379
330 1.06698
335 1.04585
340 0.900185
345 1.02681
350 0.985244
355 1.00399
360 0.966901
365 1.21942
370 1.0915
375 1.26865
380 1.27088
385 1.22384
390 0.913461
395 1.35705
400 1.35658
405 1.13818
410 1.20995
415 1.71316
420 0.944839
425 1.13345
430 1.10084
435 1.03818
440 0.943155
445 1.08298
450 1.1478
455 1.05217
460 1.28612
465 1.04528
470 0.993814
475 1.06938
480 0.74144
485 0.944599
490 0.788023
495 0.738087
500 0.889361
505 0.875631
510 0.955514
515 0.704003
520 0.69102
525 0.913815
530 0.860811
535 0.791806
540 0.940337
545 0.706147
550 0.851369
555 0.549185
560 0.707468
565 0.727389
570 0.53436
575 0.660664
580 0.495086
585 0.6327
590 0.803042
595 0.775153
600 1.29894
Ex : 313
200 0.548085
205 0.394859
210 0.543049
215 0.652425
220 0.67323
225 0.560375
230 0.585682
235 0.41837
240 0.662579
245 0.611346
250 0.532878
255 0.326318
260 0.507517
265 0.688787
270 0.842368
275 0.516746
280 0.539968
285 0.7317
290 0.467312
295 0.584219
300 0.495341
305 0.668764
310 1.30473
315 0.775275
320 0.696341
325 0.932252
330 1.33076
335 0.944094
340 0.968942
345 1.2201
350 1.07154
355 1.10169
360 1.34517
365 1.17143
370 1.25484
375 1.71023
380 1.59607
385 1.56743
390 1.44794
395 1.59517
400 1.91293
405 1.61946
410 1.68961
415 1.5802
420 1.87761
425 1.58968
430 1.44793
435 1.51558
440 1.6472
445 1.65529
450 1.38513
455 1.55143
460 1.32801
465 1.37897
470 1.29013
475 1.49771
480 1.33577
485 1.09242
490 1.09815
495 1.08691
500 1.07302
505 0.944484
510 1.11957
515 1.08522
520 0.904729
525 0.821337
530 0.806185
535 0.731922
540 0.859046
545 0.774337
550 0.69574
555 0.740119
560 0.604858
565 0.596102
570 0.653876
575 0.81744
580 0.620074
585 0.723582
590 0.732553
595 0.5981
600 0.0680615
Ex : 318
200 0.635538
205 0.59207
210 0.520024
215 0.360486
220 0.614118
225 0.518551
230 0.649109
235 0.574592
240 0.516034
245 0.650838
250 0.497626
255 0.627474
260 0.590413
265 0.533857
270 0.55047
275 0.689879
280 0.360522
285 0.589428
290 0.357021
295 0.709863
300 0.555482
305 0.461807
310 0.781375
315 3.0877
320 2.12169
325 1.27356
330 1.56896
335 2.17926
340 2.27951
345 2.46352
350 3.16372
355 4.03318
360 5.09106
365 5.82009
370 6.4549
375 7.39763
380 8.53168
385 8.90455
390 9.93982
395 10.5683
400 10.5248
405 11.3103
410 10.3745
415 11.1526
420 10.7316
425 10.6999
430 9.76919
435 9.92932
440 9.46254
445 8.76764
450 8.66479
455 8.03352
460 7.51888
465 7.32738
470 6.12929
475 5.70914
480 5.46676
485 4.90203
490 4.44947
495 4.3457
500 3.34216
505 3.07583
510 3.09466
515 2.51317
520 2.23259
525 2.1889
530 2.00784
535 1.76198
540 1.60378
545 1.40916
550 1.07022
555 1.09524
560 1.20803
565 0.959566
570 0.914455
575 0.921488
580 0.733833
585 0.694763
590 0.726076
595 0.553138
600 0.988103
Ex : 323
200 0.470123
205 0.597869
210 0.411416
215 0.532159
220 0.553649
225 0.4686
230 0.40889
235 0.488806
240 0.463818
245 0.339805
250 0.651544
255 0.659833
260 0.555449
265 0.532716
270 0.433563
275 0.476029
280 0.503139
285 0.398119
290 0.504557
295 0.558557
300 0.579378
305 0.519202
310 0.864366
315 18.304
320 75.8821
325 32.7054
330 6.6587
335 4.31968
340 5.10297
345 7.26874
350 10.0234
355 13.3001
360 15.7863
365 18.4073
370 21.4979
375 24.8331
380 27.7232
385 31.8793
390 32.8471
395 35.1286
400 36.297
405 37.7313
410 37.8643
415 36.4036
420 36.5248
425 34.3272
430 32.9961
435 32.3797
440 29.8731
445 28.8024
450 27.0954
455 25.717
460 24.4469
465 22.7923
470 20.596
475 19.5267
480 17.3859
485 16.0571
490 14.5652
495 12.9579
500 11.5083
505 10.251
510 8.77125
515 7.60303
520 7.30867
525 6.64971
530 5.74716
535 4.5475
540 4.06664
545 3.57431
550 3.14335
555 2.60482
560 2.14696
565 2.06702
570 1.84785
575 1.65315
580 1.39092
585 1.03104
590 0.892035
595 0.972177
600 0.979791
Ex : 328
200 0.414184
205 0.68838
210 0.418864
215 0.432857
220 0.560983
225 0.471159
230 0.416907
235 0.469974
240 0.376232
245 0.457174
250 0.532239
255 0.572376
260 0.429635
265 0.676721
270 0.613766
275 0.517241
280 0.532707
285 0.487513
290 0.441053
295 0.48467
300 0.571356
305 0.481889
310 0.741959
315 4.91104
320 166.306
325 384.948
330 115.241
335 18.2247
340 8.267
345 8.59714
350 9.99848
355 14.1933
360 18.3639
365 20.7382
370 23.0048
375 24.6495
380 28.2215
385 31.7067
390 34.3015
395 37.4443
400 36.9318
405 37.4867
410 38.4801
415 38.9209
420 37.2179
425 35.1799
430 33.8816
435 32.4011
440 31.479
445 29.7566
450 27.1075
455 25.8297
460 24.2679
465 23.1076
470 20.7611
475 18.7596
480 17.5579
485 16.0647
490 14.6614
495 12.8946
500 11.6323
505 10.3208
510 8.90793
515 8.41085
520 7.08814
525 6.31346
530 5.61447
535 5.03931
540 4.25969
545 3.7671
550 3.49419
555 2.77032
560 2.71824
565 2.36433
570 2.17141
575 1.49053
580 1.57849
585 1.17283
590 1.32377
595 0.964345
600 0.616141
Ex : 333
200 0.30142
205 0.469045
210 0.423293
215 0.597186
220 0.685159
225 0.562683
230 0.662009
235 0.532013
240 0.497117
245 0.322414
250 0.553769
255 0.388117
260 0.422661
265 0.523384
270 0.521312
275 0.365022
280 0.530095
285 0.380742
290 0.467186
295 0.498048
300 0.665061
305 0.677338
310 0.694302
315 0.738585
320 21.9732
325 430.1
330 737.699
335 189.175
340 27.0154
345 8.9912
350 7.43738
355 7.55681
360 10.455
365 14.983
370 15.5519
375 15.7998
380 16.917
385 19.3167
390 21.3866
395 22.4187
400 22.7558
405 23.5599
410 24.4681
415 24.2163
420 22.9232
425 20.9392
430 20.9725
435 19.5502
440 18.8166
445 17.8322
450 16.026
455 15.6156
460 14.1212
465 13.1865
470 12.7018
475 11.0188
480 10.0297
485 9.09769
490 8.66231
495 7.94654
500 7.4855
505 6.41517
510 5.70062
515 5.17089
520 4.58463
525 3.99819
530 3.52589
535 3.30426
540 2.99467
545 2.78722
550 2.35832
555 2.34894
560 2.09984
565 1.69929
570 1.65378
575 1.46272
580 1.33474
585 1.17078
590 1.06394
595 0.984251
600 0.877684
Ex : 338
200 0.405523
205 0.476135
210 0.472448
215 0.392194
220 0.463951
225 0.444684
230 0.421421
235 0.485251
240 0.389818
245 0.411472
250 0.49637
255 0.507339
260 0.454201
265 0.403298
270 0.373184
275 0.465793
280 0.482475
285 0.42131
290 0.486308
295 0.511293
300 0.617106
305 0.626861
310 0.679865
315 0.779574
320 1.11993
325 38.9921
330 621.334
335 930.841
340 227.681
345 30.8629
350 7.96825
355 5.48386
360 4.93978
365 6.62204
370 10.6132
375 11.0813
380 10.608
385 11.6746
390 13.4659
395 14.7147
400 14.2466
405 14.4065
410 14.7386
415 15.6344
420 14.5948
425 13.4155
430 12.9131
435 13.2154
440 11.841
445 11.3588
450 10.6725
455 9.57594
460 9.37761
465 8.64177
470 7.69579
475 7.01843
480 6.64067
485 6.12813
490 5.59508
495 5.36527
500 4.97151
505 4.15444
510 4.1338
515 3.76363
520 3.23601
525 2.97015
530 2.8482
535 2.62756
540 2.24453
545 2.10244
550 2.12589
555 1.77232
560 1.66779
565 1.56378
570 1.41287
575 1.23986
580 1.0848
585 0.898661
590 0.822529
595 0.894875
600 0.671074
Ex : 343
200 0.407014
205 0.397585
210 0.426431
215 0.373132
220 0.332784
225 0.485931
230 0.440297
235 0.370861
240 0.417626
245 0.412282
250 0.408114
255 0.445639
260 0.601222
265 0.397211
270 0.372293
275 0.525943
280 0.393385
285 0.410109
290 0.43596
295 0.446909
300 0.497238
305 0.438968
310 0.645883
315 0.765832
320 0.916657
325 1.47844
330 45.083
335 717.65
340 1049.31
345 250.45
350 32.631
355 7.52238
360 4.32103
365 3.40841
370 4.54297
375 8.08389
380 10.7475
385 11.0005
390 11.489
395 11.4867
400 11.7891
405 11.8224
410 13.0232
415 13.7045
420 13.3916
425 11.7245
430 11.3898
435 11.3816
440 10.6612
445 10.6785
450 9.42464
455 8.83034
460 7.90694
465 7.7958
470 7.29133
475 6.62968
480 6.25944
485 5.72792
490 5.26571
495 4.60011
500 4.30423
505 3.88202
510 3.48639
515 3.34504
520 2.89213
525 2.81427
530 2.8392
535 2.50932
540 2.41049
545 1.99384
550 1.69024
555 1.54455
560 1.76099
565 1.4207
570 1.21241
575 1.37002
580 1.20572
585 0.906126
590 0.858285
595 0.943695
600 0.791372
Ex : 348
200 0.412577
205 0.373998
210 0.359502
215 0.34031
220 0.34763
225 0.441925
230 0.381132
235 0.417581
240 0.350997
245 0.475516
250 0.35296
255 0.431668
260 0.330977
265 0.413956
270 0.401588
275 0.475216
280 0.449241
285 0.538147
290 0.503685
295 0.433624
300 0.450134
305 0.454588
310 0.506507
315 0.489284
320 0.629931
325 1.04567
330 1.55352
335 46.0859
340 713.508
345 1091.29
350 277.427
355 35.3344
360 7.41071
365 3.74202
370 3.29121
375 3.42919
380 7.65702
385 13.2009
390 14.9468
395 14.2688
400 12.9598
405 13.3038
410 14.9605
415 15.8748
420 15.4501
425 13.3798
430 12.3556
435 12.3675
440 11.8871
445 11.1676
450 10.6781
455 9.38029
460 8.84219
465 8.04555
470 7.67537
475 6.69204
480 6.72185
485 6.15199
490 5.59624
495 5.07216
500 4.69772
505 4.28117
510 3.94174
515 3.6552
520 3.2761
525 2.97259
530 2.73086
535 2.37604
540 2.1451
545 1.93382
550 1.99509
555 1.67399
560 1.74128
565 1.53067
570 1.35911
575 1.12533
580 1.09963
585 0.885956
590 0.744099
595 0.779766
600 0.0887344
Ex : 353
200 0.4941
205 0.358209
210 0.385701
215 0.396803
220 0.400607
225 0.445672
230 0.349837
235 0.375727
240 0.404212
245 0.354895
250 0.499035
255 0.339723
260 0.393916
265 0.4025
270 0.391336
275 0.334295
280 0.446405
285 0.527066
290 0.338098
295 0.346724
300 0.351769
305 0.533458
310 0.437084
315 0.475345
320 0.583211
325 0.738237
330 0.920569
335 1.7942
340 47.3734
345 746.971
350 1092.65
355 270.339
360 34.4492
365 7.12158
370 3.81703
375 3.13591
380 4.06697
385 9.76813
390 16.7038
395 17.3184
400 15.3734
405 13.9354
410 15.6338
415 18.1576
420 17.0657
425 15.0261
430 13.1102
435 12.9475
440 12.8019
445 12.5614
450 11.653
455 10.2816
460 8.91846
465 8.97201
470 8.22929
475 7.39975
480 7.26543
485 6.50936
490 6.17462
495 5.26454
500 5.23452
505 4.47012
510 4.03324
515 3.88138
520 3.67645
525 3.19554
530 2.7871
535 2.58977
540 2.43536
545 2.29782
550 2.02515
555 1.93747
560 1.54747
565 1.53519
570 1.38248
575 1.13552
580 1.0474
585 0.899722
590 0.775631
595 0.661825
600 0.51338
Ex : 358
200 0.312877
205 0.319036
210 0.340379
215 0.312381
220 0.32429
225 0.296472
230 0.291887
235 0.358748
240 0.312173
245 0.299998
250 0.331056
255 0.31591
260 0.416779
265 0.411528
270 0.368746
275 0.398117
280 0.39041
285 0.330579
290 0.478455
295 0.324373
300 0.490361
305 0.39588
310 0.446313
315 0.44884
320 0.457484
325 0.575404
330 0.939844
335 0.979079
340 1.81034
345 44.7853
350 718.926
355 1113.32
360 275.772
365 34.8361
370 6.69577
375 4.06095
380 4.22753
385 7.07869
390 11.9878
395 17.2403
400 15.8331
405 14.2753
410 15.261
415 16.2503
420 16.1086
425 14.0893
430 12.8526
435 12.6496
440 12.732
445 12.1969
450 11.5215
455 10.1709
460 9.62846
465 8.87924
470 8.4661
475 8.0242
480 7.11509
485 6.5674
490 6.15978
495 5.7621
500 5.27777
505 4.99499
510 4.32987
515 3.72475
520 3.68847
525 3.08535
530 2.82803
535 2.67679
540 2.31939
545 2.18957
550 2.04043
555 1.84274
560 1.66887
565 1.45219
570 1.27587
575 1.15764
580 0.981327
585 0.894492
590 0.745735
595 0.752791
600 0.307216
Ex : 363
200 0.315007
205 0.229483
210 0.330158
215 0.311332
220 0.33505
225 0.345214
230 0.234004
235 0.354739
240 0.302821
245 0.340712
250 0.321565
255 0.300307
260 0.25244
265 0.240321
270 0.283635
275 0.279341
280 0.276721
285 0.316994
290 0.300161
295 0.31446
300 0.311459
305 0.343646
310 0.384139
315 0.463113
320 0.491576
325 0.532243
330 0.622223
335 0.819657
340 1.09317
345 1.77788
350 40.2829
355 694.93
360 1108.96
365 284.836
370 35.795
375 7.14683
380 5.91655
385 8.76981
390 12.2079
395 14.1246
400 16.1332
405 17.8269
410 18.5218
415 19.5232
420 17.5184
425 14.9401
430 14.0109
435 13.9548
440 13.7877
445 13.6082
450 12.0471
455 11.1798
460 10.197
465 9.53414
470 8.85954
475 8.90959
480 7.80741
485 7.40798
490 6.79518
495 5.87085
500 5.38042
505 5.01016
510 4.84285
515 4.32208
520 4.01523
525 3.44919
530 3.11146
535 2.7406
540 2.42815
545 2.21641
550 2.18285
555 1.8547
560 1.81658
565 1.54031
570 1.53769
575 1.19781
580 1.02061
585 0.823895
590 0.764268
595 0.716138
600 0.152037
Ex : 368
200 0.384082
205 0.250793
210 0.264407
215 0.254993
220 0.262973
225 0.376219
230 0.312302
235 0.301607
240 0.234343
245 0.302525
250 0.300159
255 0.329459
260 0.308254
265 0.258332
270 0.300121
275 0.352501
280 0.369912
285 0.290493
290 0.237407
295 0.309371
300 0.281138
305 0.322954
310 0.432883
315 0.36548
320 0.30906
325 0.496082
330 0.444347
335 0.617172
340 0.719937
345 1.04761
350 1.65833
355 33.9491
360 668.321
365 1121.96
370 297.384
375 37.6861
380 9.25603
385 10.297
390 15.0792
395 16.7791
400 15.8098
405 18.9365
410 24.0497
415 24.6885
420 22.7514
425 19.3676
430 16.8043
435 17.0223
440 17.3054
445 16.7183
450 14.6974
455 12.7053
460 11.8306
465 11.1404
470 10.6467
475 9.92208
480 9.12229
485 8.33294
490 7.40208
495 7.05107
500 6.23957
505 5.86588
510 4.98022
515 4.61016
520 4.21836
525 3.68181
530 3.22005
535 3.23957
540 2.70014
545 2.63998
550 2.13047
555 1.87621
560 1.81601
565 1.62899
570 1.41583
575 1.07453
580 1.07813
585 0.91715
590 0.779312
595 0.688002
600 0.807864
Ex : 373
200 0.231657
205 0.242484
210 0.246441
215 0.303978
220 0.275731
225 0.307708
230 0.241757
235 0.316142
240 0.223472
245 0.231844
250 0.266939
255 0.288585
260 0.374317
265 0.26893
270 0.255745
275 0.275803
280 0.335046
285 0.338332
290 0.326916
295 0.32397
300 0.294962
305 0.323891
310 0.274094
315 0.345314
320 0.347856
325 0.351829
330 0.454719
335 0.550328
340 0.590156
345 0.724369
350 0.997819
355 1.72146
360 39.3603
365 675.798
370 1105.81
375 292.455
380 38.06
385 11.8259
390 15.2249
395 18.0246
400 16.3197
405 15.577
410 19.7654
415 26.0513
420 24.5965
425 20.6157
430 17.2597
435 16.0568
440 16.6116
445 16.6868
450 14.5792
455 12.6548
460 11.6345
465 10.9429
470 10.2979
475 9.84928
480 8.51926
485 8.457
490 7.36133
495 6.72786
500 6.31874
505 5.68513
510 5.28145
515 4.95253
520 4.23933
525 3.74253
530 3.44721
535 3.18334
540 2.9244
545 2.61647
550 2.12276
555 2.04302
560 1.96046
565 1.59318
570 1.38164
575 1.16222
580 1.15256
585 0.888671
590 0.670205
595 0.622951
600 0.772146
Ex : 378
200 0.275916
205 0.233352
210 0.255859
215 0.316649
220 0.304037
225 0.225582
230 0.301011
235 0.321126
240 0.253296
245 0.277102
250 0.252575
255 0.320123
260 0.270244
265 0.245782
270 0.301759
275 0.277125
280 0.246469
285 0.305222
290 0.349107
295 0.347983
300 0.259101
305 0.316632
310 0.360201
315 0.348354
320 0.285482
325 0.314505
330 0.410963
335 0.414621
340 0.623422
345 0.522237
350 0.661856
355 1.09145
360 1.63337
365 37.5633
370 677.975
375 1122.57
380 301.121
385 41.695
390 14.9987
395 13.6738
400 12.0848
405 11.9421
410 14.1079
415 17.5681
420 19.7066
425 17.7057
430 14.6687
435 13.486
440 12.8376
445 12.8204
450 11.8131
455 10.7462
460 9.93263
465 9.41662
470 8.75647
475 8.52363
480 7.91492
485 6.99776
490 6.55106
495 6.28545
500 5.93718
505 5.3666
510 4.97856
515 4.50469
520 4.28575
525 3.83204
530 3.24368
535 2.92318
540 2.69087
545 2.45112
550 2.19223
555 1.94361
560 1.742
565 1.55937
570 1.44222
575 1.12651
580 1.02211
585 0.799645
590 0.742703
595 0.590312
600 0.700178
Ex : 383
200 0.302496
205 0.235691
210 0.227809
215 0.207757
220 0.225372
225 0.230603
230 0.314002
235 0.233249
240 0.226239
245 0.265727
250 0.258849
255 0.252481
260 0.257897
265 0.297278
270 0.268313
275 0.217852
280 0.212494
285 0.320879
290 0.322833
295 0.277235
300 0.21996
305 0.29571
310 0.287417
315 0.320645
320 0.31762
325 0.37159
330 0.424457
335 0.423367
340 0.408913
345 0.46467
350 0.539878
355 0.781224
360 1.00366
365 1.55987
370 33.6802
375 670.74
380 1156.31
385 315.373
390 47.1605
395 15.7622
400 11.8568
405 12.45
410 14.6652
415 15.6939
420 15.7463
425 16.4052
430 15.8965
435 14.4333
440 13.9628
445 12.8713
450 11.3312
455 10.6932
460 9.87041
465 9.59164
470 9.00031
475 8.54939
480 7.84172
485 7.50988
490 6.68172
495 6.27598
500 5.78374
505 5.19495
510 4.79532
515 4.53889
520 4.0083
525 3.58401
530 3.13348
535 2.8755
540 2.74092
545 2.56553
550 2.10058
555 1.90973
560 1.82798
565 1.67346
570 1.38799
575 1.17173
580 0.921863
585 0.881724
590 0.787958
595 0.596926
600 0.570813
Ex : 388
200 0.233251
205 0.253833
210 0.223684
215 0.215063
220 0.203232
225 0.263227
230 0.187042
235 0.301874
240 0.243318
245 0.177639
250 0.340968
255 0.246978
260 0.244115
265 0.197646
270 0.273486
275 0.283903
280 0.266636
285 0.281015
290 0.255221
295 0.226863
300 0.241375
305 0.262882
310 0.271347
315 0.283315
320 0.333683
325 0.462224
330 0.347616
335 0.381849
340 0.415327
345 0.458348
350 0.460109
355 0.625645
360 0.735053
365 1.04734
370 1.51683
375 37.4478
380 693.506
385 1174.98
390 322.45
395 51.0351
400 17.9391
405 15.1785
410 17.5819
415 19.4644
420 19.0773
425 16.5753
430 16.8017
435 18.001
440 17.2137
445 15.8447
450 13.3011
455 11.6037
460 10.8652
465 10.1352
470 9.2966
475 9.13987
480 8.28031
485 7.54545
490 7.19874
495 6.28106
500 6.17388
505 5.58227
510 5.15938
515 4.51683
520 3.95005
525 3.85236
530 3.64398
535 3.02885
540 2.71979
545 2.40614
550 2.22165
555 1.947
560 1.94454
565 1.53426
570 1.41354
575 1.2081
580 0.96865
585 0.821772
590 0.733962
595 0.601925
600 0.140351
Ex : 393
200 0.24783
205 0.228011
210 0.210766
215 0.188561
220 0.239295
225 0.286843
230 0.21433
235 0.167271
240 0.212287
245 0.24689
250 0.231454
255 0.1876
260 0.216194
265 0.187029
270 0.194565
275 0.208694
280 0.215106
285 0.292295
290 0.26602
295 0.262928
300 0.288712
305 0.247934
310 0.257933
315 0.2669
320 0.306157
325 0.293138
330 0.307776
335 0.3533
340 0.353472
345 0.374071
350 0.449841
355 0.50695
360 0.50851
365 0.682636
370 1.04139
375 1.72756
380 33.7881
385 685.55
390 1171.77
395 329.497
400 51.4964
405 17.7245
410 16.5155
415 20.226
420 19.9859
425 16.6277
430 14.4619
435 14.4521
440 16.8872
445 16.2972
450 14.0208
455 11.755
460 10.6253
465 9.53751
470 9.04402
475 8.71579
480 8.2145
485 7.54987
490 6.77418
495 6.52498
500 5.76908
505 5.31835
510 4.9718
515 4.49883
520 4.09483
525 3.68847
530 3.22753
535 3.10355
540 2.70504
545 2.43356
550 2.33326
555 1.99732
560 1.85432
565 1.57746
570 1.41722
575 1.17917
580 0.95239
585 0.746035
590 0.743285
595 0.576609
600 0.858365
Ex : 398
200 0.22058
205 0.192568
210 0.246565
215 0.240513
220 0.150307
225 0.205644
230 0.247962
235 0.189013
240 0.215059
245 0.250795
250 0.238779
255 0.210613
260 0.287437
265 0.210591
270 0.221426
275 0.221977
280 0.230799
285 0.244976
290 0.185747
295 0.21205
300 0.267402
305 0.218368
310 0.252805
315 0.260361
320 0.254388
325 0.244865
330 0.303518
335 0.322512
340 0.415077
345 0.372193
350 0.410037
355 0.425636
360 0.508052
365 0.518381
370 0.778752
375 0.968084
380 1.81839
385 35.1691
390 693.369
395 1196.32
400 323.025
405 45.2935
410 14.2439
415 13.2092
420 12.9445
425 11.1843
430 9.37843
435 8.70369
440 10.2299
445 12.4466
450 11.5359
455 9.42273
460 8.68391
465 7.40278
470 6.97967
475 6.72023
480 6.52841
485 6.40679
490 6.06073
495 5.07028
500 5.07312
505 4.83668
510 4.16901
515 4.09685
520 3.71594
525 3.36408
530 3.04688
535 2.81995
540 2.49809
545 2.31747
550 2.14382
555 1.81644
560 1.80858
565 1.62315
570 1.38267
575 1.1538
580 0.957256
585 0.82383
590 0.690325
595 0.620085
600 0.386408
Ex : 403
200 0.206905
205 0.237176
210 0.225006
215 0.190779
220 0.281063
225 0.217536
230 0.224639
235 0.216839
240 0.184709
245 0.233998
250 0.273735
255 0.246443
260 0.23469
265 0.181065
270 0.237572
275 0.26634
280 0.224041
285 0.211948
290 0.275663
295 0.29463
300 0.280174
305 0.250639
310 0.251652
315 0.223044
320 0.330378
325 0.404615
330 0.296457
335 0.298868
340 0.317316
345 0.360708
350 0.332855
355 0.374557
360 0.47801
365 0.445453
370 0.609551
375 0.718875
380 1.03057
385 1.97086
390 38.279
395 706.499
400 1175.15
405 319.447
410 42.2158
415 10.5962
420 7.74266
425 6.60245
430 5.79996
435 5.55247
440 6.12932
445 6.75601
450 8.50682
455 8.60809
460 7.23459
465 6.62178
470 6.12623
475 5.78542
480 5.70785
485 5.30573
490 5.20746
495 4.79007
500 4.71719
505 4.48097
510 4.17871
515 3.86575
520 3.51353
525 3.24605
530 3.11199
535 2.63121
540 2.48491
545 2.40284
550 2.09831
555 1.7688
560 1.68986
565 1.51815
570 1.22543
575 1.15973
580 0.952853
585 0.855481
590 0.634813
595 0.624308
600 0.200282
Ex : 408
200 0.200688
205 0.181611
210 0.222306
215 0.203728
220 0.247902
225 0.207356
230 0.181248
235 0.224179
240 0.198529
245 0.258766
250 0.255793
255 0.253757
260 0.180206
265 0.210313
270 0.220239
275 0.226169
280 0.194311
285 0.225464
290 0.236245
295 0.210393
300 0.251153
305 0.26615
310 0.25783
315 0.23177
320 0.222201
325 0.23714
330 0.284471
335 0.316252
340 0.283767
345 0.315841
350 0.349116
355 0.399812
360 0.375623
365 0.478927
370 0.516032
375 0.582515
380 0.717081
385 1.11034
390 1.75027
395 36.2697
400 722.769
405 1181.15
410 311.526
415 41.2525
420 10.2345
425 6.32718
430 5.75032
435 5.82826
440 6.1314
445 6.23114
450 6.16704
455 7.42803
460 8.45159
465 7.13852
470 6.57986
475 6.08715
480 5.57424
485 5.4041
490 5.26437
495 5.02125
500 4.84314
505 4.20322
510 4.14291
515 3.76738
520 3.76607
525 3.32717
530 3.00078
535 2.64606
540 2.60848
545 2.24366
550 2.11894
555 1.83383
560 1.71705
565 1.59668
570 1.3261
575 1.1464
580 0.95459
585 0.815129
590 0.710831
595 0.595917
600 1.1088
Ex : 413
200 0.165946
205 0.165458
210 0.2456
215 0.20934
220 0.215082
225 0.237925
230 0.195108
235 0.248959
240 0.221945
245 0.241108
250 0.192619
255 0.245788
260 0.208768
265 0.24723
270 0.202312
275 0.206911
280 0.228082
285 0.244756
290 0.260198
295 0.212085
300 0.236141
305 0.227086
310 0.2087
315 0.238628
320 0.206481
325 0.240081
330 0.24214
335 0.235402
340 0.265506
345 0.319782
350 0.388438
355 0.344569
360 0.331124
365 0.420675
370 0.392682
375 0.51058
380 0.55004
385 0.727478
390 1.10403
395 1.82619
400 40.9282
405 722.612
410 1179.9
415 305.009
420 40.3867
425 9.5016
430 5.58282
435 5.63004
440 5.77436
445 5.66349
450 5.60142
455 5.34979
460 5.91972
465 7.8077
470 7.204
475 6.60751
480 6.06039
485 5.43613
490 5.10808
495 4.88665
500 4.53863
505 4.11466
510 3.94067
515 3.86488
520 3.5167
525 3.18471
530 2.75548
535 2.58865
540 2.45822
545 2.23726
550 2.11611
555 1.69589
560 1.56219
565 1.4901
570 1.28607
575 1.12949
580 0.90016
585 0.730779
590 0.686389
595 0.47675
600 0.116913
Ex : 418
200 0.184705
205 0.190995
210 0.212561
215 0.185426
220 0.182068
225 0.203299
230 0.228906
235 0.263967
240 0.246424
245 0.209134
250 0.216982
255 0.209464
260 0.212224
265 0.178557
270 0.171252
275 0.241876
280 0.259543
285 0.202583
290 0.218478
295 0.190569
300 0.175131
305 0.194488
310 0.230429
315 0.187298
320 0.205969
325 0.262464
330 0.230606
335 0.304314
340 0.310603
345 0.28263
350 0.28765
355 0.270283
360 0.24612
365 0.277895
370 0.390751
375 0.404927
380 0.421717
385 0.533223
390 0.793753
395 1.03518
400 1.72462
405 38.6285
410 712.741
415 1177.28
420 312.902
425 39.9261
430 8.01059
435 4.24584
440 4.48972
445 4.38518
450 4.02269
455 3.65828
460 3.88555
465 4.58719
470 6.45373
475 6.72523
480 5.53408
485 4.92785
490 4.46519
495 4.03221
500 4.0067
505 3.73022
510 3.54597
515 3.29883
520 3.05362
525 2.77282
530 2.66345
535 2.57642
540 2.34748
545 2.19302
550 1.98086
555 1.69052
560 1.66907
565 1.44299
570 1.20958
575 1.00315
580 0.878248
585 0.74222
590 0.629997
595 0.516485
600 0.146808
Ex : 423
200 0.201726
205 0.240788
210 0.1917
215 0.228039
220 0.243884
225 0.202499
230 0.273145
235 0.210903
240 0.22168
245 0.212421
250 0.209323
255 0.222093
260 0.198288
265 0.256314
270 0.239295
275 0.249061
280 0.265223
285 0.175234
290 0.210352
295 0.267127
300 0.236783
305 0.214774
310 0.172434
315 0.196514
320 0.262424
325 0.21279
330 0.27156
335 0.311003
340 0.280798
345 0.278203
350 0.293173
355 0.34262
360 0.333125
365 0.336963
370 0.294607
375 0.412042
380 0.445652
385 0.406918
390 0.610626
395 0.804793
400 1.09484
405 1.81366
410 39.6662
415 745.526
420 1173.68
425 296.083
430 37.1647
435 7.01799
440 3.27715
445 2.89821
450 3.03981
455 2.6691
460 2.64357
465 2.89202
470 3.14145
475 4.92945
480 5.8499
485 4.70973
490 4.28484
495 3.85325
500 3.45808
505 3.15916
510 3.1705
515 2.84941
520 2.84447
525 2.73399
530 2.39918
535 2.48471
540 2.14955
545 1.98694
550 1.74977
555 1.66691
560 1.50084
565 1.43701
570 1.15624
575 1.02003
580 0.796698
585 0.734147
590 0.656449
595 0.648362
600 0.220019
Ex : 428
200 0.21713
205 0.199268
210 0.188395
215 0.207356
220 0.227807
225 0.215524
230 0.18833
235 0.197813
240 0.220798
245 0.24865
250 0.264683
255 0.2184
260 0.18193
265 0.175993
270 0.202342
275 0.211957
280 0.182105
285 0.249342
290 0.219167
295 0.248345
300 0.310521
305 0.188211
310 0.20577
315 0.247457
320 0.234803
325 0.31544
330 0.263396
335 0.257269
340 0.299993
345 0.263728
350 0.249017
355 0.332695
360 0.326899
365 0.26141
370 0.331537
375 0.408601
380 0.392301
385 0.491958
390 0.494549
395 0.652352
400 0.773825
405 1.06288
410 1.80706
415 42.6961
420 744.562
425 1174.95
430 306.917
435 37.9077
440 6.33029
445 2.79733
450 2.38718
455 2.46967
460 2.43151
465 2.30882
470 2.33924
475 2.76011
480 3.95408
485 5.49039
490 4.41373
495 3.78164
500 3.58529
505 3.09076
510 2.80846
515 2.61277
520 2.69056
525 2.42824
530 2.30192
535 2.10666
540 1.98103
545 1.87521
550 1.75672
555 1.54572
560 1.45232
565 1.38004
570 1.16679
575 1.07261
580 0.946034
585 0.701628
590 0.642115
595 0.511951
600 0.359627
Ex : 433
200 0.205143
205 0.227488
210 0.184511
215 0.251049
220 0.21725
225 0.242081
230 0.219537
235 0.188125
240 0.239939
245 0.262353
250 0.210451
255 0.166463
260 0.154141
265 0.222686
270 0.237529
275 0.186157
280 0.211121
285 0.182872
290 0.231107
295 0.201734
300 0.224357
305 0.197194
310 0.241633
315 0.172148
320 0.229781
325 0.238354
330 0.248638
335 0.242223
340 0.274189
345 0.2879
350 0.31471
355 0.366981
360 0.325723
365 0.309261
370 0.288125
375 0.256215
380 0.335753
385 0.335971
390 0.430516
395 0.499592
400 0.54272
405 0.770317
410 1.08252
415 1.7756
420 46.2026
425 787.655
430 1174.05
435 296.325
440 36.5802
445 6.3245
450 2.44918
455 2.20829
460 2.3276
465 2.07172
470 2.07882
475 2.30425
480 2.56394
485 3.19905
490 5.06048
495 4.47969
500 3.53609
505 3.52289
510 2.96225
515 2.62085
520 2.49967
525 2.31698
530 2.21533
535 2.03304
540 2.07713
545 1.98418
550 1.77953
555 1.6251
560 1.41016
565 1.4181
570 1.26165
575 1.06683
580 0.837062
585 0.711205
590 0.539408
595 0.544916
600 0.36739
Ex : 438
200 0.188262
205 0.197556
210 0.202946
215 0.226819
220 0.228519
225 0.185991
230 0.1945
235 0.207302
240 0.173763
245 0.186832
250 0.240922
255 0.185014
260 0.208863
265 0.311056
270 0.198291
275 0.173128
280 0.236636
285 0.171559
290 0.251547
295 0.168299
300 0.18845
305 0.229922
310 0.206413
315 0.279798
320 0.188805
325 0.194876
330 0.227679
335 0.270298
340 0.263309
345 0.255181
350 0.271391
355 0.286788
360 0.330935
365 0.306111
370 0.322182
375 0.326778
380 0.389392
385 0.451069
390 0.443276
395 0.485935
400 0.549384
405 0.546911
410 0.695741
415 1.10945
420 1.65103
425 43.824
430 778.794
435 1246.04
440 308.207
445 37.9105
450 6.37729
455 2.60234
460 2.39981
465 2.39069
470 2.3039
475 1.99586
480 2.30527
485 2.3367
490 2.76564
495 4.33997
500 4.59591
505 3.37897
510 3.19584
515 2.85535
520 2.57821
525 2.39314
530 2.18955
535 2.06185
540 1.97444
545 1.82171
550 1.72082
555 1.5199
560 1.45597
565 1.31004
570 1.17211
575 0.97097
580 0.849659
585 0.701041
590 0.692096
595 0.543706
600 0.0797747
Ex : 443
200 0.208229
205 0.216152
210 0.239176
215 0.17929
220 0.269424
225 0.239029
230 0.180214
235 0.186315
240 0.194747
245 0.166474
250 0.191818
255 0.240804
260 0.184904
265 0.20327
270 0.202831
275 0.239428
280 0.213388
285 0.158901
290 0.169623
295 0.251645
300 0.243941
305 0.272592
310 0.242556
315 0.316611
320 0.244255
325 0.266084
330 0.202484
335 0.247964
340 0.319022
345 0.292584
350 0.273174
355 0.244628
360 0.361327
365 0.307216
370 0.25567
375 0.299488
380 0.321709
385 0.374681
390 0.407942
395 0.430876
400 0.350001
405 0.502823
410 0.636058
415 0.778396
420 0.995499
425 1.70056
430 49.4476
435 824.005
440 1260.62
445 310.686
450 38.1654
455 6.47831
460 2.63211
465 2.48644
470 2.48292
475 2.30915
480 2.07312
485 2.12054
490 2.3285
495 2.61424
500 3.62851
505 4.62908
510 3.5734
515 2.94508
520 2.77818
525 2.37553
530 1.98256
535 1.81671
540 1.86274
545 1.7254
550 1.48316
555 1.54947
560 1.4619
565 1.26618
570 1.08911
575 1.02036
580 0.887327
585 0.721952
590 0.735516
595 0.562035
600 0.419036
Ex : 448
200 0.246701
205 0.179628
210 0.165782
215 0.256498
220 0.218895
225 0.201819
230 0.259002
235 0.209903
240 0.227638
245 0.189496
250 0.239932
255 0.254027
260 0.210704
265 0.222839
270 0.207048
275 0.193339
280 0.224889
285 0.239869
290 0.224359
295 0.201734
300 0.221305
305 0.226392
310 0.226626
315 0.187605
320 0.209577
325 0.249918
330 0.269831
335 0.29638
340 0.24294
345 0.31171
350 0.300765
355 0.304987
360 0.338015
365 0.275226
370 0.291786
375 0.315485
380 0.331398
385 0.299962
390 0.29557
395 0.361725
400 0.459284
405 0.499281
410 0.61305
415 0.629285
420 0.811859
425 1.06043
430 1.80027
435 49.1726
440 857.065
445 1329.7
450 329.473
455 40.3697
460 6.83476
465 2.70169
470 2.22226
475 2.38801
480 2.19426
485 2.00974
490 2.01714
495 2.28329
500 2.09669
505 2.98712
510 4.34363
515 3.47935
520 2.72572
525 2.41522
530 2.09994
535 1.94787
540 1.8486
545 1.68701
550 1.46478
555 1.41032
560 1.24665
565 1.25649
570 1.05344
575 0.914609
580 0.721275
585 0.707937
590 0.649862
595 0.650607
600 0.271636
Ex : 453
200 0.164842
205 0.189978
210 0.211356
215 0.215818
220 0.171141
225 0.170346
230 0.233465
235 0.233905
240 0.238269
245 0.200392
250 0.237047
255 0.251615
260 0.266278
265 0.18782
270 0.201188
275 0.227257
280 0.229574
285 0.19122
290 0.206191
295 0.253647
300 0.214635
305 0.226068
310 0.220905
315 0.185338
320 0.271874
325 0.216642
330 0.240085
335 0.238354
340 0.223236
345 0.269895
350 0.300206
355 0.251336
360 0.252818
365 0.298323
370 0.313909
375 0.251837
380 0.302004
385 0.345438
390 0.315412
395 0.44964
400 0.400617
405 0.429724
410 0.458468
415 0.50406
420 0.595129
425 0.707975
430 1.05257
435 1.66089
440 52.9203
445 940.379
450 1383.8
455 321.696
460 39.6973
465 6.8263
470 2.67403
475 2.13411
480 2.2826
485 2.17891
490 1.9613
495 1.85477
500 2.0289
505 2.04245
510 2.33212
515 3.74267
520 3.61334
525 2.73376
530 2.43123
535 2.20992
540 1.8064
545 1.68553
550 1.43154
555 1.32757
560 1.39142
565 1.30577
570 1.17836
575 0.942279
580 0.884767
585 0.749484
590 0.621744
595 0.569199
600 0.490941
Ex : 458
200 0.240851
205 0.17693
210 0.207017
215 0.202628
220 0.204321
225 0.217511
230 0.20965
235 0.160975
240 0.18487
245 0.199937
250 0.201234
255 0.23004
260 0.189812
265 0.209186
270 0.269334
275 0.221794
280 0.218912
285 0.210575
290 0.194749
295 0.250525
300 0.243012
305 0.236634
310 0.266661
315 0.169565
320 0.250562
325 0.232266
330 0.276399
335 0.251935
340 0.265724
345 0.229004
350 0.248121
355 0.316865
360 0.229096
365 0.274505
370 0.257356
375 0.299101
380 0.355549
385 0.283778
390 0.314251
395 0.387084
400 0.45325
405 0.403901
410 0.38261
415 0.44358
420 0.514904
425 0.628463
430 0.724969
435 1.04391
440 1.80328
445 58.2822
450 963.19
455 1439.78
460 346.086
465 42.3659
470 7.19889
475 2.6515
480 2.2218
485 2.45815
490 2.07592
495 1.94816
500 1.8228
505 1.6717
510 1.84817
515 2.09468
520 3.00211
525 3.61766
530 2.76035
535 2.22033
540 2.12551
545 1.98884
550 1.51757
555 1.3542
560 1.36553
565 1.19935
570 1.07802
575 0.943192
580 0.847604
585 0.688891
590 0.639233
595 0.712669
600 0.40468
Ex : 463
200 0.220503
205 0.196436
210 0.179929
215 0.242486
220 0.160459
225 0.219281
230 0.226207
235 0.183264
240 0.174654
245 0.233207
250 0.186023
255 0.195988
260 0.159294
265 0.192419
270 0.212243
275 0.255882
280 0.250044
285 0.231807
290 0.262368
295 0.208646
300 0.172737
305 0.182983
310 0.238146
315 0.219824
320 0.239241
325 0.259074
330 0.215348
335 0.199774
340 0.254408
345 0.202261
350 0.220366
355 0.278456
360 0.26371
365 0.285243
370 0.308082
375 0.239678
380 0.227791
385 0.266627
390 0.296268
395 0.347137
400 0.326821
405 0.385483
410 0.48005
415 0.358538
420 0.47285
425 0.513356
430 0.622311
435 0.755301
440 1.11936
445 1.84774
450 57.6609
455 1007.76
460 1543.24
465 375.094
470 45.5647
475 7.34213
480 2.82691
485 2.05064
490 2.13293
495 2.07182
500 1.93317
505 1.6339
510 1.6519
515 1.69418
520 1.80417
525 2.50536
530 3.38853
535 3.05199
540 2.15316
545 1.98499
550 1.83376
555 1.4639
560 1.31646
565 1.24386
570 1.0635
575 1.01138
580 0.86534
585 0.736673
590 0.683862
595 0.57109
600 0.333867
Ex : 468
200 0.182141
205 0.200249
210 0.19606
215 0.199563
220 0.198114
225 0.190567
230 0.205505
235 0.194358
240 0.219769
245 0.184053
250 0.174983
255 0.194103
260 0.183056
265 0.240221
270 0.183239
275 0.214865
280 0.222394
285 0.198286
290 0.189597
295 0.182565
300 0.174081
305 0.206268
310 0.208734
315 0.183859
320 0.22511
325 0.193305
330 0.188397
335 0.202714
340 0.241233
345 0.23608
350 0.238133
355 0.238413
360 0.296066
365 0.248124
370 0.246102
375 0.277895
380 0.304374
385 0.304044
390 0.271159
395 0.364551
400 0.350608
405 0.342704
410 0.334595
415 0.354177
420 0.437073
425 0.402105
430 0.513739
435 0.61754
440 0.809503
445 1.18123
450 1.63214
455 62.7257
460 1031.44
465 1640.22
470 393.352
475 47.5623
480 7.47312
485 2.56183
490 1.9101
495 2.0047
500 1.94623
505 1.67757
510 1.6902
515 1.59186
520 1.64833
525 1.63719
530 2.08602
535 2.89148
540 3.05996
545 2.1319
550 1.85533
555 1.73245
560 1.4728
565 1.25322
570 1.05818
575 1.0271
580 0.821736
585 0.730207
590 0.618419
595 0.629927
600 0.918609
Ex : 473
200 0.19919
205 0.204476
210 0.174714
215 0.219424
220 0.206554
225 0.171758
230 0.202568
235 0.247681
240 0.2481
245 0.203642
250 0.179028
255 0.199843
260 0.21384
265 0.227605
270 0.222633
275 0.212437
280 0.256547
285 0.19447
290 0.204159
295 0.215428
300 0.186144
305 0.217706
310 0.243851
315 0.20348
320 0.22126
325 0.248709
330 0.185827
335 0.248785
340 0.334562
345 0.323072
350 0.205923
355 0.251168
360 0.211454
365 0.247441
370 0.219679
375 0.254614
380 0.366487
385 0.282688
390 0.268124
395 0.314432
400 0.27413
405 0.294227
410 0.390818
415 0.418333
420 0.428647
425 0.42939
430 0.426978
435 0.552987
440 0.606344
445 0.882249
450 1.1282
455 1.8799
460 74.3854
465 1139.9
470 1599.7
475 368.35
480 44.6739
485 7.23848
490 2.53924
495 1.72923
500 1.82929
505 1.90059
510 1.69077
515 1.60009
520 1.62383
525 1.68483
530 1.58389
535 1.85476
540 2.66284
545 2.9938
550 2.35146
555 1.81816
560 1.64374
565 1.38375
570 1.14747
575 0.895745
580 0.838305
585 0.733862
590 0.618431
595 0.635376
600 0.453972
Ex : 478
200 0.256486
205 0.285566
210 0.27527
215 0.20677
220 0.206405
225 0.218359
230 0.222872
235 0.19913
240 0.22614
245 0.207674
250 0.197832
255 0.274136
260 0.22136
265 0.253873
270 0.180561
275 0.261639
280 0.212118
285 0.281356
290 0.214074
295 0.323737
300 0.235614
305 0.279517
310 0.316473
315 0.26572
320 0.238894
325 0.212933
330 0.282774
335 0.267454
340 0.249518
345 0.271286
350 0.386971
355 0.314166
360 0.290701
365 0.297066
370 0.295864
375 0.321288
380 0.291961
385 0.313587
390 0.3705
395 0.345641
400 0.346612
405 0.34963
410 0.385089
415 0.360979
420 0.435315
425 0.502371
430 0.470938
435 0.551863
440 0.553602
445 0.673992
450 0.972132
455 1.37449
460 2.32198
465 81.7181
470 1188.01
475 1640.37
480 396.151
485 48.0036
490 7.51051
495 2.45333
500 1.82157
505 1.75123
510 1.79868
515 1.6492
520 1.59405
525 1.63184
530 1.59181
535 1.49969
540 1.62354
545 2.11092
550 2.92298
555 2.46469
560 1.76842
565 1.70104
570 1.39986
575 1.13296
580 0.910551
585 0.720311
590 0.713411
595 0.702744
600 0.47279
Ex : 483
200 0.301145
205 0.201472
210 0.186486
215 0.217715
220 0.221039
225 0.287206
230 0.252373
235 0.217032
240 0.212607
245 0.262732
250 0.233459
255 0.308026
260 0.298046
265 0.241229
270 0.273785
275 0.26063
280 0.212605
285 0.226866
290 0.251792
295 0.196633
300 0.280412
305 0.290126
310 0.271934
315 0.224413
320 0.255
325 0.296468
330 0.259877
335 0.246728
340 0.255846
345 0.261035
350 0.275457
355 0.292495
360 0.244111
365 0.368061
370 0.299981
375 0.291828
380 0.264728
385 0.313305
390 0.341514
395 0.316435
400 0.391551
405 0.420506
410 0.392882
415 0.380943
420 0.373528
425 0.464568
430 0.453046
435 0.511466
440 0.498693
445 0.609849
450 0.650071
455 0.95458
460 1.34105
465 2.34554
470 65.3843
475 1183.29
480 1778.67
485 423.904
490 51.2613
495 7.8958
500 2.61497
505 1.84776
510 1.70214
515 1.79913
520 1.69868
525 1.8347
530 1.67667
535 1.47082
540 1.51883
545 1.49234
550 1.66236
555 2.3741
560 2.55019
565 1.7573
570 1.35124
575 1.34459
580 1.11175
585 0.946087
590 0.805063
595 0.673626
600 0.714101
Ex : 488
200 0.369976
205 0.249241
210 0.244403
215 0.280978
220 0.294996
225 0.26445
230 0.238389
235 0.243204
240 0.310033
245 0.315099
250 0.189442
255 0.215467
260 0.19366
265 0.28612
270 0.305635
275 0.339619
280 0.328873
285 0.354989
290 0.295252
295 0.259683
300 0.227963
305 0.215257
310 0.201391
315 0.243455
320 0.303174
325 0.248778
330 0.301344
335 0.278773
340 0.306183
345 0.293653
350 0.33398
355 0.336835
360 0.335653
365 0.304356
370 0.315244
375 0.329922
380 0.318352
385 0.353946
390 0.349278
395 0.450038
400 0.413423
405 0.387785
410 0.363963
415 0.439909
420 0.385203
425 0.377865
430 0.456423
435 0.453693
440 0.590303
445 0.58239
450 0.720869
455 0.921046
460 1.04671
465 1.57782
470 2.3882
475 79.2211
480 1277.61
485 1786.41
490 418.548
495 50.6977
500 7.83484
505 2.72948
510 1.83073
515 1.84366
520 1.76449
525 1.74523
530 1.7763
535 1.61344
540 1.36814
545 1.43714
550 1.49814
555 1.4025
560 2.01496
565 2.43921
570 1.91624
575 1.31616
580 1.10055
585 0.909434
590 0.724607
595 0.671472
600 0.55572
Ex : 493
200 0.265724
205 0.292389
210 0.233008
215 0.312119
220 0.33198
225 0.228546
230 0.257464
235 0.283474
240 0.296329
245 0.282551
250 0.296098
255 0.27601
260 0.227175
265 0.288518
270 0.319579
275 0.284745
280 0.237781
285 0.290269
290 0.261435
295 0.214891
300 0.252572
305 0.277843
310 0.377928
315 0.305914
320 0.184346
325 0.286627
330 0.284701
335 0.288632
340 0.307057
345 0.277536
350 0.297769
355 0.342293
360 0.325362
365 0.282354
370 0.320076
375 0.291593
380 0.31716
385 0.353007
390 0.34906
395 0.347963
400 0.294829
405 0.324512
410 0.45631
415 0.418223
420 0.474035
425 0.357033
430 0.402164
435 0.488419
440 0.427869
445 0.561623
450 0.596447
455 0.663394
460 0.839845
465 1.15564
470 1.5276
475 2.32478
480 76.8784
485 1282.68
490 1892.67
495 435.043
500 52.3999
505 8.03175
510 2.62352
515 1.92134
520 1.67218
525 1.91528
530 1.78542
535 1.73297
540 1.69629
545 1.49677
550 1.4002
555 1.35246
560 1.39079
565 1.62315
570 2.18492
575 1.91675
580 1.23342
585 0.969462
590 0.906467
595 0.839281
600 0.306753
Ex : 498
200 0.315663
205 0.348901
210 0.373511
215 0.280005
220 0.285606
225 0.310144
230 0.245317
235 0.315227
240 0.300227
245 0.296474
250 0.292105
255 0.271865
260 0.264654
265 0.2655
270 0.288122
275 0.300181
280 0.29895
285 0.276787
290 0.316397
295 0.30735
300 0.313689
305 0.293318
310 0.267069
315 0.339864
320 0.253262
325 0.373862
330 0.338941
335 0.320786
340 0.306038
345 0.341331
350 0.281966
355 0.301922
360 0.356279
365 0.321117
370 0.320479
375 0.447611
380 0.419474
385 0.370838
390 0.393801
395 0.348841
400 0.45866
405 0.372147
410 0.42693
415 0.449144
420 0.411881
425 0.462814
430 0.466035
435 0.522792
440 0.54772
445 0.53253
450 0.546756
455 0.606735
460 0.788014
465 1.09663
470 1.26354
475 1.51704
480 2.5181
485 90.3959
490 1371.81
495 1865.16
500 429.78
505 51.8382
510 7.98056
515 2.71538
520 1.97133
525 1.81862
530 1.92709
535 1.82874
540 1.64779
545 1.46851
550 1.50909
555 1.32463
560 1.28629
565 1.11525
570 1.39592
575 1.68961
580 1.68359
585 1.13936
590 0.920224
595 0.851584
600 0.832907
Ex : 503
200 0.356764
205 0.283075
210 0.294961
215 0.314684
220 0.34646
225 0.351443
230 0.325083
235 0.352513
240 0.312807
245 0.359108
250 0.27221
255 0.265261
260 0.301884
265 0.324327
270 0.359777
275 0.417487
280 0.333758
285 0.283496
290 0.279372
295 0.256944
300 0.272615
305 0.40724
310 0.329874
315 0.311112
320 0.309525
325 0.387648
330 0.301327
335 0.278266
340 0.334831
345 0.31976
350 0.286119
355 0.32502
360 0.329669
365 0.400053
370 0.332595
375 0.293164
380 0.374238
385 0.3184
390 0.362353
395 0.386741
400 0.366111
405 0.425925
410 0.417299
415 0.396451
420 0.406024
425 0.453909
430 0.443781
435 0.416704
440 0.524584
445 0.506871
450 0.602606
455 0.556848
460 0.711908
465 0.857508
470 0.957985
475 1.09854
480 1.63258
485 2.76218
490 81.0405
495 1367.95
500 1911.93
505 441.746
510 53.4298
515 8.06139
520 2.77717
525 1.9024
530 1.94307
535 1.93969
540 1.74915
545 1.50524
550 1.34933
555 1.33957
560 1.33968
565 1.18198
570 1.18857
575 1.07261
580 1.34392
585 1.55383
590 1.15186
595 0.982733
600 0.226053
Ex : 508
200 0.305635
205 0.358102
210 0.278181
215 0.296785
220 0.316866
225 0.372079
230 0.336153
235 0.406158
240 0.270729
245 0.337442
250 0.386593
255 0.329691
260 0.358857
265 0.342205
270 0.345682
275 0.35448
280 0.361731
285 0.351203
290 0.365944
295 0.376335
300 0.32391
305 0.233186
310 0.359146
315 0.363816
320 0.387519
325 0.288067
330 0.449532
335 0.412995
340 0.332597
345 0.354808
350 0.370366
355 0.403475
360 0.409623
365 0.343494
370 0.358617
375 0.360994
380 0.494061
385 0.408504
390 0.342413
395 0.377044
400 0.349094
405 0.321151
410 0.333446
415 0.341569
420 0.43579
425 0.482233
430 0.424177
435 0.547906
440 0.463961
445 0.52613
450 0.629532
455 0.595909
460 0.549102
465 0.658001
470 0.95154
475 0.950131
480 1.23037
485 1.535
490 2.54633
495 90.7023
500 1379.96
505 1918.92
510 465.564
515 56.1209
520 8.65746
525 2.99235
530 2.07912
535 1.81389
540 1.74327
545 1.67476
550 1.43713
555 1.58794
560 1.21209
565 1.08262
570 1.10113
575 1.03158
580 0.891442
585 0.96249
590 1.2748
595 1.20353
600 1.43781
Ex : 513
200 0.319715
205 0.290406
210 0.248882
215 0.299783
220 0.327723
225 0.344999
230 0.292053
235 0.276488
240 0.240742
245 0.2935
250 0.310268
255 0.310943
260 0.374158
265 0.268643
270 0.309664
275 0.307498
280 0.345558
285 0.373479
290 0.272522
295 0.360661
300 0.328974
305 0.334586
310 0.32147
315 0.352888
320 0.27405
325 0.409672
330 0.376545
335 0.397978
340 0.364217
345 0.386076
350 0.37597
355 0.362639
360 0.27346
365 0.354046
370 0.433088
375 0.366392
380 0.428998
385 0.339355
390 0.431159
395 0.37458
400 0.325717
405 0.464429
410 0.461165
415 0.41357
420 0.385694
425 0.507237
430 0.375833
435 0.378614
440 0.511023
445 0.437316
450 0.570113
455 0.576509
460 0.594279
465 0.616287
470 0.737758
475 0.793807
480 1.07431
485 1.18764
490 1.67755
495 2.81893
500 84.7991
505 1375.63
510 1959.63
515 480.637
520 58.1948
525 9.1024
530 2.90822
535 1.8723
540 1.62571
545 1.61988
550 1.50083
555 1.52528
560 1.47297
565 1.19415
570 1.13763
575 1.0263
580 0.908322
585 0.782151
590 0.908956
595 1.22228
600 1.42811
Ex : 518
200 0.351251
205 0.339992
210 0.348814
215 0.444729
220 0.320206
225 0.300248
230 0.314273
235 0.341486
240 0.38803
245 0.331677
250 0.339532
255 0.384808
260 0.297983
265 0.309207
270 0.31832
275 0.267199
280 0.384909
285 0.313795
290 0.300905
295 0.369848
300 0.395056
305 0.356083
310 0.299517
315 0.331057
320 0.33687
325 0.407742
330 0.314956
335 0.297518
340 0.334447
345 0.382694
350 0.339089
355 0.394516
360 0.380919
365 0.386014
370 0.352262
375 0.374814
380 0.371007
385 0.376784
390 0.381658
395 0.382152
400 0.351184
405 0.342159
410 0.456885
415 0.392177
420 0.503174
425 0.458385
430 0.498123
435 0.586876
440 0.570868
445 0.482934
450 0.526427
455 0.588453
460 0.572743
465 0.628306
470 0.649928
475 0.727111
480 0.811075
485 0.990404
490 1.30043
495 1.76436
500 2.64084
505 85.8117
510 1352.74
515 2003.93
520 496.295
525 59.7315
530 9.06255
535 2.79291
540 1.90837
545 1.72091
550 1.4742
555 1.52658
560 1.46104
565 1.16038
570 1.03944
575 0.982127
580 0.864331
585 0.933775
590 0.83297
595 0.735977
600 0.759892
Ex : 523
200 0.317414
205 0.39198
210 0.316765
215 0.341752
220 0.462773
225 0.284463
230 0.290176
235 0.340238
240 0.290707
245 0.39215
250 0.394304
255 0.335438
260 0.375911
265 0.284917
270 0.347062
275 0.302192
280 0.307887
285 0.314586
290 0.312212
295 0.432166
300 0.387487
305 0.383409
310 0.37206
315 0.41942
320 0.265432
325 0.391604
330 0.366325
335 0.393625
340 0.356645
345 0.353224
350 0.329729
355 0.310921
360 0.488786
365 0.382892
370 0.366968
375 0.321337
380 0.421349
385 0.425278
390 0.444964
395 0.429531
400 0.321648
405 0.401994
410 0.469922
415 0.467475
420 0.373417
425 0.432354
430 0.408606
435 0.429495
440 0.440493
445 0.493658
450 0.452436
455 0.631876
460 0.550273
465 0.662217
470 0.677316
475 0.673964
480 0.680997
485 0.820707
490 0.900253
495 1.2084
500 1.62112
505 2.4562
510 79.0224
515 1297.07
520 1970.67
525 501.129
530 60.3038
535 8.94236
540 2.85565
545 1.813
550 1.3398
555 1.45729
560 1.31168
565 1.35389
570 1.1762
575 1.10104
580 0.98782
585 0.858263
590 0.769912
595 0.63732
600 0.874116
Ex : 528
200 0.340965
205 0.311962
210 0.272183
215 0.448043
220 0.432447
225 0.368514
230 0.33077
235 0.311384
240 0.274708
245 0.314465
250 0.377764
255 0.390408
260 0.343774
265 0.358012
270 0.26501
275 0.318784
280 0.379065
285 0.352931
290 0.4049
295 0.325965
300 0.38371
305 0.402771
310 0.391266
315 0.464166
320 0.310493
325 0.314768
330 0.40658
335 0.411437
340 0.407349
345 0.398354
350 0.346212
355 0.450865
360 0.516975
365 0.436248
370 0.295897
375 0.345749
380 0.392915
385 0.370159
390 0.489762
395 0.39015
400 0.420329
405 0.377108
410 0.480698
415 0.425802
420 0.514265
425 0.476298
430 0.401741
435 0.508654
440 0.649792
445 0.646706
450 0.567939
455 0.59784
460 0.615585
465 0.670129
470 0.744459
475 0.630878
480 0.6295
485 0.77312
490 0.793751
495 1.05572
500 1.20579
505 1.74244
510 2.33155
515 74.8458
520 1296.59
525 1962.45
530 492.299
535 59.2352
540 8.77833
545 2.84036
550 1.7667
555 1.39712
560 1.2237
565 1.1965
570 1.11026
575 0.998426
580 0.910513
585 0.857735
590 0.782075
595 0.858053
600 1.34575
Ex : 533
200 0.326087
205 0.354397
210 0.323126
215 0.409528
220 0.386939
225 0.537711
230 0.371528
235 0.388503
240 0.34213
245 0.362544
250 0.293351
255 0.377054
260 0.321085
265 0.324846
270 0.322063
275 0.334631
280 0.43871
285 0.373127
290 0.423375
295 0.347456
300 0.331988
305 0.431964
310 0.322618
315 0.259895
320 0.453302
325 0.327018
330 0.410018
335 0.416985
340 0.418319
345 0.388556
350 0.445132
355 0.400562
360 0.4191
365 0.392549
370 0.537322
375 0.328292
380 0.403878
385 0.365236
390 0.422198
395 0.485787
400 0.574067
405 0.417382
410 0.442025
415 0.470748
420 0.474553
425 0.518416
430 0.479109
435 0.419105
440 0.519931
445 0.405334
450 0.480841
455 0.587784
460 0.534152
465 0.577156
470 0.462225
475 0.647836
480 0.704393
485 0.748717
490 0.627539
495 0.888724
500 1.02206
505 1.21928
510 1.56425
515 2.37827
520 74.167
525 1260.23
530 1943.31
535 504.495
540 60.4823
545 8.99547
550 2.66424
555 1.64083
560 1.32719
565 1.20583
570 1.28667
575 1.08186
580 0.979551
585 0.997101
590 0.921855
595 0.773215
600 0.305986
Ex : 538
200 0.312417
205 0.252569
210 0.244748
215 0.405152
220 0.341702
225 0.492373
230 0.441088
235 0.411236
240 0.361745
245 0.393212
250 0.357677
255 0.358908
260 0.366
265 0.360018
270 0.333151
275 0.285051
280 0.344027
285 0.391603
290 0.33886
295 0.348608
300 0.30407
305 0.39742
310 0.268491
315 0.290687
320 0.429595
325 0.321119
330 0.437047
335 0.412626
340 0.449421
345 0.324656
350 0.361249
355 0.351664
360 0.479527
365 0.417718
370 0.373274
375 0.44985
380 0.39709
385 0.444827
390 0.399823
395 0.479782
400 0.403665
405 0.393682
410 0.311581
415 0.447063
420 0.519592
425 0.487206
430 0.504565
435 0.427239
440 0.539088
445 0.476328
450 0.436829
455 0.482122
460 0.623758
465 0.487873
470 0.521025
475 0.556611
480 0.609452
485 0.611597
490 0.714569
495 0.714857
500 0.89216
505 0.945977
510 1.20225
515 1.71614
520 2.63555
525 64.2532
530 1190.46
535 1934.04
540 518.449
545 62.5398
550 9.105
555 2.78068
560 1.66238
565 1.23142
570 1.11671
575 1.11349
580 1.04428
585 0.970614
590 0.835067
595 0.844783
600 0.296405
Ex : 543
200 0.420221
205 0.337768
210 0.385597
215 0.426525
220 0.263264
225 0.288682
230 0.252153
235 0.358867
240 0.276079
245 0.340044
250 0.417844
255 0.337976
260 0.342501
265 0.309864
270 0.359851
275 0.370326
280 0.31135
285 0.431238
290 0.498187
295 0.343597
300 0.412643
305 0.353375
310 0.362004
315 0.41784
320 0.357913
325 0.370339
330 0.399963
335 0.369166
340 0.523632
345 0.339926
350 0.318097
355 0.406053
360 0.549576
365 0.396915
370 0.507902
375 0.477074
380 0.462515
385 0.410132
390 0.358037
395 0.450974
400 0.374883
405 0.353341
410 0.434225
415 0.424076
420 0.457508
425 0.391396
430 0.460483
435 0.453283
440 0.518928
445 0.477143
450 0.513377
455 0.497356
460 0.536193
465 0.589282
470 0.55805
475 0.552144
480 0.679379
485 0.623205
490 0.660357
495 0.721248
500 0.739034
505 0.902729
510 1.12363
515 1.17979
520 1.56691
525 2.27818
530 58.6119
535 1143.29
540 1928.28
545 526.529
550 63.5289
555 9.1221
560 2.69482
565 1.46281
570 1.08455
575 1.05379
580 1.01335
585 0.939758
590 0.830031
595 0.926762
600 0.565892
Ex : 548
200 0.393454
205 0.362697
210 0.394345
215 0.418137
220 0.500202
225 0.395179
230 0.444012
235 0.357385
240 0.472215
245 0.440588
250 0.373579
255 0.310174
260 0.396531
265 0.294929
270 0.417525
275 0.382063
280 0.43995
285 0.399412
290 0.381868
295 0.290886
300 0.45158
305 0.31594
310 0.408824
315 0.412752
320 0.388978
325 0.382789
330 0.375855
335 0.423122
340 0.426053
345 0.431767
350 0.380853
355 0.474804
360 0.463429
365 0.411385
370 0.474765
375 0.43664
380 0.406389
385 0.495084
390 0.431601
395 0.44326
400 0.499191
405 0.482114
410 0.433792
415 0.400513
420 0.578346
425 0.391
430 0.562897
435 0.453229
440 0.405587
445 0.580445
450 0.504074
455 0.436029
460 0.528517
465 0.487709
470 0.506556
475 0.511948
480 0.617639
485 0.690541
490 0.656497
495 0.649626
500 0.690496
505 0.668674
510 0.776734
515 1.07972
520 1.26109
525 1.62912
530 2.49133
535 65.2454
540 1144.83
545 1881.66
550 521.188
555 62.6913
560 9.0671
565 2.53926
570 1.47782
575 1.14941
580 0.978314
585 0.971985
590 0.951646
595 0.86278
600 0.690731
Ex : 553
200 0.405153
205 0.361948
210 0.430612
215 0.477578
220 0.376381
225 0.366952
230 0.392917
235 0.416532
240 0.492284
245 0.427724
250 0.40818
255 0.334583
260 0.37824
265 0.399709
270 0.323588
275 0.415515
280 0.434148
285 0.364021
290 0.43038
295 0.427169
300 0.414918
305 0.353359
310 0.390394
315 0.428114
320 0.366963
325 0.384584
330 0.395232
335 0.306771
340 0.427669
345 0.428432
350 0.460912
355 0.451873
360 0.427491
365 0.403001
370 0.560863
375 0.624306
380 0.429236
385 0.410205
390 0.437908
395 0.447612
400 0.431616
405 0.389255
410 0.399853
415 0.323828
420 0.447708
425 0.579015
430 0.498767
435 0.430526
440 0.357076
445 0.382731
450 0.516425
455 0.568121
460 0.531655
465 0.568923
470 0.532726
475 0.463987
480 0.560754
485 0.70872
490 0.676767
495 0.617563
500 0.531663
505 0.684976
510 0.702649
515 0.77988
520 0.989265
525 1.34107
530 1.67565
535 2.38204
540 55.8846
545 1100.53
550 1856.55
555 525.118
560 63.3323
565 9.02395
570 2.33182
575 1.43942
580 1.13523
585 0.864589
590 0.93741
595 0.779592
600 0.717114
Ex : 558
200 0.449448
205 0.432053
210 0.509427
215 0.436591
220 0.434222
225 0.405609
230 0.393313
235 0.322533
240 0.36814
245 0.325193
250 0.284346
255 0.428178
260 0.353457
265 0.252195
270 0.496549
275 0.395748
280 0.303758
285 0.417858
290 0.427183
295 0.399647
300 0.37338
305 0.502659
310 0.37569
315 0.410488
320 0.445983
325 0.403102
330 0.343578
335 0.544254
340 0.39224
345 0.570437
350 0.506174
355 0.415834
360 0.562216
365 0.41875
370 0.316922
375 0.503465
380 0.500195
385 0.430992
390 0.370594
395 0.372091
400 0.397247
405 0.451905
410 0.436189
415 0.454536
420 0.492517
425 0.423845
430 0.444195
435 0.461448
440 0.556526
445 0.54806
450 0.535053
455 0.469132
460 0.593776
465 0.579397
470 0.544095
475 0.672356
480 0.561271
485 0.613581
490 0.623634
495 0.650286
500 0.646978
505 0.73659
510 0.786332
515 0.834605
520 0.762275
525 1.03226
530 1.23395
535 1.85745
540 2.37269
545 51.8239
550 1049.52
555 1822.99
560 520.624
565 62.6855
570 8.87988
575 2.24865
580 1.35262
585 1.14853
590 0.85258
595 0.901486
600 0.757606
Ex : 563
200 0.350896
205 0.387061
210 0.483392
215 0.392266
220 0.453948
225 0.421897
230 0.442889
235 0.332933
240 0.392069
245 0.4901
250 0.368381
255 0.366603
260 0.488512
265 0.495211
270 0.340856
275 0.398156
280 0.393065
285 0.369852
290 0.389538
295 0.521335
300 0.480665
305 0.46383
310 0.450945
315 0.409717
320 0.333839
325 0.356002
330 0.326273
335 0.503988
340 0.369276
345 0.526424
350 0.452716
355 0.452147
360 0.551751
365 0.428866
370 0.50401
375 0.507863
380 0.426273
385 0.522949
390 0.435578
395 0.517403
400 0.428958
405 0.41034
410 0.529623
415 0.470896
420 0.555327
425 0.449205
430 0.402423
435 0.4908
440 0.642247
445 0.637775
450 0.5359
455 0.515443
460 0.454567
465 0.389524
470 0.553832
475 0.55836
480 0.525287
485 0.607673
490 0.56302
495 0.588574
500 0.5947
505 0.694115
510 0.801196
515 0.812014
520 0.778867
525 0.917679
530 1.19526
535 1.2376
540 1.7011
545 2.0907
550 51.0957
555 1011.7
560 1769.05
565 505.442
570 60.967
575 8.47707
580 2.27062
585 1.22301
590 1.11756
595 0.874339
600 0.650533
Ex : 568
200 0.547022
205 0.462352
210 0.435104
215 0.361894
220 0.439736
225 0.391566
230 0.489503
235 0.494797
240 0.368498
245 0.448927
250 0.433825
255 0.457401
260 0.372193
265 0.386579
270 0.438296
275 0.486966
280 0.442631
285 0.300249
290 0.43467
295 0.402197
300 0.422576
305 0.459544
310 0.416772
315 0.480985
320 0.367025
325 0.466461
330 0.450963
335 0.479174
340 0.498891
345 0.646827
350 0.572726
355 0.373212
360 0.560771
365 0.576429
370 0.44305
375 0.520244
380 0.486783
385 0.464755
390 0.483093
395 0.601873
400 0.516297
405 0.411776
410 0.545051
415 0.449958
420 0.52782
425 0.47466
430 0.484973
435 0.40327
440 0.578201
445 0.444142
450 0.542753
455 0.537205
460 0.567594
465 0.640861
470 0.53335
475 0.602863
480 0.640072
485 0.687831
490 0.712272
495 0.608244
500 0.594961
505 0.590724
510 0.658396
515 0.637697
520 0.841285
525 0.814627
530 0.824502
535 1.00246
540 1.16018
545 1.52717
550 2.1815
555 39.5062
560 921.443
565 1702.59
570 513.058
575 61.8557
580 8.42246
585 2.08151
590 1.21983
595 1.14776
600 0.492088
Ex : 573
200 0.338692
205 0.444352
210 0.469324
215 0.467335
220 0.416367
225 0.553824
230 0.400604
235 0.338969
240 0.33292
245 0.424542
250 0.398045
255 0.386432
260 0.423838
265 0.404436
270 0.419744
275 0.461933
280 0.376103
285 0.35024
290 0.480286
295 0.27599
300 0.422069
305 0.49034
310 0.415156
315 0.462363
320 0.390457
325 0.391396
330 0.40496
335 0.372116
340 0.402857
345 0.503891
350 0.571636
355 0.424477
360 0.412062
365 0.475406
370 0.345898
375 0.543984
380 0.400066
385 0.527108
390 0.426494
395 0.410598
400 0.350252
405 0.544637
410 0.396974
415 0.424708
420 0.563437
425 0.443055
430 0.386439
435 0.587966
440 0.508286
445 0.57536
450 0.528048
455 0.454134
460 0.511075
465 0.703286
470 0.550705
475 0.526712
480 0.592348
485 0.651453
490 0.75186
495 0.607526
500 0.637872
505 0.69592
510 0.82057
515 0.684564
520 0.70922
525 0.727259
530 0.771011
535 0.860828
540 0.955538
545 1.06006
550 1.42109
555 2.17853
560 34.0124
565 797.848
570 1574.02
575 486.245
580 58.5443
585 7.79064
590 1.88387
595 1.137
600 1.34562
Ex : 578
200 0.320492
205 0.431133
210 0.497705
215 0.377386
220 0.411201
225 0.516824
230 0.372829
235 0.374046
240 0.390113
245 0.481796
250 0.451525
255 0.415535
260 0.41296
265 0.373068
270 0.440141
275 0.388568
280 0.408812
285 0.289646
290 0.297679
295 0.270452
300 0.336707
305 0.457101
310 0.441447
315 0.377185
320 0.321401
325 0.35025
330 0.367648
335 0.429486
340 0.385902
345 0.452908
350 0.444947
355 0.444666
360 0.425488
365 0.387941
370 0.61931
375 0.4285
380 0.481562
385 0.375871
390 0.463276
395 0.460598
400 0.47815
405 0.427869
410 0.481573
415 0.339223
420 0.441625
425 0.406642
430 0.451486
435 0.54063
440 0.522353
445 0.591223
450 0.531941
455 0.459354
460 0.479677
465 0.518569
470 0.58003
475 0.490351
480 0.449421
485 0.447333
490 0.508405
495 0.544005
500 0.618538
505 0.611092
510 0.555917
515 0.553337
520 0.526468
525 0.611586
530 0.767609
535 0.677067
540 0.929092
545 0.964172
550 1.19249
555 1.53097
560 1.82777
565 29.3593
570 718.331
575 1388.39
580 419.313
585 50.6
590 6.89866
595 1.62288
600 1.16319
Ex : 583
200 0.444862
205 0.421423
210 0.541188
215 0.540297
220 0.534401
225 0.359521
230 0.407304
235 0.394811
240 0.364768
245 0.449668
250 0.33153
255 0.489246
260 0.359776
265 0.331262
270 0.325785
275 0.375956
280 0.420234
285 0.519987
290 0.427108
295 0.46848
300 0.396225
305 0.352349
310 0.392274
315 0.354849
320 0.416628
325 0.41618
330 0.453722
335 0.589369
340 0.436446
345 0.509179
350 0.486849
355 0.490175
360 0.425082
365 0.461167
370 0.419948
375 0.443418
380 0.423904
385 0.392458
390 0.577235
395 0.530815
400 0.367851
405 0.526764
410 0.474789
415 0.430119
420 0.490601
425 0.514834
430 0.605183
435 0.39872
440 0.470161
445 0.543038
450 0.419371
455 0.487489
460 0.450256
465 0.473355
470 0.59383
475 0.545279
480 0.553997
485 0.434902
490 0.572119
495 0.611071
500 0.464473
505 0.59961
510 0.625466
515 0.571023
520 0.476367
525 0.504493
530 0.58259
535 0.822477
540 0.697097
545 0.818848
550 0.879066
555 1.06225
560 1.49978
565 1.80026
570 25.3657
575 635.917
580 1199.79
585 343.777
590 41.5294
595 5.90096
600 1.7033
Ex : 588
200 0.395775
205 0.471477
210 0.448432
215 0.333261
220 0.486077
225 0.408473
230 0.5254
235 0.320492
240 0.45159
245 0.459701
250 0.410946
255 0.369805
260 0.47049
265 0.455258
270 0.439993
275 0.405907
280 0.425635
285 0.426665
290 0.374428
295 0.396745
300 0.447667
305 0.403572
310 0.469509
315 0.387157
320 0.322663
325 0.425764
330 0.50102
335 0.441454
340 0.491836
345 0.397896
350 0.499327
355 0.483891
360 0.4537
365 0.449263
370 0.404817
375 0.589909
380 0.546849
385 0.65492
390 0.484842
395 0.547666
400 0.530434
405 0.433359
410 0.536326
415 0.549529
420 0.572591
425 0.508104
430 0.514306
435 0.407755
440 0.435643
445 0.4967
450 0.543942
455 0.495569
460 0.495805
465 0.540577
470 0.568031
475 0.648064
480 0.720911
485 0.625477
490 0.547903
495 0.516962
500 0.499809
505 0.46167
510 0.564418
515 0.603678
520 0.659394
525 0.6214
530 0.685279
535 0.741928
540 0.67565
545 0.615648
550 0.791394
555 0.845531
560 1.03738
565 1.21972
570 1.57061
575 22.1824
580 537.068
585 1024.22
590 302.881
595 36.7157
600 4.32798
Ex : 593
200 0.525184
205 0.424336
210 0.349859
215 0.368468
220 0.513493
225 0.410381
230 0.429578
235 0.47062
240 0.434271
245 0.525726
250 0.445089
255 0.439393
260 0.530858
265 0.401194
270 0.485735
275 0.527216
280 0.369846
285 0.30081
290 0.370824
295 0.633491
300 0.425685
305 0.406363
310 0.412806
315 0.321449
320 0.551361
325 0.548609
330 0.580141
335 0.45326
340 0.461202
345 0.469887
350 0.46711
355 0.507205
360 0.534071
365 0.390778
370 0.395659
375 0.371227
380 0.330658
385 0.440522
390 0.526786
395 0.452954
400 0.469453
405 0.422166
410 0.541048
415 0.476391
420 0.432841
425 0.473221
430 0.583848
435 0.494459
440 0.627552
445 0.474308
450 0.578224
455 0.558098
460 0.645035
465 0.578771
470 0.561074
475 0.545617
480 0.568515
485 0.466305
490 0.504414
495 0.577241
500 0.61786
505 0.536837
510 0.511882
515 0.599518
520 0.590712
525 0.637732
530 0.677905
535 0.562743
540 0.758127
545 0.821542
550 0.687412
555 0.692808
560 0.891028
565 1.0527
570 1.28776
575 1.57247
580 19.135
585 475.26
590 885.161
595 262.853
600 38.2147
Ex : 598
200 0.340093
205 0.41417
210 0.406546
215 0.429024
220 0.403234
225 0.438163
230 0.423291
235 0.408516
240 0.336264
245 0.572645
250 0.402323
255 0.452469
260 0.486189
265 0.460448
270 0.394979
275 0.468769
280 0.475845
285 0.467918
290 0.539618
295 0.510474
300 0.535689
305 0.448129
310 0.492978
315 0.406643
320 0.507211
325 0.406834
330 0.468463
335 0.490986
340 0.375304
345 0.500048
350 0.498885
355 0.444335
360 0.509777
365 0.540002
370 0.481657
375 0.440512
380 0.448937
385 0.606595
390 0.426232
395 0.570366
400 0.67179
405 0.633956
410 0.631822
415 0.558142
420 0.450231
425 0.558004
430 0.683669
435 0.568142
440 0.535718
445 0.674792
450 0.490809
455 0.56047
460 0.40808
465 0.493403
470 0.692078
475 0.647892
480 0.46948
485 0.542536
490 0.562554
495 0.612488
500 0.708333
505 0.450057
510 0.56831
515 0.501603
520 0.581309
525 0.524912
530 0.538071
535 0.65965
540 0.506572
545 0.628025
550 0.839682
555 0.778611
560 0.814462
565 0.893208
570 1.00669
575 1.12144
580 1.43012
585 18.2795
590 423.87
595 779.359
600 478.294
Ex : 603
200 0.455618
205 0.473781
210 0.426234
215 0.509673
220 0.377484
225 0.395393
230 0.428879
235 0.53511
240 0.574411
245 0.46414
250 0.445659
255 0.440372
260 0.514638
265 0.531265
270 0.472233
275 0.340962
280 0.467441
285 0.433326
290 0.563858
295 0.581579
300 0.56638
305 0.477762
310 0.409491
315 0.443091
320 0.555101
325 0.429003
330 0.408526
335 0.430767
340 0.538642
345 0.443604
350 0.527458
355 0.531816
360 0.452717
365 0.390877
370 0.631775
375 0.451798
380 0.477184
385 0.421761
390 0.522498
395 0.576277
400 0.453326
405 0.465555
410 0.505546
415 0.560568
420 0.441149
425 0.489093
430 0.540412
435 0.409049
440 0.510461
445 0.557002
450 0.397883
455 0.524841
460 0.540384
465 0.679593
470 0.591022
475 0.506242
480 0.652672
485 0.415064
490 0.536901
495 0.58549
500 0.750239
505 0.509872
510 0.496384
515 0.61884
520 0.554568
525 0.836718
530 0.643843
535 0.503785
540 0.640669
545 0.637001
550 0.507544
555 0.714937
560 0.657327
565 0.76427
570 0.87152
575 0.808499
580 1.03139
585 1.30857
590 16.6842
595 360.559
600 741.942
