File format V 1.0
jeu. 5. janv. 20:13:21 2017
Operator : 
Comments : 

=============================================
SpectroFluorometer parameters
Mode : 3D measurement
Data : Fluorescence
Phospho. : Ordinary
Spectrum : Fluorescence

Scan speed : 2400 nm/mn
Response : 100 ms
PM Voltage : 700 V
Shutter : On

Lambda Ex. Start : 203
Lambda Ex. End : 603
Lambda Ex. Step : 5
Ex. Slit : 5 nm

Lambda Em. Start : 200
Lambda Em. End : 600
Lambda Em. Step : 5
Em. Slit : 5 nm

Repetition : 1
Decal lambda em : 10
=============================================
DATA
Ex : 203
200 5.18293
205 4.77862
210 5.22966
215 3.48491
220 5.76783
225 7.25767
230 5.76178
235 3.55395
240 3.11774
245 4.27124
250 4.39367
255 6.12684
260 4.7694
265 6.64701
270 4.8578
275 5.92871
280 9.75082
285 9.71767
290 3.28012
295 4.68612
300 4.68961
305 3.94581
310 3.3538
315 5.62905
320 2.43035
325 4.94281
330 4.59067
335 5.10486
340 6.1968
345 5.57929
350 4.00466
355 6.78254
360 6.82935
365 5.3481
370 4.58708
375 6.27481
380 4.63332
385 4.59301
390 4.63093
395 5.93338
400 9.14708
405 8.52903
410 2.07529
415 3.87944
420 3.2806
425 5.78075
430 7.87244
435 5.97785
440 5.37963
445 7.21735
450 5.29897
455 3.69931
460 5.47854
465 4.58747
470 5.92234
475 4.22462
480 4.80026
485 3.94337
490 6.35097
495 7.96699
500 6.81108
505 8.37427
510 5.65416
515 5.62832
520 6.95324
525 4.48377
530 5.86575
535 6.92847
540 4.3535
545 6.26641
550 10.6951
555 7.05173
560 4.23719
565 7.6471
570 8.02571
575 7.42981
580 6.58654
585 3.83713
590 3.78881
595 4.73635
600 0.538979
Ex : 208
200 5.15232
205 3.77093
210 3.5169
215 3.99973
220 3.61614
225 4.94296
230 4.21948
235 6.07049
240 3.98945
245 3.07333
250 3.8289
255 3.01324
260 5.99687
265 4.52821
270 7.93519
275 4.83336
280 3.87061
285 3.75804
290 2.91905
295 3.62046
300 4.83221
305 2.56344
310 3.22654
315 8.48166
320 7.30183
325 3.20782
330 5.88956
335 6.622
340 7.6868
345 5.11121
350 4.67092
355 5.59147
360 5.07306
365 7.69462
370 3.63331
375 5.7467
380 8.51544
385 5.44588
390 7.62975
395 5.19567
400 3.95665
405 7.39398
410 5.1113
415 8.79565
420 4.50169
425 5.62456
430 6.80446
435 5.6103
440 7.89319
445 5.42887
450 5.38322
455 6.07649
460 6.98033
465 6.46934
470 6.40307
475 8.4038
480 5.72037
485 3.20771
490 3.82676
495 3.81818
500 4.635
505 6.94134
510 4.66548
515 3.67807
520 3.43475
525 4.29132
530 4.53707
535 4.687
540 6.70838
545 5.49572
550 7.37999
555 5.15452
560 5.64835
565 4.06176
570 3.63972
575 4.27112
580 2.55568
585 3.12561
590 2.83809
595 3.31674
600 5.69466
Ex : 213
200 4.85714
205 4.28787
210 6.6246
215 4.69084
220 5.61674
225 3.45544
230 3.01257
235 3.17867
240 4.47864
245 5.05469
250 8.33236
255 4.0499
260 3.39933
265 4.09846
270 8.114
275 5.89162
280 5.85006
285 7.54243
290 2.99561
295 4.70503
300 10.3518
305 5.64572
310 5.4233
315 4.30597
320 4.55316
325 4.69068
330 4.70186
335 4.95034
340 7.86343
345 6.8117
350 3.27609
355 3.57878
360 4.32856
365 5.21174
370 8.43703
375 5.08824
380 7.82009
385 3.99161
390 7.74139
395 4.58987
400 5.60575
405 6.64251
410 5.3687
415 4.21046
420 5.862
425 5.84564
430 5.5767
435 4.0065
440 3.39112
445 8.02558
450 5.98371
455 2.87284
460 3.98321
465 7.37857
470 4.71679
475 3.01588
480 5.89859
485 8.16369
490 4.27809
495 5.58833
500 6.32601
505 4.09967
510 5.67441
515 8.41002
520 7.6684
525 5.173
530 8.51786
535 6.76631
540 6.89084
545 4.03357
550 8.5367
555 8.17185
560 7.30101
565 4.98601
570 3.1752
575 3.73998
580 4.01528
585 3.85931
590 7.55153
595 6.89028
600 5.65821
Ex : 218
200 6.10588
205 4.24482
210 3.31705
215 1.682
220 4.34648
225 5.01979
230 4.6752
235 6.81124
240 4.53091
245 3.61731
250 8.20517
255 7.34359
260 4.89195
265 7.30033
270 2.74196
275 5.03656
280 3.93753
285 2.28989
290 5.05265
295 3.03476
300 7.48162
305 6.06286
310 6.63078
315 4.26472
320 4.68397
325 6.89411
330 3.50483
335 4.69857
340 8.22114
345 6.62021
350 8.89082
355 7.09223
360 4.24599
365 7.47014
370 6.7394
375 7.75987
380 8.79228
385 5.54373
390 6.33953
395 6.19231
400 5.396
405 6.48984
410 6.71424
415 5.11896
420 5.23656
425 4.76981
430 5.55801
435 6.52409
440 5.4393
445 5.62342
450 7.38615
455 4.67713
460 3.70109
465 4.41165
470 6.08678
475 5.56391
480 7.02728
485 4.71596
490 8.53493
495 6.58026
500 5.16428
505 5.76981
510 4.18017
515 3.86892
520 5.69343
525 3.71244
530 4.81077
535 5.67403
540 4.4859
545 5.34723
550 2.65674
555 6.10435
560 4.10898
565 7.4161
570 2.89436
575 4.03282
580 4.2013
585 4.07795
590 8.80571
595 3.94533
600 0.448963
Ex : 223
200 3.4386
205 6.22917
210 4.95156
215 5.56879
220 5.18078
225 3.4395
230 5.98346
235 4.52285
240 7.42599
245 5.39461
250 3.22296
255 4.18819
260 2.19497
265 3.37365
270 3.84685
275 4.97207
280 3.73657
285 5.89205
290 4.00064
295 3.17464
300 5.41652
305 3.52819
310 2.6875
315 5.02001
320 3.29471
325 3.61933
330 3.88811
335 7.50062
340 4.69556
345 4.34155
350 6.36269
355 2.97481
360 6.06262
365 5.01578
370 7.63754
375 7.56149
380 6.04251
385 5.14599
390 8.30664
395 3.43995
400 9.34267
405 7.02721
410 3.60687
415 6.92377
420 3.86907
425 6.04452
430 4.09747
435 4.17273
440 5.24028
445 5.54894
450 7.59679
455 7.14751
460 5.41521
465 7.16989
470 9.14826
475 10.5071
480 3.13587
485 2.8874
490 5.83643
495 4.49437
500 3.2821
505 4.63409
510 4.66468
515 6.72885
520 3.43514
525 3.51622
530 4.39886
535 4.91508
540 4.38399
545 5.26989
550 7.08951
555 4.08796
560 5.38254
565 7.18186
570 4.94788
575 6.01455
580 7.53547
585 6.01553
590 3.89703
595 9.86408
600 3.60387
Ex : 228
200 5.3046
205 6.16208
210 3.12773
215 4.60185
220 5.4053
225 3.85028
230 4.75029
235 2.95301
240 3.5274
245 4.31589
250 5.91151
255 7.68807
260 6.80075
265 4.39555
270 8.48134
275 3.94854
280 4.37041
285 3.70858
290 3.95806
295 2.41975
300 3.56015
305 2.61555
310 2.72304
315 2.1261
320 2.48499
325 6.88643
330 6.1871
335 4.03835
340 4.39768
345 6.48649
350 3.00343
355 5.14594
360 3.66761
365 4.33143
370 4.46368
375 5.4835
380 4.65175
385 6.81986
390 4.28338
395 4.04226
400 5.35338
405 5.15903
410 7.00678
415 5.33974
420 4.57495
425 5.23522
430 8.22202
435 6.24333
440 5.07853
445 4.73139
450 4.46457
455 4.30396
460 5.99593
465 5.40873
470 3.75976
475 5.79013
480 7.18983
485 2.81846
490 8.84116
495 5.0518
500 6.20373
505 3.69373
510 4.2018
515 3.39289
520 3.62153
525 4.87229
530 5.96081
535 5.07562
540 8.23582
545 4.37187
550 3.97686
555 6.59486
560 4.30609
565 6.12669
570 11.0984
575 4.97265
580 6.30582
585 4.80889
590 6.2279
595 3.13701
600 0.35698
Ex : 233
200 4.69744
205 6.8138
210 5.12179
215 4.88353
220 2.1369
225 2.17303
230 4.0453
235 3.97657
240 2.88035
245 2.34229
250 4.72812
255 3.85525
260 2.09426
265 4.08492
270 6.04614
275 3.29874
280 6.74584
285 3.23897
290 5.00411
295 4.32639
300 4.73655
305 5.05225
310 3.82274
315 2.59429
320 3.53258
325 3.11218
330 3.5051
335 3.49144
340 4.02032
345 2.75805
350 4.97905
355 9.95071
360 4.27741
365 3.85622
370 3.24052
375 2.54524
380 3.74632
385 3.98032
390 12.0805
395 6.31483
400 6.41905
405 5.26289
410 7.33884
415 8.39286
420 7.4523
425 3.10923
430 3.41191
435 5.09961
440 7.32455
445 3.45421
450 6.02047
455 5.83857
460 5.03213
465 2.81122
470 5.45329
475 5.80181
480 3.16245
485 1.06621
490 4.96431
495 4.16722
500 10.6746
505 6.73745
510 4.7618
515 6.18464
520 4.39218
525 4.3085
530 3.54838
535 5.90217
540 4.7959
545 3.03179
550 3.89951
555 3.91872
560 2.04792
565 7.41848
570 3.6725
575 5.40403
580 3.31385
585 4.30702
590 4.48038
595 5.34765
600 0.608542
Ex : 238
200 4.21053
205 4.20542
210 11.1044
215 6.34949
220 4.47691
225 2.65998
230 4.84074
235 3.10922
240 4.67353
245 5.59021
250 4.54781
255 6.01611
260 3.56778
265 4.21049
270 2.80441
275 5.54217
280 4.20022
285 5.41007
290 2.30963
295 4.34615
300 5.35693
305 4.67172
310 5.00026
315 6.65965
320 3.5126
325 6.4797
330 3.6835
335 5.20622
340 3.92949
345 5.83404
350 3.2277
355 7.7471
360 4.16013
365 4.39866
370 3.89214
375 5.66661
380 5.29642
385 4.64127
390 4.19363
395 4.6533
400 10.4855
405 6.33891
410 7.01511
415 4.06037
420 3.73941
425 4.91563
430 5.043
435 3.5669
440 4.5025
445 3.21421
450 3.14227
455 4.30979
460 3.28409
465 2.90757
470 5.30438
475 4.74509
480 2.76426
485 2.4406
490 3.33248
495 2.68748
500 5.34856
505 2.75376
510 4.15786
515 4.91972
520 5.21141
525 2.93629
530 4.9015
535 2.44805
540 3.51477
545 4.61898
550 3.42316
555 4.47807
560 3.458
565 3.64027
570 3.12076
575 4.0534
580 3.70423
585 3.60215
590 4.34293
595 2.9194
600 1.04118
Ex : 243
200 7.25703
205 4.13287
210 3.97081
215 1.86061
220 3.22922
225 3.86382
230 3.46234
235 4.14916
240 2.51996
245 2.31609
250 3.78253
255 4.81522
260 5.70731
265 3.24106
270 2.35347
275 3.23515
280 2.13358
285 3.38113
290 3.31523
295 3.33961
300 3.71759
305 3.78308
310 2.56925
315 5.17592
320 4.11512
325 2.61853
330 3.09634
335 3.21906
340 2.29003
345 3.08198
350 4.4287
355 3.75338
360 3.49879
365 4.27886
370 3.6346
375 3.87125
380 2.49753
385 3.43727
390 4.30949
395 2.58969
400 2.1002
405 3.73791
410 3.94865
415 4.41492
420 3.02243
425 3.73807
430 2.36464
435 2.04858
440 3.23851
445 2.87369
450 3.00124
455 5.41318
460 2.4182
465 2.33163
470 2.54062
475 1.56257
480 1.5389
485 4.08157
490 5.58434
495 4.86333
500 2.71355
505 3.65338
510 2.81392
515 4.92478
520 3.98602
525 2.42599
530 4.09807
535 3.2007
540 5.15629
545 4.6153
550 3.027
555 3.22202
560 3.6864
565 1.89262
570 2.40006
575 3.909
580 2.76146
585 4.35593
590 3.41621
595 1.72194
600 0.195951
Ex : 248
200 2.92079
205 2.66755
210 6.50698
215 3.39908
220 3.14767
225 2.31417
230 4.89549
235 3.01499
240 3.32563
245 1.42853
250 3.61538
255 6.93351
260 3.10247
265 2.05776
270 1.48937
275 2.25335
280 2.72425
285 3.43911
290 3.54467
295 1.88861
300 1.4526
305 2.14009
310 1.97702
315 2.7482
320 2.84291
325 2.1118
330 4.56056
335 4.03236
340 6.67773
345 2.59626
350 3.24946
355 2.33772
360 2.30555
365 3.27668
370 2.09847
375 3.36147
380 2.15793
385 2.2721
390 3.99372
395 3.47261
400 4.07307
405 4.1962
410 3.45284
415 4.40512
420 3.80525
425 1.28735
430 4.28108
435 4.51908
440 2.5507
445 2.85459
450 3.3265
455 2.31638
460 2.22118
465 4.35297
470 3.42544
475 3.55028
480 2.58875
485 3.19866
490 3.51144
495 2.79497
500 4.17319
505 3.00026
510 3.15293
515 2.724
520 4.9548
525 3.16237
530 2.81953
535 3.15739
540 3.34275
545 3.75781
550 4.62299
555 5.03333
560 3.5319
565 2.46234
570 2.81783
575 2.06313
580 1.44497
585 1.70281
590 2.32193
595 2.07448
600 5.99639
Ex : 253
200 1.48396
205 2.56922
210 1.28843
215 2.67281
220 1.71607
225 1.24845
230 3.03109
235 2.00687
240 1.47815
245 3.76443
250 3.06433
255 2.10579
260 2.87793
265 5.30426
270 1.38584
275 1.24418
280 1.18685
285 2.16573
290 1.74271
295 3.4319
300 1.96515
305 2.19353
310 3.10121
315 3.26393
320 1.99441
325 1.86555
330 2.44523
335 2.97172
340 2.20625
345 3.91741
350 2.75199
355 2.51294
360 2.1767
365 2.33016
370 2.26595
375 3.43153
380 4.3578
385 2.21292
390 2.73721
395 2.83453
400 2.28395
405 2.31903
410 1.92082
415 2.15638
420 2.18458
425 2.13244
430 2.50915
435 2.94414
440 3.15522
445 2.42118
450 2.78601
455 4.27284
460 2.25346
465 4.59986
470 1.7167
475 4.46365
480 4.30666
485 2.21438
490 2.72015
495 3.07647
500 2.7382
505 3.19844
510 2.4836
515 2.19682
520 2.16618
525 1.55643
530 2.00743
535 1.23197
540 2.96205
545 3.01828
550 3.45537
555 2.79147
560 1.60574
565 2.54159
570 2.20759
575 1.87716
580 2.16587
585 2.29453
590 1.9258
595 2.14489
600 7.77681
Ex : 258
200 2.62528
205 1.5542
210 1.66942
215 1.93405
220 1.30988
225 1.92344
230 0.893035
235 1.23454
240 2.36008
245 2.17189
250 1.67063
255 1.33379
260 1.23912
265 2.77155
270 3.49565
275 2.66299
280 2.55712
285 1.8524
290 0.889075
295 1.85554
300 2.21022
305 1.65015
310 1.38406
315 1.31819
320 1.77634
325 1.99251
330 2.90786
335 2.38682
340 2.02812
345 2.57012
350 1.68479
355 1.76876
360 1.62044
365 1.22292
370 2.93091
375 1.7443
380 2.01254
385 2.18024
390 1.3742
395 2.06482
400 1.08887
405 2.23288
410 1.60555
415 4.33313
420 2.74083
425 2.3966
430 2.88144
435 1.8808
440 3.15499
445 2.43556
450 1.58111
455 1.402
460 2.61647
465 2.96449
470 2.95912
475 2.43361
480 2.59664
485 2.14073
490 2.76753
495 1.62827
500 1.77766
505 1.72932
510 2.18821
515 2.05136
520 1.829
525 1.22489
530 2.32522
535 1.91698
540 1.62371
545 1.34471
550 2.67119
555 1.84139
560 2.36261
565 1.63826
570 0.874563
575 1.79522
580 1.02075
585 1.38069
590 1.37616
595 2.01742
600 9.26885
Ex : 263
200 1.15199
205 2.25246
210 1.50506
215 1.48801
220 1.19163
225 2.19818
230 1.77122
235 0.706615
240 2.11155
245 1.22067
250 1.11041
255 2.1422
260 1.71392
265 1.52511
270 1.07552
275 1.70327
280 1.60713
285 0.948171
290 0.96317
295 1.59181
300 1.55844
305 1.8877
310 1.89261
315 1.51358
320 1.99604
325 0.932146
330 2.99993
335 1.45515
340 1.82841
345 1.25066
350 0.73055
355 1.02356
360 1.48291
365 2.42755
370 1.66551
375 1.52675
380 2.23049
385 2.11078
390 2.29472
395 2.13555
400 1.78157
405 2.40787
410 1.45095
415 2.38294
420 1.44527
425 2.02187
430 1.19188
435 1.93916
440 1.69136
445 3.27994
450 1.04111
455 3.01604
460 1.20308
465 1.89512
470 1.69369
475 1.15252
480 1.32165
485 1.89467
490 2.31976
495 1.65172
500 1.89472
505 1.65957
510 2.23928
515 2.38667
520 2.17083
525 1.69718
530 1.68841
535 1.67543
540 1.61452
545 1.23903
550 0.953606
555 1.06373
560 1.67268
565 2.19135
570 1.68321
575 1.36937
580 1.9588
585 2.872
590 1.48689
595 1.35858
600 9.84376
Ex : 268
200 1.0854
205 0.711025
210 0.549423
215 1.3604
220 1.09155
225 0.844959
230 0.917572
235 1.02109
240 1.04088
245 1.18736
250 0.637591
255 0.958759
260 0.612516
265 0.701306
270 0.878637
275 0.590673
280 0.869194
285 1.61023
290 0.64803
295 1.46336
300 1.37021
305 0.916417
310 1.60201
315 0.914651
320 0.913763
325 0.461183
330 1.14203
335 1.85799
340 1.16278
345 1.14164
350 2.1548
355 1.20691
360 1.16217
365 1.37294
370 1.4072
375 1.73231
380 1.95575
385 1.95525
390 1.15814
395 0.919948
400 2.02063
405 2.08729
410 1.62415
415 1.1117
420 1.27043
425 1.95647
430 1.17729
435 1.20061
440 1.36424
445 1.7336
450 1.26047
455 1.12568
460 0.91556
465 0.801021
470 1.46219
475 1.06882
480 1.60865
485 0.987206
490 1.14064
495 1.46772
500 1.95167
505 0.901099
510 1.22373
515 1.25664
520 1.26594
525 1.45405
530 0.916758
535 1.13072
540 1.06598
545 1.46843
550 1.99768
555 1.57541
560 2.28201
565 1.24272
570 1.57307
575 1.10444
580 1.5729
585 1.10293
590 1.32892
595 1.52484
600 0.173521
Ex : 273
200 0.605117
205 1.37389
210 0.761531
215 0.799256
220 0.624689
225 1.23709
230 0.869387
235 0.8241
240 0.637746
245 0.870864
250 0.896485
255 0.691473
260 1.65783
265 0.919575
270 0.482731
275 0.50314
280 1.04843
285 1.07243
290 1.12204
295 0.818536
300 1.1871
305 0.849281
310 1.26307
315 0.819223
320 0.896161
325 1.24327
330 1.09435
335 1.3417
340 1.60895
345 0.842523
350 0.897398
355 0.906474
360 1.75402
365 1.23832
370 1.19391
375 0.715303
380 1.29679
385 1.7062
390 1.50885
395 0.760819
400 0.952755
405 0.678122
410 1.0135
415 1.37202
420 1.3729
425 1.27565
430 1.39211
435 1.0758
440 1.19205
445 1.6598
450 1.94016
455 1.90237
460 1.25225
465 1.17122
470 0.891443
475 0.913965
480 0.984248
485 1.16967
490 1.13942
495 0.884687
500 0.587986
505 1.17366
510 1.04897
515 0.902709
520 0.98292
525 0.803888
530 0.931516
535 0.963035
540 0.419812
545 0.811878
550 1.28125
555 1.53912
560 0.705101
565 1.92691
570 1.18705
575 0.969507
580 0.759604
585 0.492826
590 0.861084
595 0.937656
600 0.106702
Ex : 278
200 1.04587
205 0.667696
210 0.772342
215 1.15697
220 0.765586
225 0.459343
230 0.497821
235 0.63133
240 0.765927
245 0.922142
250 0.613092
255 0.529311
260 0.671885
265 1.14742
270 1.21516
275 0.683324
280 0.636167
285 0.859589
290 0.986436
295 0.739843
300 0.994038
305 0.929184
310 1.1842
315 0.685154
320 1.12655
325 0.925042
330 0.814893
335 1.14731
340 1.12599
345 0.878307
350 0.672423
355 0.830122
360 0.801298
365 1.33056
370 1.33844
375 0.717884
380 1.23449
385 0.740995
390 0.89963
395 1.3776
400 1.21538
405 1.24728
410 1.16643
415 1.55387
420 0.994921
425 0.863828
430 0.925149
435 0.896358
440 1.09452
445 0.914005
450 1.03327
455 0.655196
460 1.43901
465 1.05157
470 0.967831
475 0.785032
480 1.43135
485 1.14764
490 0.583385
495 1.17312
500 0.682099
505 1.29369
510 0.971403
515 1.20614
520 1.14589
525 0.856581
530 0.821957
535 0.762644
540 0.648888
545 0.69558
550 1.14534
555 1.03713
560 0.63436
565 0.657585
570 0.859473
575 0.778383
580 0.492499
585 1.2826
590 0.948826
595 1.14092
600 0.129832
Ex : 283
200 0.628167
205 0.556527
210 0.570699
215 0.528701
220 0.567333
225 0.371168
230 0.584481
235 1.09762
240 0.501136
245 0.383738
250 0.348576
255 0.87525
260 0.594851
265 0.636863
270 1.03398
275 0.682039
280 1.01117
285 0.835235
290 0.781788
295 0.347384
300 0.602813
305 0.780133
310 0.538561
315 0.472065
320 0.935241
325 0.873438
330 0.71906
335 0.815492
340 0.703028
345 1.03905
350 0.956523
355 0.410824
360 1.07681
365 1.04322
370 1.08005
375 0.9646
380 0.695392
385 0.902852
390 0.759535
395 1.15096
400 0.590714
405 0.759484
410 0.680149
415 0.888903
420 0.690403
425 1.08717
430 0.715416
435 0.965604
440 1.21915
445 0.695063
450 0.751805
455 0.822381
460 0.444696
465 0.70026
470 0.685395
475 0.837695
480 0.820889
485 0.746231
490 0.821407
495 0.594548
500 0.797393
505 0.555006
510 0.754289
515 0.670048
520 0.56087
525 0.715565
530 0.762449
535 0.535188
540 0.711103
545 0.717395
550 1.00834
555 0.72418
560 0.689113
565 1.14892
570 0.592873
575 0.62329
580 0.686833
585 0.764917
590 0.361842
595 0.471848
600 0.0536946
Ex : 288
200 0.436602
205 0.764651
210 0.856331
215 0.516872
220 0.498263
225 0.557184
230 0.477079
235 0.413698
240 0.481148
245 0.490627
250 0.554636
255 0.497518
260 0.556082
265 0.365267
270 0.629759
275 0.762555
280 0.477335
285 0.395812
290 0.449137
295 0.656309
300 0.389037
305 0.5114
310 0.481423
315 0.957326
320 0.447931
325 0.384352
330 0.678103
335 0.769002
340 0.43703
345 0.86218
350 0.438103
355 1.04002
360 0.764494
365 0.601186
370 0.54858
375 0.575996
380 0.787177
385 0.967352
390 0.924871
395 0.767538
400 0.909925
405 0.832202
410 0.913692
415 1.17814
420 1.14256
425 0.901089
430 0.796874
435 0.944995
440 0.9072
445 0.714952
450 0.73453
455 0.930479
460 0.826412
465 0.857567
470 0.448471
475 0.95224
480 0.588948
485 0.507596
490 0.332637
495 0.713002
500 0.686006
505 0.379609
510 0.5926
515 0.477354
520 0.496861
525 0.86417
530 0.421476
535 0.333255
540 0.46528
545 0.620926
550 0.400725
555 0.788448
560 0.558064
565 0.693944
570 0.801417
575 0.7921
580 0.584345
585 0.813931
590 0.51308
595 0.680412
600 0.0774283
Ex : 293
200 0.457663
205 0.401133
210 0.35291
215 0.648827
220 0.474178
225 0.406623
230 0.318802
235 0.327257
240 0.346536
245 0.755251
250 0.481254
255 0.297109
260 0.313738
265 0.333614
270 0.395013
275 0.552104
280 0.412068
285 0.457269
290 0.798363
295 0.467797
300 0.449116
305 0.638253
310 0.714725
315 0.324493
320 0.359138
325 0.891682
330 0.537119
335 0.463985
340 0.629452
345 0.448707
350 0.464945
355 0.581287
360 0.73675
365 0.927798
370 0.648783
375 0.638123
380 0.648128
385 0.601086
390 0.940825
395 0.735859
400 0.722551
405 1.21563
410 0.805852
415 0.552205
420 1.28478
425 0.74718
430 1.07297
435 0.670995
440 0.802949
445 0.618187
450 0.915922
455 1.04365
460 0.554267
465 0.558965
470 0.637006
475 0.464829
480 0.46684
485 0.639339
490 0.53225
495 0.560674
500 0.533868
505 0.474473
510 0.465021
515 0.605604
520 0.604837
525 0.54832
530 0.512936
535 0.266415
540 0.45911
545 0.674218
550 0.40917
555 0.608568
560 0.466896
565 0.401981
570 0.317691
575 0.688663
580 0.863291
585 0.739303
590 0.519625
595 0.354533
600 0.0403445
Ex : 298
200 0.274537
205 0.459463
210 0.374882
215 0.513313
220 0.207069
225 0.197434
230 0.341669
235 0.473351
240 0.477631
245 0.29725
250 0.37945
255 0.419962
260 0.645337
265 0.435297
270 0.519091
275 0.33034
280 0.325464
285 0.537293
290 0.591208
295 0.454165
300 0.58565
305 0.452327
310 0.280237
315 0.456304
320 0.583316
325 0.714529
330 0.477628
335 0.609734
340 0.393748
345 0.555494
350 0.659824
355 0.702796
360 0.543218
365 0.824325
370 0.378051
375 0.733805
380 0.478064
385 0.895881
390 0.561736
395 0.63083
400 0.771072
405 0.546583
410 0.623807
415 0.756735
420 0.661208
425 0.59126
430 0.522035
435 1.07567
440 0.696243
445 0.651552
450 0.524672
455 0.412703
460 0.790111
465 0.653557
470 0.673011
475 0.294539
480 0.640883
485 0.458562
490 0.444253
495 0.514241
500 0.418616
505 0.305292
510 0.591098
515 0.592453
520 0.452202
525 0.536465
530 0.544772
535 0.520802
540 0.708432
545 0.403587
550 0.444698
555 0.311034
560 0.220331
565 0.55942
570 0.285211
575 0.223484
580 0.349229
585 0.507321
590 0.6251
595 0.520592
600 0.0592414
Ex : 303
200 0.247115
205 0.264608
210 0.396668
215 0.799523
220 0.342198
225 0.265213
230 0.238678
235 0.394829
240 0.165727
245 0.253139
250 0.397076
255 0.259343
260 0.332875
265 0.247808
270 0.363752
275 0.151236
280 0.332201
285 0.296738
290 0.15471
295 0.34378
300 0.358368
305 0.210821
310 0.364949
315 0.349451
320 0.482868
325 0.366443
330 0.38049
335 0.295988
340 0.547824
345 0.473856
350 0.427043
355 0.539438
360 0.519988
365 0.689138
370 0.704188
375 0.358452
380 0.566874
385 0.400531
390 0.721287
395 0.585515
400 0.502914
405 0.628607
410 0.704129
415 0.490295
420 0.69581
425 0.588872
430 0.709874
435 0.690046
440 0.567963
445 0.51904
450 0.385393
455 0.624875
460 0.340622
465 0.703772
470 0.474785
475 0.731192
480 0.458675
485 0.419853
490 0.331034
495 0.64982
500 0.50303
505 0.502828
510 0.352978
515 0.388395
520 0.333009
525 0.314231
530 0.319443
535 0.320807
540 0.460157
545 0.323228
550 0.388208
555 0.370842
560 0.325472
565 0.491814
570 0.800392
575 0.473255
580 0.492333
585 0.345829
590 0.235131
595 0.474523
600 0.659571
Ex : 308
200 0.246613
205 0.27191
210 0.315838
215 0.292871
220 0.410635
225 0.673859
230 0.380275
235 0.217716
240 0.135939
245 0.172447
250 0.12304
255 0.320812
260 0.302181
265 0.255473
270 0.27493
275 0.375542
280 0.169425
285 0.275739
290 0.567099
295 0.165316
300 0.343351
305 0.361186
310 0.341298
315 0.257169
320 0.356301
325 0.291104
330 0.33244
335 0.489193
340 0.336097
345 0.509266
350 0.578918
355 0.561504
360 0.417568
365 0.416041
370 0.502884
375 0.366273
380 0.87376
385 0.567123
390 0.466199
395 0.503927
400 0.471779
405 0.395593
410 0.459769
415 0.582917
420 0.464659
425 0.551756
430 0.439579
435 0.283414
440 0.585973
445 0.714136
450 0.318975
455 0.391151
460 0.57843
465 0.577956
470 0.438858
475 0.550554
480 0.397929
485 0.319166
490 0.206624
495 0.48511
500 0.471895
505 0.356818
510 0.261298
515 0.429599
520 0.416839
525 0.192699
530 0.153843
535 0.397264
540 0.397746
545 0.496209
550 0.29376
555 0.176355
560 0.382224
565 0.593316
570 0.299974
575 0.330679
580 0.194346
585 0.505584
590 0.210123
595 0.305885
600 0.0348086
Ex : 313
200 0.263813
205 0.242069
210 0.171351
215 0.182955
220 0.248591
225 0.11789
230 0.194335
235 0.154489
240 0.136992
245 0.190702
250 0.317102
255 0.307858
260 0.170304
265 0.31378
270 0.422822
275 0.159235
280 0.149713
285 0.205665
290 0.207415
295 0.239114
300 0.296148
305 0.333587
310 0.430831
315 0.247304
320 0.255773
325 0.312256
330 0.6478
335 0.717289
340 0.513727
345 0.582959
350 0.462488
355 0.768884
360 0.639709
365 0.583805
370 0.699281
375 0.861872
380 0.875286
385 0.839739
390 0.627611
395 0.882022
400 1.00857
405 0.84615
410 0.939931
415 0.665041
420 0.745494
425 0.707232
430 0.84481
435 0.721129
440 0.644796
445 0.663451
450 0.671522
455 0.700943
460 0.586479
465 0.605417
470 0.644736
475 0.492648
480 0.478429
485 0.430821
490 0.478166
495 0.393811
500 0.42967
505 0.33926
510 0.300993
515 0.325716
520 0.341309
525 0.250075
530 0.360819
535 0.290015
540 0.238475
545 0.372593
550 0.414529
555 0.414642
560 0.219882
565 0.217651
570 0.20086
575 0.181352
580 0.145868
585 0.163475
590 0.16776
595 0.202802
600 0.125332
Ex : 318
200 0.273932
205 0.231841
210 0.201151
215 0.320611
220 0.307889
225 0.31994
230 0.296912
235 0.258134
240 0.304071
245 0.175254
250 0.251116
255 0.156916
260 0.130497
265 0.0920891
270 0.367671
275 0.324845
280 0.316459
285 0.232002
290 0.237436
295 0.26592
300 0.150235
305 0.20653
310 0.267656
315 1.52484
320 1.03919
325 0.650222
330 0.747517
335 0.88448
340 1.14429
345 1.50618
350 1.88172
355 2.29251
360 3.14408
365 4.01103
370 4.55471
375 5.77461
380 6.44322
385 6.89955
390 7.60569
395 7.8857
400 8.28014
405 8.22034
410 8.33351
415 8.26106
420 8.27333
425 8.35428
430 8.12918
435 6.72713
440 6.28936
445 6.49694
450 5.64043
455 5.63853
460 5.356
465 4.58846
470 4.6188
475 3.61293
480 3.37991
485 3.14317
490 2.42476
495 2.3834
500 2.13223
505 2.06687
510 1.91265
515 1.5349
520 1.0655
525 1.14065
530 1.0263
535 0.858083
540 0.684336
545 0.725457
550 0.68847
555 0.479421
560 0.435326
565 0.39561
570 0.371719
575 0.319556
580 0.318481
585 0.316552
590 0.394471
595 0.287109
600 0.566408
Ex : 323
200 0.201347
205 0.298209
210 0.251745
215 0.258778
220 0.196923
225 0.203551
230 0.185702
235 0.31926
240 0.32872
245 0.355548
250 0.286962
255 0.14674
260 0.122337
265 0.186907
270 0.178821
275 0.269614
280 0.26379
285 0.306313
290 0.23571
295 0.238619
300 0.103127
305 0.136953
310 0.286697
315 11.5411
320 52.4359
325 22.1095
330 4.34726
335 3.05178
340 4.25508
345 5.78472
350 7.95562
355 11.253
360 14.1938
365 16.1811
370 19.7723
375 22.6106
380 26.1424
385 29.2692
390 30.5069
395 32.7114
400 33.0627
405 34.0818
410 34.5414
415 34.6823
420 33.4785
425 31.5072
430 31.4006
435 29.3552
440 28.7014
445 26.8511
450 25.1193
455 23.8879
460 21.2109
465 19.7725
470 18.528
475 17.1711
480 15.8087
485 14.3
490 12.7296
495 12.1168
500 10.4942
505 8.49374
510 8.08976
515 6.81112
520 5.8638
525 4.80318
530 4.29344
535 3.47314
540 2.918
545 2.47857
550 2.21787
555 1.71109
560 1.47213
565 1.39413
570 1.02732
575 0.765284
580 0.662507
585 0.499209
590 0.453555
595 0.405241
600 0.125084
Ex : 328
200 0.211059
205 0.222215
210 0.116696
215 0.146606
220 0.138044
225 0.182102
230 0.293882
235 0.375638
240 0.208885
245 0.264639
250 0.161562
255 0.250532
260 0.212658
265 0.133558
270 0.288972
275 0.340648
280 0.207463
285 0.164935
290 0.201268
295 0.238111
300 0.149623
305 0.179929
310 0.290763
315 3.006
320 122.528
325 288.438
330 84.0132
335 13.254
340 6.97812
345 7.13182
350 8.74687
355 12.4787
360 17.8879
365 19.8328
370 22.3089
375 24.5832
380 27.6957
385 31.5066
390 34.0418
395 36.4335
400 37.0201
405 38.1431
410 38.6452
415 38.445
420 36.9811
425 34.5119
430 33.2582
435 31.1529
440 30.1946
445 28.5023
450 26.529
455 25.1732
460 23.9105
465 22.1204
470 19.251
475 18.9742
480 16.4949
485 14.5539
490 13.5613
495 12.0021
500 10.7488
505 9.64795
510 8.25292
515 6.92035
520 5.94764
525 5.22348
530 4.37591
535 3.69575
540 3.23351
545 2.51995
550 2.42053
555 2.05671
560 1.71156
565 1.37212
570 1.2055
575 0.972381
580 0.698169
585 0.633735
590 0.478535
595 0.462741
600 0.320958
Ex : 333
200 0.0480675
205 0.113459
210 0.169331
215 0.207923
220 0.186858
225 0.153028
230 0.188408
235 0.267656
240 0.218594
245 0.132512
250 0.169316
255 0.27671
260 0.192079
265 0.173399
270 0.262189
275 0.177159
280 0.191157
285 0.144793
290 0.154497
295 0.104921
300 0.262011
305 0.30877
310 0.408294
315 0.504369
320 15.978
325 322.907
330 543.314
335 141.567
340 20.2683
345 7.31051
350 6.23564
355 7.19255
360 10.1917
365 14.6551
370 14.9634
375 15.4782
380 16.328
385 18.1489
390 21.4361
395 21.9058
400 22.885
405 23.0577
410 23.5381
415 22.973
420 21.9343
425 21.2051
430 19.0429
435 18.4701
440 17.1916
445 16.4248
450 15.9811
455 14.3907
460 12.663
465 11.9237
470 11.33
475 9.69821
480 9.55311
485 8.61304
490 7.50751
495 6.90028
500 6.0079
505 5.2904
510 4.77756
515 4.18907
520 3.82114
525 3.19406
530 2.79863
535 2.67846
540 2.10524
545 1.87037
550 1.44241
555 1.28312
560 1.17536
565 1.09492
570 0.774051
575 0.760833
580 0.441131
585 0.647701
590 0.441481
595 0.418376
600 0.0476096
Ex : 338
200 0.12022
205 0.160615
210 0.170732
215 0.142031
220 0.168896
225 0.159513
230 0.0858771
235 0.198844
240 0.152687
245 0.213515
250 0.125257
255 0.106265
260 0.157293
265 0.142159
270 0.208968
275 0.200546
280 0.186633
285 0.159907
290 0.110367
295 0.239377
300 0.216036
305 0.329043
310 0.259631
315 0.238515
320 0.535845
325 29.6937
330 479.224
335 712.913
340 173.566
345 23.3015
350 6.47426
355 4.51928
360 3.94443
365 5.76434
370 10.2968
375 11.152
380 9.3661
385 10.5212
390 12.4583
395 13.8634
400 13.656
405 13.3026
410 13.5713
415 14.2534
420 13.052
425 12.4858
430 11.3538
435 11.0838
440 10.6391
445 9.91942
450 9.29666
455 8.11302
460 7.53241
465 7.25303
470 6.84381
475 5.9949
480 5.72022
485 5.21018
490 4.40157
495 4.29639
500 3.89657
505 3.51533
510 3.10102
515 2.69863
520 2.24293
525 2.28286
530 1.88009
535 1.64908
540 1.43705
545 1.26806
550 0.98841
555 0.94116
560 1.05846
565 0.719948
570 0.731778
575 0.623809
580 0.629677
585 0.43325
590 0.420813
595 0.415083
600 0.322943
Ex : 343
200 0.235997
205 0.363997
210 0.14971
215 0.230038
220 0.255698
225 0.156191
230 0.21241
235 0.192032
240 0.173279
245 0.281588
250 0.129108
255 0.170392
260 0.218466
265 0.153424
270 0.140093
275 0.171973
280 0.150212
285 0.314172
290 0.130382
295 0.181633
300 0.149174
305 0.145127
310 0.234448
315 0.265756
320 0.352723
325 0.598178
330 33.6634
335 542.584
340 789.547
345 188.557
350 24.5477
355 5.95782
360 3.46259
365 2.36469
370 3.52907
375 7.68383
380 9.42236
385 9.82766
390 10.5313
395 10.9398
400 10.2086
405 10.3972
410 12.1444
415 12.1255
420 11.2912
425 10.3126
430 9.45324
435 8.76564
440 8.72213
445 8.11394
450 7.43233
455 7.11744
460 6.27718
465 6.30024
470 5.55645
475 5.15297
480 4.81706
485 4.08993
490 3.61032
495 3.30874
500 3.21237
505 2.83823
510 2.58189
515 2.43282
520 2.17699
525 1.71871
530 1.69247
535 1.48616
540 1.32453
545 1.10122
550 1.0744
555 0.806216
560 0.781207
565 0.718299
570 0.647439
575 0.560574
580 0.553631
585 0.47473
590 0.409312
595 0.418352
600 0.150795
Ex : 348
200 0.120243
205 0.112708
210 0.232487
215 0.215531
220 0.241915
225 0.163094
230 0.199816
235 0.209826
240 0.124718
245 0.250293
250 0.137729
255 0.142141
260 0.211438
265 0.194214
270 0.179249
275 0.228644
280 0.164334
285 0.200703
290 0.152119
295 0.134171
300 0.143943
305 0.151802
310 0.124449
315 0.169469
320 0.313583
325 0.409639
330 0.838075
335 33.0718
340 537.267
345 824.266
350 210.172
355 26.5653
360 5.85737
365 2.98589
370 2.21369
375 2.68987
380 6.80629
385 12.2191
390 13.0975
395 13.0884
400 11.5587
405 12.3493
410 13.535
415 14.0879
420 13.3157
425 10.9879
430 10.599
435 10.252
440 10.1657
445 9.21632
450 8.32198
455 7.78431
460 6.96365
465 6.28703
470 6.21589
475 5.29567
480 4.91042
485 4.28906
490 4.37184
495 3.61618
500 3.32343
505 3.05851
510 2.60769
515 2.33658
520 2.29495
525 2.03528
530 1.83784
535 1.46585
540 1.41077
545 1.27507
550 1.07356
555 0.862108
560 0.863679
565 0.798453
570 0.637196
575 0.492144
580 0.501636
585 0.449646
590 0.373016
595 0.303096
600 0.466652
Ex : 353
200 0.125242
205 0.172955
210 0.115838
215 0.157916
220 0.112387
225 0.0842116
230 0.0948424
235 0.194581
240 0.146682
245 0.189776
250 0.151003
255 0.236736
260 0.115252
265 0.166747
270 0.149498
275 0.220129
280 0.162784
285 0.118854
290 0.128967
295 0.120033
300 0.124496
305 0.17647
310 0.162345
315 0.108836
320 0.212257
325 0.307971
330 0.578048
335 0.983981
340 34.8386
345 555.655
350 817.379
355 201.434
360 25.2161
365 5.26952
370 2.59732
375 2.05483
380 3.49041
385 8.84396
390 15.7541
395 16.5709
400 13.7496
405 12.9357
410 13.8267
415 15.9231
420 15.0173
425 12.9139
430 11.5198
435 11.1753
440 10.563
445 10.5335
450 8.842
455 8.14504
460 7.35176
465 6.72603
470 6.71256
475 5.95195
480 5.65454
485 4.92313
490 4.42271
495 3.90079
500 3.51197
505 3.37825
510 2.97213
515 2.55078
520 2.24159
525 2.22118
530 1.80513
535 1.53558
540 1.3002
545 1.46602
550 1.2458
555 1.08799
560 0.98813
565 0.87787
570 0.691565
575 0.642432
580 0.721637
585 0.506025
590 0.377755
595 0.376173
600 0.585799
Ex : 358
200 0.16229
205 0.142019
210 0.151966
215 0.0802006
220 0.179778
225 0.153383
230 0.141442
235 0.107537
240 0.08702
245 0.197106
250 0.120213
255 0.154123
260 0.128855
265 0.154632
270 0.138871
275 0.132364
280 0.154198
285 0.218818
290 0.180955
295 0.11978
300 0.129794
305 0.108737
310 0.140142
315 0.204634
320 0.168788
325 0.229801
330 0.325762
335 0.477212
340 0.943715
345 33.2028
350 533.835
355 826.246
360 204.173
365 25.7787
370 5.14731
375 3.12154
380 3.13117
385 5.82955
390 11.3053
395 15.9143
400 14.5257
405 12.8901
410 13.6344
415 14.3138
420 13.8117
425 12.1106
430 10.6832
435 10.2883
440 10.5929
445 9.87415
450 8.96095
455 8.05569
460 7.24066
465 6.78804
470 6.38794
475 6.21377
480 5.76715
485 4.92393
490 4.44853
495 3.95055
500 3.87372
505 3.36406
510 3.3344
515 2.67851
520 2.41213
525 2.17956
530 1.99931
535 1.69469
540 1.42036
545 1.16232
550 1.22175
555 1.15456
560 0.885343
565 0.868084
570 0.810837
575 0.662645
580 0.500424
585 0.596537
590 0.390233
595 0.296075
600 0.0336922
Ex : 363
200 0.158164
205 0.0795892
210 0.14153
215 0.0929452
220 0.160573
225 0.0966175
230 0.129671
235 0.172515
240 0.15324
245 0.116059
250 0.0985397
255 0.130241
260 0.127321
265 0.159229
270 0.153751
275 0.148597
280 0.171129
285 0.175806
290 0.16953
295 0.156083
300 0.0944851
305 0.121183
310 0.164254
315 0.118502
320 0.175078
325 0.182076
330 0.236488
335 0.364074
340 0.531817
345 0.997813
350 29.3653
355 511.769
360 809.189
365 209.084
370 26.3432
375 5.47968
380 4.74858
385 7.89927
390 10.9136
395 13.0446
400 15.2495
405 16.2251
410 16.2927
415 16.7281
420 14.908
425 12.8325
430 11.1788
435 11.5554
440 11.3706
445 10.3315
450 9.37834
455 8.70008
460 7.81125
465 7.55965
470 6.88566
475 6.54626
480 5.79445
485 5.18165
490 4.61267
495 4.17953
500 3.7146
505 3.51798
510 3.28639
515 3.02302
520 2.66969
525 2.1833
530 1.90106
535 1.82755
540 1.83391
545 1.4932
550 1.20588
555 1.21211
560 0.876827
565 0.78552
570 0.72262
575 0.631446
580 0.466844
585 0.393981
590 0.344125
595 0.217746
600 0.722335
Ex : 368
200 0.165165
205 0.108022
210 0.107766
215 0.176749
220 0.115592
225 0.110868
230 0.0999099
235 0.107504
240 0.154141
245 0.0886798
250 0.101699
255 0.155597
260 0.0853805
265 0.100957
270 0.103571
275 0.219326
280 0.0995331
285 0.0950506
290 0.0984858
295 0.15462
300 0.11385
305 0.210043
310 0.129633
315 0.096658
320 0.142638
325 0.140344
330 0.185778
335 0.248283
340 0.304833
345 0.488976
350 0.986382
355 25.1701
360 493.669
365 826.625
370 219.945
375 27.7855
380 7.1303
385 9.54726
390 14.4926
395 15.6524
400 15.0204
405 17.3034
410 21.9885
415 22.1781
420 20.1263
425 16.5523
430 13.9017
435 13.4114
440 13.7568
445 12.6226
450 11.6745
455 10.0331
460 8.90426
465 8.36558
470 7.73321
475 7.43989
480 6.67727
485 5.65223
490 5.17599
495 5.00781
500 4.43413
505 3.98142
510 3.67299
515 3.2241
520 2.88699
525 2.49798
530 2.37263
535 1.90825
540 1.74756
545 1.55052
550 1.26242
555 1.21813
560 1.04573
565 0.971499
570 0.881328
575 0.710095
580 0.51575
585 0.377605
590 0.417511
595 0.296036
600 0.308575
Ex : 373
200 0.110681
205 0.131018
210 0.106631
215 0.100484
220 0.169253
225 0.151765
230 0.117339
235 0.121383
240 0.107023
245 0.129135
250 0.111431
255 0.0645503
260 0.141222
265 0.116671
270 0.0821871
275 0.0968651
280 0.137864
285 0.15684
290 0.105476
295 0.135329
300 0.157166
305 0.117097
310 0.128269
315 0.0899724
320 0.198998
325 0.177024
330 0.198962
335 0.225364
340 0.298539
345 0.398334
350 0.498996
355 0.912233
360 28.549
365 499.468
370 805.097
375 214.646
380 28.3812
385 10.1092
390 14.1985
395 16.7169
400 14.5984
405 14.0804
410 17.745
415 23.22
420 21.6568
425 17.5181
430 14.6522
435 13.2138
440 13.0186
445 12.9398
450 11.0825
455 9.7336
460 8.68397
465 8.05709
470 7.7619
475 7.33276
480 6.20409
485 6.04855
490 5.36334
495 5.02136
500 4.59538
505 3.93306
510 3.58552
515 3.50717
520 2.71432
525 2.58327
530 2.29506
535 2.07761
540 1.88028
545 1.62514
550 1.35409
555 1.37474
560 1.16856
565 1.01843
570 0.705887
575 0.640168
580 0.489974
585 0.41935
590 0.365838
595 0.390946
600 0.0483581
Ex : 378
200 0.114544
205 0.0745693
210 0.076275
215 0.100578
220 0.11687
225 0.113914
230 0.0960362
235 0.0799902
240 0.0983249
245 0.0865335
250 0.0786743
255 0.103203
260 0.0749305
265 0.0803286
270 0.0791255
275 0.127218
280 0.104087
285 0.0835913
290 0.111296
295 0.10317
300 0.0862045
305 0.106365
310 0.187508
315 0.160186
320 0.101863
325 0.185002
330 0.174635
335 0.149194
340 0.196482
345 0.316022
350 0.346713
355 0.484897
360 0.876871
365 26.7253
370 498.723
375 821.62
380 219.439
385 30.9871
390 12.9373
395 12.7609
400 11.7257
405 10.4791
410 12.13
415 15.023
420 16.8005
425 14.7279
430 12.104
435 10.6098
440 10.2945
445 10.0063
450 9.0069
455 8.06519
460 7.1652
465 6.87809
470 6.43916
475 6.06786
480 5.8076
485 5.42756
490 4.86668
495 4.60962
500 4.1458
505 4.00099
510 3.53683
515 3.35108
520 2.79659
525 2.40355
530 2.19228
535 2.13402
540 1.77761
545 1.48078
550 1.23084
555 1.17422
560 1.10219
565 0.933791
570 0.781439
575 0.529585
580 0.42667
585 0.338999
590 0.345004
595 0.33046
600 0.281311
Ex : 383
200 0.113969
205 0.0867286
210 0.112437
215 0.169426
220 0.137754
225 0.0981252
230 0.128734
235 0.142329
240 0.151094
245 0.102828
250 0.116357
255 0.107538
260 0.111385
265 0.0757114
270 0.145883
275 0.14441
280 0.075329
285 0.0962463
290 0.0750801
295 0.0668656
300 0.111345
305 0.164709
310 0.130869
315 0.114975
320 0.112382
325 0.151347
330 0.142457
335 0.201208
340 0.160165
345 0.264319
350 0.254238
355 0.36344
360 0.413903
365 0.810668
370 24.344
375 486.095
380 847.355
385 234.734
390 36.4999
395 13.9532
400 10.7962
405 11.0032
410 12.3378
415 13.3942
420 12.8441
425 13.4654
430 13.1746
435 11.603
440 11.0537
445 9.90065
450 8.5888
455 8.03711
460 7.16803
465 6.92712
470 6.59738
475 6.04681
480 5.81409
485 5.2888
490 4.8437
495 4.58193
500 4.26647
505 3.70513
510 3.46759
515 3.12602
520 2.82328
525 2.54317
530 2.2131
535 1.9228
540 1.71152
545 1.55733
550 1.32705
555 1.17435
560 1.20093
565 0.915992
570 0.762776
575 0.640836
580 0.58672
585 0.467933
590 0.375964
595 0.375553
600 0.749589
Ex : 388
200 0.0526459
205 0.103944
210 0.121623
215 0.102743
220 0.0787523
225 0.1037
230 0.0945053
235 0.0821362
240 0.0757375
245 0.109844
250 0.0727415
255 0.0778412
260 0.100495
265 0.126638
270 0.121197
275 0.125398
280 0.149867
285 0.0856902
290 0.150026
295 0.0958316
300 0.151465
305 0.0846964
310 0.184381
315 0.138943
320 0.0980363
325 0.080479
330 0.0877354
335 0.127432
340 0.169528
345 0.20408
350 0.216664
355 0.259786
360 0.371099
365 0.534421
370 0.897501
375 26.7702
380 497.569
385 842.32
390 234.706
395 39.5746
400 15.6446
405 13.5087
410 15.6347
415 17.1692
420 15.7545
425 13.6936
430 13.8919
435 15.2982
440 14.1906
445 12.2225
450 10.6801
455 8.94641
460 8.01123
465 7.85643
470 7.1442
475 7.20235
480 6.32848
485 5.78285
490 5.22789
495 4.96374
500 4.48109
505 4.05692
510 3.729
515 3.44864
520 2.96007
525 2.75237
530 2.36794
535 2.1785
540 2.0195
545 1.69333
550 1.459
555 1.45027
560 1.04662
565 0.914769
570 0.814971
575 0.532847
580 0.513292
585 0.497594
590 0.342538
595 0.301825
600 0.759422
Ex : 393
200 0.0937473
205 0.0877758
210 0.0693595
215 0.0746538
220 0.0610117
225 0.0663154
230 0.0657636
235 0.0992652
240 0.0717433
245 0.0893084
250 0.0907339
255 0.0500594
260 0.134652
265 0.195938
270 0.062223
275 0.0685865
280 0.0982634
285 0.0592154
290 0.0871138
295 0.112329
300 0.0858992
305 0.102798
310 0.160388
315 0.0884368
320 0.0622024
325 0.0721525
330 0.120879
335 0.131148
340 0.1809
345 0.0817775
350 0.152215
355 0.22927
360 0.26681
365 0.337119
370 0.463115
375 0.916516
380 23.8129
385 494.555
390 853.931
395 242.759
400 40.3892
405 15.4772
410 14.7216
415 17.9148
420 17.1171
425 14.3748
430 12.0112
435 12.5645
440 14.9162
445 13.3661
450 11.4174
455 9.31891
460 7.98528
465 7.30857
470 7.19977
475 6.80969
480 5.99928
485 5.68906
490 5.1439
495 4.78428
500 4.31955
505 4.02382
510 3.55945
515 3.21526
520 2.86834
525 2.50487
530 2.28106
535 2.10385
540 2.00026
545 1.72809
550 1.45986
555 1.34735
560 1.19857
565 1.01411
570 0.775947
575 0.536058
580 0.536853
585 0.50845
590 0.373611
595 0.287348
600 0.498115
Ex : 398
200 0.0729014
205 0.0588346
210 0.0881305
215 0.0625297
220 0.100442
225 0.0676384
230 0.0606123
235 0.057797
240 0.0725393
245 0.0355091
250 0.12159
255 0.0616686
260 0.0693516
265 0.0646702
270 0.0694628
275 0.142872
280 0.120389
285 0.107995
290 0.0932624
295 0.0697993
300 0.0426988
305 0.11978
310 0.0771384
315 0.0838641
320 0.090739
325 0.0928999
330 0.0923022
335 0.137022
340 0.227063
345 0.140347
350 0.179322
355 0.158037
360 0.185632
365 0.295147
370 0.327664
375 0.475335
380 1.06881
385 25.6267
390 497.944
395 858.893
400 234.408
405 33.7764
410 11.3305
415 11.0194
420 11.2272
425 9.1172
430 7.48444
435 7.17256
440 8.28669
445 10.3943
450 9.68003
455 7.617
460 6.39946
465 5.6033
470 5.28622
475 5.15853
480 4.97647
485 4.77125
490 4.3447
495 3.95771
500 3.67949
505 3.4136
510 3.11975
515 2.93505
520 2.75101
525 2.35567
530 2.25377
535 1.81601
540 1.65975
545 1.63392
550 1.42856
555 1.30267
560 1.09343
565 0.937861
570 0.873938
575 0.60787
580 0.418727
585 0.400669
590 0.349547
595 0.236921
600 0.114079
Ex : 403
200 0.104371
205 0.172726
210 0.0951657
215 0.0993332
220 0.152299
225 0.0491064
230 0.0868791
235 0.141832
240 0.138037
245 0.117183
250 0.0886912
255 0.0867939
260 0.0632565
265 0.165882
270 0.109584
275 0.0663207
280 0.0913447
285 0.104826
290 0.089374
295 0.072804
300 0.080382
305 0.160576
310 0.243675
315 0.136796
320 0.121034
325 0.0931555
330 0.133458
335 0.128374
340 0.117276
345 0.15069
350 0.137636
355 0.19591
360 0.166261
365 0.215984
370 0.201307
375 0.270054
380 0.525686
385 1.23666
390 27.8738
395 505.649
400 846.685
405 230.333
410 30.6542
415 7.84604
420 5.57232
425 4.91062
430 4.24524
435 3.80556
440 4.20534
445 4.71529
450 6.45355
455 6.93193
460 5.68493
465 4.88672
470 4.67521
475 4.36169
480 4.21914
485 3.82005
490 3.54467
495 3.6934
500 3.35866
505 2.97661
510 2.87466
515 2.79616
520 2.63203
525 2.25305
530 1.89568
535 1.78289
540 1.7826
545 1.55902
550 1.34362
555 1.14959
560 1.0724
565 0.80586
570 0.875847
575 0.665112
580 0.504655
585 0.412785
590 0.316192
595 0.280454
600 0.0558661
Ex : 408
200 0.0955894
205 0.0842971
210 0.0512235
215 0.12357
220 0.0719922
225 0.0702915
230 0.117647
235 0.056805
240 0.0820511
245 0.0827332
250 0.0748148
255 0.0770578
260 0.0721572
265 0.0631931
270 0.0675266
275 0.0907886
280 0.0899869
285 0.0960952
290 0.0578779
295 0.128821
300 0.0842383
305 0.106706
310 0.0963666
315 0.0844301
320 0.0712226
325 0.132791
330 0.0705942
335 0.119288
340 0.117488
345 0.0979766
350 0.179857
355 0.137069
360 0.158443
365 0.130772
370 0.229915
375 0.181792
380 0.414998
385 0.533049
390 1.1232
395 25.6052
400 506.184
405 846.398
410 224.203
415 29.4795
420 6.7873
425 4.16042
430 3.82964
435 3.62685
440 3.63533
445 3.65596
450 3.79112
455 5.4876
460 6.719
465 5.40644
470 4.87723
475 4.56099
480 4.12941
485 3.73198
490 3.51093
495 3.48889
500 3.25401
505 3.17108
510 2.95597
515 2.72316
520 2.33883
525 2.19736
530 2.02716
535 2.03191
540 1.65353
545 1.37013
550 1.27407
555 1.20241
560 1.02448
565 0.961371
570 0.734733
575 0.61247
580 0.456229
585 0.370271
590 0.311887
595 0.234113
600 0.0266412
Ex : 413
200 0.050489
205 0.0624056
210 0.0546406
215 0.0834833
220 0.089798
225 0.092608
230 0.087964
235 0.0646795
240 0.0965577
245 0.0898327
250 0.111747
255 0.09789
260 0.0818624
265 0.0831541
270 0.0829465
275 0.0848105
280 0.0855485
285 0.0899766
290 0.130318
295 0.103102
300 0.135434
305 0.0942897
310 0.0499034
315 0.0700587
320 0.0717557
325 0.0903278
330 0.0859427
335 0.0983365
340 0.101704
345 0.155943
350 0.0982456
355 0.129554
360 0.169064
365 0.148851
370 0.173244
375 0.224147
380 0.260833
385 0.378304
390 0.570802
395 1.00882
400 28.7393
405 523.558
410 848.741
415 218.248
420 28.4221
425 6.14638
430 3.33835
435 3.36314
440 3.61016
445 3.46067
450 3.34201
455 3.17653
460 4.36464
465 6.17621
470 5.45297
475 4.74096
480 4.38743
485 3.73122
490 3.39423
495 3.32891
500 3.00959
505 2.82378
510 2.56783
515 2.67078
520 2.36079
525 2.11317
530 1.85535
535 1.76734
540 1.60307
545 1.40436
550 1.35591
555 1.23361
560 1.0189
565 0.993217
570 0.779304
575 0.565276
580 0.469489
585 0.331371
590 0.295678
595 0.292135
600 0.0332438
Ex : 418
200 0.103077
205 0.0694279
210 0.0900704
215 0.0622175
220 0.057285
225 0.105501
230 0.107009
235 0.0696209
240 0.111633
245 0.115251
250 0.0777422
255 0.126067
260 0.110559
265 0.0432537
270 0.0915525
275 0.0682478
280 0.0686119
285 0.101218
290 0.0552157
295 0.104088
300 0.0764353
305 0.062898
310 0.0672843
315 0.0650777
320 0.101156
325 0.126017
330 0.136673
335 0.0933741
340 0.109755
345 0.0911344
350 0.10836
355 0.0943242
360 0.149566
365 0.148531
370 0.202137
375 0.168614
380 0.195204
385 0.259593
390 0.403988
395 0.438174
400 0.927878
405 26.9186
410 505.532
415 838.794
420 223.304
425 28.0922
430 5.4525
435 2.71936
440 2.74878
445 2.78562
450 2.53359
455 2.33287
460 2.32799
465 3.09585
470 4.91055
475 5.14941
480 4.08528
485 3.65653
490 3.08439
495 2.93316
500 2.68945
505 2.49044
510 2.41563
515 2.19811
520 2.24371
525 2.13994
530 1.65995
535 1.60221
540 1.60323
545 1.34834
550 1.24995
555 1.12538
560 0.977671
565 0.787179
570 0.72769
575 0.625395
580 0.600774
585 0.400217
590 0.258708
595 0.278528
600 0.473325
Ex : 423
200 0.0517698
205 0.0822989
210 0.0712741
215 0.0862399
220 0.0657515
225 0.0725593
230 0.0815573
235 0.092914
240 0.0769501
245 0.121187
250 0.0741836
255 0.084279
260 0.0997413
265 0.155692
270 0.110114
275 0.0805668
280 0.124309
285 0.084484
290 0.0823896
295 0.0772678
300 0.103326
305 0.0578652
310 0.110471
315 0.119591
320 0.0948495
325 0.0995934
330 0.098343
335 0.160321
340 0.092327
345 0.102902
350 0.125779
355 0.143188
360 0.11317
365 0.166967
370 0.229328
375 0.173611
380 0.229946
385 0.225925
390 0.321785
395 0.370991
400 0.465151
405 1.03541
410 27.431
415 529.057
420 835.705
425 212.185
430 26.3955
435 4.76969
440 2.02911
445 2.05538
450 1.94235
455 1.77615
460 1.7003
465 1.9695
470 2.32825
475 3.87872
480 4.67933
485 3.68808
490 3.31464
495 2.77676
500 2.32699
505 2.27297
510 2.18355
515 2.20403
520 1.90588
525 1.66178
530 1.60511
535 1.55438
540 1.37151
545 1.27161
550 1.14124
555 1.07821
560 0.846868
565 0.781705
570 0.712863
575 0.56734
580 0.475913
585 0.326061
590 0.284655
595 0.253839
600 0.418234
Ex : 428
200 0.137997
205 0.0995826
210 0.0876156
215 0.0628088
220 0.0939076
225 0.0603342
230 0.0916021
235 0.117552
240 0.0892945
245 0.106808
250 0.0608828
255 0.0457514
260 0.0530939
265 0.0713246
270 0.10085
275 0.0706039
280 0.0785576
285 0.0629229
290 0.0864796
295 0.136107
300 0.0564054
305 0.089797
310 0.102786
315 0.0998482
320 0.0676202
325 0.0639674
330 0.1047
335 0.10686
340 0.0663293
345 0.0539383
350 0.0958315
355 0.121063
360 0.0953884
365 0.0983838
370 0.147934
375 0.147229
380 0.167298
385 0.178118
390 0.197581
395 0.251659
400 0.327157
405 0.554405
410 0.882661
415 29.3396
420 521.229
425 833.975
430 216.988
435 26.5353
440 4.52848
445 1.71164
450 1.68008
455 1.80553
460 1.59459
465 1.52042
470 1.65583
475 1.80993
480 3.09604
485 4.63291
490 3.51465
495 2.88462
500 2.70004
505 2.20694
510 2.02135
515 1.91024
520 1.71721
525 1.57897
530 1.68161
535 1.33348
540 1.33594
545 1.24494
550 1.11805
555 1.01329
560 0.913599
565 0.792383
570 0.708404
575 0.561305
580 0.42509
585 0.372436
590 0.283187
595 0.213525
600 0.0242984
Ex : 433
200 0.0713095
205 0.107385
210 0.0553678
215 0.0734252
220 0.0749712
225 0.0974303
230 0.125434
235 0.110349
240 0.111836
245 0.095004
250 0.0580419
255 0.114628
260 0.112578
265 0.144506
270 0.116804
275 0.085534
280 0.0825937
285 0.0840303
290 0.0714305
295 0.095028
300 0.0532903
305 0.0878765
310 0.0596034
315 0.0715495
320 0.0759601
325 0.0641034
330 0.0788285
335 0.139366
340 0.138233
345 0.106721
350 0.108686
355 0.0765105
360 0.112563
365 0.107251
370 0.111604
375 0.110322
380 0.113437
385 0.211906
390 0.178125
395 0.285307
400 0.294124
405 0.32899
410 0.503846
415 0.964068
420 30.7339
425 545.102
430 837.182
435 209.659
440 25.712
445 4.24292
450 1.67223
455 1.56483
460 1.75729
465 1.55849
470 1.54453
475 1.54169
480 1.7616
485 2.45021
490 4.08415
495 3.72383
500 2.72922
505 2.49441
510 2.11003
515 1.90309
520 1.64682
525 1.63255
530 1.55406
535 1.40341
540 1.3506
545 1.19336
550 1.14984
555 0.965373
560 0.819676
565 0.760901
570 0.737759
575 0.515144
580 0.384286
585 0.345415
590 0.318992
595 0.262896
600 0.317933
Ex : 438
200 0.0614507
205 0.0646362
210 0.0563333
215 0.0656231
220 0.106131
225 0.0492676
230 0.105174
235 0.0979334
240 0.0877378
245 0.0683843
250 0.075587
255 0.113911
260 0.08544
265 0.100668
270 0.0610592
275 0.0747754
280 0.0943778
285 0.108233
290 0.0929769
295 0.0722602
300 0.055489
305 0.0712435
310 0.0889341
315 0.0862637
320 0.0897096
325 0.0900059
330 0.0958937
335 0.104997
340 0.111642
345 0.0765258
350 0.0751079
355 0.0764282
360 0.0890688
365 0.124352
370 0.0928444
375 0.0894443
380 0.112957
385 0.18525
390 0.1509
395 0.222374
400 0.14987
405 0.200866
410 0.40054
415 0.605009
420 0.94455
425 30.602
430 543.695
435 879.117
440 220.551
445 27.1335
450 4.46886
455 1.75972
460 1.80725
465 1.74398
470 1.65577
475 1.4609
480 1.5456
485 1.70711
490 1.98435
495 3.58182
500 3.92498
505 2.70495
510 2.30819
515 1.99562
520 1.63527
525 1.57387
530 1.44765
535 1.40067
540 1.38569
545 1.16313
550 1.12243
555 0.928132
560 0.883004
565 0.749614
570 0.555636
575 0.480465
580 0.504101
585 0.407032
590 0.255339
595 0.261964
600 0.200574
Ex : 443
200 0.0835
205 0.0660469
210 0.102791
215 0.0605819
220 0.0597836
225 0.0780045
230 0.0808825
235 0.0701266
240 0.0765559
245 0.081528
250 0.0650716
255 0.0792305
260 0.102568
265 0.114246
270 0.061347
275 0.0977545
280 0.124528
285 0.14789
290 0.152695
295 0.0772866
300 0.0597352
305 0.0639285
310 0.109447
315 0.0859238
320 0.0777713
325 0.112954
330 0.0822897
335 0.102401
340 0.085831
345 0.118045
350 0.126646
355 0.120867
360 0.141195
365 0.11811
370 0.134606
375 0.118827
380 0.0964225
385 0.119991
390 0.218245
395 0.175919
400 0.20788
405 0.272375
410 0.291799
415 0.407325
420 0.56833
425 0.934966
430 33.8172
435 575.951
440 886.673
445 219.91
450 26.9553
455 4.53338
460 1.75417
465 1.65435
470 1.6952
475 1.63055
480 1.46012
485 1.37951
490 1.45252
495 1.79638
500 3.00568
505 3.86052
510 2.89232
515 2.15571
520 1.9428
525 1.51464
530 1.50303
535 1.27484
540 1.17917
545 1.05223
550 1.00709
555 0.946877
560 0.778041
565 0.673197
570 0.646905
575 0.577671
580 0.414837
585 0.324292
590 0.400863
595 0.315698
600 0.128425
Ex : 448
200 0.0826709
205 0.163117
210 0.0752512
215 0.0918944
220 0.109415
225 0.149827
230 0.129926
235 0.0853344
240 0.10706
245 0.115475
250 0.0891658
255 0.078409
260 0.0807002
265 0.0821331
270 0.0567795
275 0.062779
280 0.0531797
285 0.093458
290 0.0683597
295 0.0824188
300 0.101629
305 0.0782501
310 0.0992958
315 0.0699097
320 0.106873
325 0.0664889
330 0.0694746
335 0.0821123
340 0.131564
345 0.143039
350 0.183392
355 0.129455
360 0.102646
365 0.0978069
370 0.109201
375 0.0795104
380 0.121147
385 0.155006
390 0.128752
395 0.143233
400 0.193384
405 0.164917
410 0.190125
415 0.320686
420 0.343825
425 0.528284
430 0.901859
435 35.0883
440 616.875
445 928.131
450 231.709
455 28.3224
460 4.67889
465 1.77923
470 1.59814
475 1.7655
480 1.75107
485 1.44045
490 1.46342
495 1.42031
500 1.55339
505 2.28804
510 3.57122
515 3.02943
520 2.14728
525 1.82853
530 1.66231
535 1.30852
540 1.05993
545 1.15572
550 0.966216
555 0.925626
560 0.750792
565 0.754451
570 0.543325
575 0.54147
580 0.416679
585 0.379565
590 0.268846
595 0.279255
600 0.470434
Ex : 453
200 0.0789533
205 0.0387707
210 0.11883
215 0.0847931
220 0.0472802
225 0.0760956
230 0.107671
235 0.122091
240 0.0822635
245 0.113252
250 0.145501
255 0.0676962
260 0.0736306
265 0.0668047
270 0.0698806
275 0.0964374
280 0.0613298
285 0.0460546
290 0.0949907
295 0.108685
300 0.134612
305 0.0882049
310 0.0635656
315 0.0831862
320 0.150715
325 0.0788596
330 0.0893097
335 0.0751007
340 0.110345
345 0.118762
350 0.0747501
355 0.0845224
360 0.083708
365 0.12145
370 0.167239
375 0.110266
380 0.105008
385 0.0975136
390 0.153762
395 0.176692
400 0.167538
405 0.160195
410 0.173436
415 0.232631
420 0.214229
425 0.352776
430 0.462731
435 1.03796
440 36.0088
445 654.765
450 964.397
455 225.824
460 27.7483
465 4.79171
470 1.82629
475 1.4821
480 1.64872
485 1.58104
490 1.27182
495 1.17579
500 1.25646
505 1.28372
510 1.72851
515 3.19551
520 3.02252
525 2.13448
530 1.80628
535 1.71718
540 1.17156
545 1.07548
550 0.906588
555 0.870031
560 0.706022
565 0.643589
570 0.609596
575 0.516809
580 0.375403
585 0.341398
590 0.324394
595 0.282762
600 0.272598
Ex : 458
200 0.0846327
205 0.0762931
210 0.0909191
215 0.0736465
220 0.0698724
225 0.109927
230 0.0953058
235 0.12422
240 0.0876802
245 0.070038
250 0.0535753
255 0.0896877
260 0.10082
265 0.0718471
270 0.114947
275 0.0501069
280 0.134405
285 0.0848584
290 0.0897169
295 0.0661416
300 0.0592804
305 0.0883708
310 0.0969472
315 0.0697795
320 0.109057
325 0.136204
330 0.0921936
335 0.1039
340 0.0967905
345 0.137794
350 0.102953
355 0.083587
360 0.10416
365 0.117383
370 0.125032
375 0.0977769
380 0.126201
385 0.0832061
390 0.154877
395 0.142056
400 0.139595
405 0.185636
410 0.213566
415 0.187408
420 0.206157
425 0.208335
430 0.335423
435 0.514625
440 0.852611
445 40.2936
450 670.092
455 1009.97
460 245.722
465 30.1261
470 4.96947
475 1.70017
480 1.53134
485 1.61657
490 1.62762
495 1.38796
500 1.1757
505 1.13589
510 1.26699
515 1.42648
520 2.47254
525 3.09824
530 2.39809
535 1.68986
540 1.58526
545 1.30949
550 1.02026
555 0.92059
560 0.830922
565 0.688899
570 0.654999
575 0.544774
580 0.420746
585 0.398487
590 0.34121
595 0.262341
600 0.0298534
Ex : 463
200 0.033773
205 0.0696508
210 0.0710269
215 0.0536041
220 0.0553407
225 0.0753431
230 0.082315
235 0.0929774
240 0.0618415
245 0.093717
250 0.103181
255 0.0815532
260 0.0647943
265 0.114398
270 0.0532912
275 0.0595208
280 0.0639956
285 0.0495355
290 0.070758
295 0.100261
300 0.145967
305 0.0740989
310 0.0658978
315 0.0889852
320 0.0679362
325 0.158177
330 0.0995784
335 0.0977795
340 0.107888
345 0.10049
350 0.0701624
355 0.0963575
360 0.0806761
365 0.125804
370 0.103929
375 0.0864962
380 0.0877374
385 0.101606
390 0.126921
395 0.138323
400 0.116142
405 0.184922
410 0.158059
415 0.178812
420 0.179995
425 0.213499
430 0.277059
435 0.317711
440 0.640855
445 1.03064
450 39.6967
455 708.992
460 1088.42
465 262.652
470 32.1052
475 5.19708
480 1.83173
485 1.33162
490 1.49128
495 1.51671
500 1.28427
505 1.06113
510 1.00689
515 1.10908
520 1.15691
525 2.02464
530 2.88816
535 2.27935
540 1.71192
545 1.52692
550 1.41291
555 1.1039
560 0.847986
565 0.680989
570 0.730448
575 0.549991
580 0.415461
585 0.322249
590 0.321376
595 0.360137
600 0.0817585
Ex : 468
200 0.0603734
205 0.108029
210 0.0968627
215 0.0900131
220 0.0692886
225 0.11242
230 0.104659
235 0.0808653
240 0.0725107
245 0.0523493
250 0.084736
255 0.0803001
260 0.0651709
265 0.0677401
270 0.0978054
275 0.0503877
280 0.0717648
285 0.129084
290 0.0955547
295 0.118025
300 0.0618632
305 0.110777
310 0.088046
315 0.0968884
320 0.0805363
325 0.0876655
330 0.0801106
335 0.0804931
340 0.102788
345 0.0758522
350 0.0822158
355 0.17291
360 0.0897612
365 0.0880008
370 0.115228
375 0.109399
380 0.111155
385 0.0954637
390 0.119045
395 0.10755
400 0.138632
405 0.117141
410 0.135401
415 0.155421
420 0.212699
425 0.149064
430 0.204993
435 0.276703
440 0.3313
445 0.571104
450 0.970565
455 44.3725
460 717.852
465 1134.64
470 274.1
475 33.1623
480 5.23706
485 1.75074
490 1.349
495 1.43281
500 1.34363
505 1.30458
510 1.0588
515 1.09393
520 1.09583
525 1.34174
530 1.43735
535 2.49454
540 2.56772
545 1.79932
550 1.36457
555 1.22479
560 1.01951
565 0.905209
570 0.731913
575 0.630065
580 0.411734
585 0.433576
590 0.305386
595 0.283657
600 0.681193
Ex : 473
200 0.0967386
205 0.0518866
210 0.106717
215 0.0740364
220 0.0524127
225 0.0832396
230 0.061675
235 0.0752966
240 0.090959
245 0.0834518
250 0.0764706
255 0.0411518
260 0.0685335
265 0.0862529
270 0.0857335
275 0.0909285
280 0.0818194
285 0.0760846
290 0.124015
295 0.0791392
300 0.0754526
305 0.0728253
310 0.0551603
315 0.0748856
320 0.0838977
325 0.103487
330 0.132668
335 0.0918723
340 0.0643906
345 0.0764769
350 0.0762383
355 0.0928237
360 0.136525
365 0.114194
370 0.0905176
375 0.114817
380 0.130805
385 0.103193
390 0.152177
395 0.126635
400 0.103456
405 0.147842
410 0.145951
415 0.175576
420 0.218941
425 0.144682
430 0.147179
435 0.1992
440 0.267681
445 0.339435
450 0.535996
455 1.01034
460 51.0169
465 790.154
470 1110.74
475 257.012
480 31.214
485 5.14262
490 1.80426
495 1.33968
500 1.34279
505 1.41216
510 1.37471
515 1.07943
520 1.00621
525 1.08208
530 1.05944
535 1.38959
540 2.00717
545 2.77658
550 1.78848
555 1.3163
560 1.16621
565 1.00528
570 0.759506
575 0.600588
580 0.533492
585 0.432873
590 0.340966
595 0.355774
600 0.346073
Ex : 478
200 0.0509693
205 0.129524
210 0.0612596
215 0.106208
220 0.114571
225 0.0681929
230 0.0586653
235 0.0802699
240 0.0783807
245 0.081948
250 0.0855789
255 0.110386
260 0.104202
265 0.12686
270 0.167471
275 0.114575
280 0.0700363
285 0.100618
290 0.134886
295 0.10978
300 0.0828652
305 0.0954298
310 0.0897179
315 0.0834151
320 0.0807626
325 0.0802064
330 0.178678
335 0.152297
340 0.0671918
345 0.0850815
350 0.102509
355 0.139756
360 0.095591
365 0.120487
370 0.147093
375 0.156125
380 0.12173
385 0.169587
390 0.112093
395 0.102671
400 0.130512
405 0.159902
410 0.125876
415 0.151472
420 0.166714
425 0.181657
430 0.16278
435 0.264704
440 0.249209
445 0.420275
450 0.333797
455 0.680645
460 1.30732
465 55.7838
470 821.534
475 1164.67
480 281.396
485 34.1417
490 5.28659
495 1.74346
500 1.3327
505 1.23682
510 1.4847
515 1.15505
520 1.13743
525 0.978794
530 0.920793
535 1.109
540 1.13145
545 1.65666
550 2.29906
555 1.92037
560 1.26774
565 1.00143
570 1.00202
575 0.800594
580 0.497701
585 0.396307
590 0.297237
595 0.306055
600 0.294205
Ex : 483
200 0.107296
205 0.103891
210 0.153559
215 0.125356
220 0.0856893
225 0.094345
230 0.106338
235 0.124807
240 0.0629235
245 0.0831502
250 0.0691394
255 0.109428
260 0.0915765
265 0.0886611
270 0.0620199
275 0.0612096
280 0.107313
285 0.113841
290 0.0985993
295 0.067101
300 0.0649628
305 0.0668529
310 0.0990098
315 0.102335
320 0.0924306
325 0.162218
330 0.118422
335 0.0783561
340 0.145119
345 0.111067
350 0.0824919
355 0.0860631
360 0.136932
365 0.163431
370 0.149778
375 0.152464
380 0.127144
385 0.124126
390 0.109036
395 0.124834
400 0.120471
405 0.106148
410 0.136208
415 0.140593
420 0.149753
425 0.184943
430 0.236815
435 0.188345
440 0.2247
445 0.285234
450 0.288588
455 0.449934
460 0.758911
465 1.33054
470 44.8962
475 809.093
480 1245.1
485 298.934
490 36.0482
495 5.54782
500 1.6528
505 1.17746
510 1.1947
515 1.39915
520 1.28855
525 1.10897
530 1.07133
535 0.969927
540 0.914265
545 1.05031
550 1.21839
555 2.07363
560 2.18017
565 1.31365
570 0.935943
575 0.803246
580 0.639667
585 0.467846
590 0.361458
595 0.354587
600 0.460454
Ex : 488
200 0.0660206
205 0.085729
210 0.0835176
215 0.115571
220 0.100562
225 0.111914
230 0.0993667
235 0.0859913
240 0.11066
245 0.0867434
250 0.0645174
255 0.0839737
260 0.100072
265 0.0811243
270 0.161452
275 0.152601
280 0.0760735
285 0.0740078
290 0.157454
295 0.111634
300 0.081305
305 0.0906225
310 0.0702898
315 0.124765
320 0.177703
325 0.104967
330 0.129686
335 0.15075
340 0.118091
345 0.137494
350 0.107975
355 0.117237
360 0.144794
365 0.0952781
370 0.111031
375 0.115705
380 0.169392
385 0.180083
390 0.160471
395 0.183337
400 0.147767
405 0.182703
410 0.165174
415 0.238473
420 0.149675
425 0.189966
430 0.129327
435 0.232491
440 0.202898
445 0.228183
450 0.229631
455 0.282229
460 0.500799
465 0.98712
470 1.31185
475 54.6237
480 890.559
485 1260.89
490 295.31
495 35.5214
500 5.42875
505 1.72428
510 1.10003
515 1.13705
520 1.42884
525 1.28185
530 1.19077
535 1.02032
540 0.914586
545 0.944949
550 0.777004
555 0.896633
560 1.38694
565 1.93613
570 1.46672
575 0.853873
580 0.613034
585 0.455539
590 0.352
595 0.282231
600 0.411187
Ex : 493
200 0.16073
205 0.174523
210 0.11435
215 0.133358
220 0.1439
225 0.0980609
230 0.110754
235 0.141216
240 0.103844
245 0.0824219
250 0.0982974
255 0.0725627
260 0.134615
265 0.0814352
270 0.140733
275 0.0526061
280 0.0820502
285 0.134473
290 0.0715681
295 0.100745
300 0.111435
305 0.127004
310 0.0845181
315 0.0940909
320 0.11974
325 0.102877
330 0.138144
335 0.106414
340 0.105729
345 0.115022
350 0.0949161
355 0.109959
360 0.146779
365 0.0963943
370 0.179128
375 0.137521
380 0.151373
385 0.146674
390 0.125337
395 0.163882
400 0.107181
405 0.107124
410 0.114252
415 0.17932
420 0.18464
425 0.231844
430 0.225579
435 0.218993
440 0.173076
445 0.205135
450 0.199768
455 0.219371
460 0.371247
465 0.470745
470 0.787276
475 1.33031
480 50.0888
485 881.763
490 1318.71
495 303.851
500 36.4655
505 5.55646
510 1.73059
515 1.17486
520 1.09643
525 1.31442
530 1.18528
535 1.11253
540 1.05362
545 0.8595
550 0.846507
555 0.925263
560 0.772032
565 1.14485
570 1.56533
575 1.24827
580 0.730407
585 0.607213
590 0.479327
595 0.389763
600 0.630663
Ex : 498
200 0.0795896
205 0.1378
210 0.130655
215 0.152718
220 0.160958
225 0.13301
230 0.122293
235 0.079736
240 0.103995
245 0.112826
250 0.0955919
255 0.0779304
260 0.0964243
265 0.15195
270 0.09856
275 0.132391
280 0.0934756
285 0.0959707
290 0.0905839
295 0.109837
300 0.123263
305 0.13052
310 0.115383
315 0.0940192
320 0.12073
325 0.160683
330 0.155584
335 0.187326
340 0.117403
345 0.11416
350 0.147605
355 0.132669
360 0.118424
365 0.0908743
370 0.159696
375 0.16765
380 0.129809
385 0.176582
390 0.128809
395 0.148861
400 0.194181
405 0.166674
410 0.11328
415 0.174237
420 0.10885
425 0.171615
430 0.136323
435 0.167436
440 0.168727
445 0.249211
450 0.173204
455 0.229635
460 0.388921
465 0.417667
470 0.653743
475 0.919769
480 1.55076
485 63.1858
490 960.122
495 1327.23
500 306.208
505 36.832
510 5.61294
515 1.80834
520 1.30246
525 1.04396
530 1.34074
535 1.22057
540 1.2217
545 0.981601
550 0.865524
555 0.847518
560 0.631022
565 0.764213
570 0.802511
575 1.13533
580 1.16285
585 0.86881
590 0.567352
595 0.508869
600 0.328589
Ex : 503
200 0.118809
205 0.128548
210 0.1855
215 0.19788
220 0.109078
225 0.0816664
230 0.100895
235 0.118191
240 0.112583
245 0.0609001
250 0.101904
255 0.119178
260 0.144792
265 0.129643
270 0.109757
275 0.137014
280 0.104662
285 0.110429
290 0.0754722
295 0.107724
300 0.084248
305 0.128837
310 0.135204
315 0.224753
320 0.167791
325 0.105166
330 0.198741
335 0.217024
340 0.183323
345 0.157411
350 0.171214
355 0.128035
360 0.132311
365 0.0875564
370 0.106895
375 0.20588
380 0.167641
385 0.219033
390 0.225485
395 0.152098
400 0.120081
405 0.163574
410 0.125605
415 0.153131
420 0.141487
425 0.169335
430 0.145626
435 0.231108
440 0.238429
445 0.21472
450 0.254583
455 0.246286
460 0.306079
465 0.322692
470 0.414855
475 0.558212
480 0.799548
485 1.38165
490 56.7
495 943.866
500 1349.54
505 313.507
510 37.6934
515 5.68526
520 1.97406
525 1.2491
530 1.14227
535 1.20389
540 1.14627
545 0.990993
550 0.791209
555 0.812439
560 0.783867
565 0.645626
570 0.715242
575 0.597974
580 0.796114
585 1.08311
590 0.864885
595 0.594744
600 0.512733
Ex : 508
200 0.101776
205 0.17278
210 0.170068
215 0.0918235
220 0.0770716
225 0.114175
230 0.193294
235 0.105633
240 0.0935386
245 0.0898754
250 0.10431
255 0.1005
260 0.149866
265 0.111271
270 0.130286
275 0.115024
280 0.115022
285 0.150689
290 0.198503
295 0.177558
300 0.119796
305 0.161349
310 0.196222
315 0.1066
320 0.155136
325 0.200378
330 0.135291
335 0.105674
340 0.109998
345 0.183255
350 0.124239
355 0.128273
360 0.144058
365 0.102729
370 0.161427
375 0.111578
380 0.125496
385 0.0747922
390 0.186393
395 0.164006
400 0.173313
405 0.129567
410 0.214058
415 0.130715
420 0.178325
425 0.198201
430 0.175616
435 0.17387
440 0.19258
445 0.169259
450 0.204341
455 0.236684
460 0.203845
465 0.333154
470 0.397628
475 0.552803
480 0.583873
485 0.821023
490 1.40233
495 60.6437
500 969.279
505 1377.58
510 333.97
515 40.1324
520 5.97971
525 1.87508
530 1.1785
535 0.996772
540 1.13514
545 1.026
550 0.908157
555 0.872694
560 0.620646
565 0.641203
570 0.599132
575 0.619297
580 0.581779
585 0.722046
590 0.793947
595 0.66655
600 0.353797
Ex : 513
200 0.115963
205 0.120648
210 0.107045
215 0.119256
220 0.123713
225 0.10015
230 0.114611
235 0.116666
240 0.0591996
245 0.0999373
250 0.0716801
255 0.0958231
260 0.0993557
265 0.149202
270 0.0967908
275 0.112569
280 0.131646
285 0.114176
290 0.109706
295 0.139127
300 0.114244
305 0.119218
310 0.147642
315 0.114271
320 0.0900431
325 0.129331
330 0.169962
335 0.118062
340 0.155037
345 0.189946
350 0.154804
355 0.137532
360 0.117399
365 0.144711
370 0.123672
375 0.120035
380 0.260759
385 0.15445
390 0.178749
395 0.136618
400 0.193643
405 0.195668
410 0.204366
415 0.247536
420 0.188081
425 0.183993
430 0.187595
435 0.131585
440 0.241392
445 0.181475
450 0.157182
455 0.156016
460 0.256796
465 0.306756
470 0.293487
475 0.335488
480 0.411284
485 0.598209
490 0.913425
495 1.41603
500 57.523
505 956.353
510 1393.46
515 342.715
520 41.1811
525 6.00543
530 2.05154
535 1.13934
540 0.870182
545 0.968286
550 0.903316
555 0.945319
560 0.753427
565 0.678199
570 0.638316
575 0.478686
580 0.425684
585 0.467443
590 0.424002
595 0.685819
600 1.07242
Ex : 518
200 0.171147
205 0.116763
210 0.106148
215 0.127334
220 0.110772
225 0.126505
230 0.151562
235 0.15052
240 0.155244
245 0.140827
250 0.115004
255 0.19533
260 0.13317
265 0.146655
270 0.114452
275 0.164088
280 0.191376
285 0.146659
290 0.163962
295 0.136503
300 0.132998
305 0.0986887
310 0.182211
315 0.104461
320 0.114145
325 0.103785
330 0.158121
335 0.141332
340 0.0850623
345 0.17359
350 0.161448
355 0.168093
360 0.180815
365 0.235255
370 0.111443
375 0.159004
380 0.112659
385 0.191622
390 0.172374
395 0.197367
400 0.118478
405 0.131916
410 0.203274
415 0.213339
420 0.15047
425 0.178455
430 0.194927
435 0.190798
440 0.202142
445 0.29257
450 0.184839
455 0.186968
460 0.22988
465 0.294382
470 0.243366
475 0.237322
480 0.338142
485 0.410404
490 0.531796
495 0.788601
500 1.47822
505 58.82
510 942.015
515 1415.98
520 347.838
525 41.8255
530 6.03574
535 1.63628
540 1.07425
545 0.896106
550 0.954872
555 1.02302
560 0.86306
565 0.760108
570 0.666621
575 0.572831
580 0.423174
585 0.346454
590 0.358205
595 0.403036
600 0.768593
Ex : 523
200 0.12015
205 0.101183
210 0.0836508
215 0.154208
220 0.162754
225 0.132517
230 0.159417
235 0.164161
240 0.132361
245 0.120936
250 0.108807
255 0.0992748
260 0.138542
265 0.10447
270 0.0990989
275 0.134867
280 0.105194
285 0.0948946
290 0.149101
295 0.213364
300 0.130519
305 0.196505
310 0.10779
315 0.0746512
320 0.138127
325 0.113244
330 0.151961
335 0.146361
340 0.159673
345 0.114664
350 0.134397
355 0.183945
360 0.127076
365 0.131022
370 0.194418
375 0.140186
380 0.162829
385 0.132973
390 0.14995
395 0.175367
400 0.134043
405 0.185754
410 0.144534
415 0.141792
420 0.187059
425 0.167513
430 0.160521
435 0.215201
440 0.254929
445 0.174167
450 0.208494
455 0.265342
460 0.284834
465 0.261124
470 0.256445
475 0.194793
480 0.266491
485 0.354705
490 0.40358
495 0.547751
500 0.779855
505 1.41495
510 53.1745
515 910.753
520 1401.93
525 359.257
530 42.865
535 6.17329
540 1.79117
545 1.0447
550 0.911541
555 0.597306
560 0.873544
565 0.695234
570 0.675897
575 0.564688
580 0.416139
585 0.41907
590 0.391863
595 0.4407
600 0.36188
Ex : 528
200 0.137621
205 0.141984
210 0.105279
215 0.09636
220 0.101772
225 0.152302
230 0.123502
235 0.114254
240 0.133463
245 0.119127
250 0.116681
255 0.160618
260 0.114398
265 0.103212
270 0.110611
275 0.117134
280 0.167277
285 0.111037
290 0.156368
295 0.227431
300 0.200125
305 0.151122
310 0.205913
315 0.144036
320 0.149392
325 0.153706
330 0.133569
335 0.154068
340 0.158574
345 0.245538
350 0.166262
355 0.117954
360 0.0763901
365 0.18169
370 0.177167
375 0.133462
380 0.170706
385 0.117724
390 0.137896
395 0.175456
400 0.16105
405 0.245779
410 0.182592
415 0.1363
420 0.307126
425 0.260928
430 0.211571
435 0.212036
440 0.146655
445 0.222579
450 0.217014
455 0.160097
460 0.188129
465 0.255455
470 0.264444
475 0.274604
480 0.270684
485 0.222535
490 0.320074
495 0.47063
500 0.562622
505 0.931212
510 1.56282
515 50.0176
520 903.241
525 1396.08
530 352.298
535 42.2246
540 6.13962
545 1.52628
550 0.943141
555 0.75445
560 0.640262
565 0.856863
570 0.766772
575 0.54646
580 0.512319
585 0.402138
590 0.261363
595 0.240046
600 0.594127
Ex : 533
200 0.171891
205 0.165192
210 0.185135
215 0.151346
220 0.12367
225 0.200654
230 0.151943
235 0.116364
240 0.0912484
245 0.209355
250 0.0991786
255 0.113129
260 0.156404
265 0.176276
270 0.221824
275 0.188993
280 0.145249
285 0.150173
290 0.171091
295 0.123643
300 0.12248
305 0.094766
310 0.122312
315 0.137105
320 0.175711
325 0.23045
330 0.151972
335 0.101615
340 0.156286
345 0.0998448
350 0.11659
355 0.179417
360 0.147668
365 0.141199
370 0.12038
375 0.208261
380 0.224581
385 0.115489
390 0.18333
395 0.077106
400 0.164371
405 0.19061
410 0.206057
415 0.145768
420 0.204795
425 0.20887
430 0.19868
435 0.261784
440 0.211564
445 0.217166
450 0.23647
455 0.208709
460 0.177911
465 0.243198
470 0.194837
475 0.203514
480 0.213347
485 0.24463
490 0.268064
495 0.305425
500 0.320365
505 0.490276
510 0.795664
515 1.39382
520 50.6818
525 870.318
530 1383.53
535 359.769
540 43.1614
545 5.94086
550 1.58709
555 0.803047
560 0.730529
565 0.562888
570 0.645584
575 0.568521
580 0.550334
585 0.438821
590 0.409073
595 0.393026
600 0.10536
Ex : 538
200 0.0588765
205 0.161648
210 0.132528
215 0.147931
220 0.168261
225 0.183579
230 0.0901361
235 0.123436
240 0.0766361
245 0.125016
250 0.163881
255 0.144381
260 0.152609
265 0.121937
270 0.0993433
275 0.102635
280 0.161277
285 0.119797
290 0.16626
295 0.172707
300 0.132594
305 0.118184
310 0.139409
315 0.0996507
320 0.148219
325 0.133026
330 0.176866
335 0.151148
340 0.161428
345 0.167948
350 0.150951
355 0.130359
360 0.153005
365 0.109454
370 0.106627
375 0.22645
380 0.186835
385 0.233504
390 0.197717
395 0.154228
400 0.177021
405 0.0984707
410 0.202777
415 0.208176
420 0.159043
425 0.176995
430 0.17447
435 0.247883
440 0.212109
445 0.145125
450 0.13509
455 0.148034
460 0.180779
465 0.201946
470 0.258183
475 0.212975
480 0.184758
485 0.319806
490 0.275518
495 0.260394
500 0.319576
505 0.401132
510 0.484553
515 0.720082
520 1.48665
525 43.1383
530 838.123
535 1386.49
540 375.362
545 44.8755
550 6.11097
555 1.56921
560 0.832805
565 0.564594
570 0.481571
575 0.513806
580 0.688947
585 0.441485
590 0.340796
595 0.383454
600 0.605851
Ex : 543
200 0.140518
205 0.112515
210 0.0954676
215 0.103863
220 0.107218
225 0.276976
230 0.108483
235 0.168227
240 0.156958
245 0.202438
250 0.233531
255 0.140958
260 0.104944
265 0.162559
270 0.240549
275 0.154932
280 0.172879
285 0.175721
290 0.115006
295 0.102378
300 0.130196
305 0.113099
310 0.226493
315 0.170874
320 0.188866
325 0.154517
330 0.104178
335 0.114655
340 0.124088
345 0.206923
350 0.191669
355 0.211399
360 0.151884
365 0.166961
370 0.166916
375 0.134699
380 0.121474
385 0.208745
390 0.215506
395 0.185352
400 0.15444
405 0.118274
410 0.168439
415 0.257036
420 0.133654
425 0.16765
430 0.195614
435 0.224133
440 0.216773
445 0.192181
450 0.182666
455 0.212176
460 0.230519
465 0.171366
470 0.209469
475 0.154569
480 0.183892
485 0.315699
490 0.330341
495 0.298866
500 0.375236
505 0.311443
510 0.427257
515 0.526915
520 0.810315
525 1.36233
530 39.1984
535 801.136
540 1361.51
545 375.62
550 44.9148
555 6.14375
560 1.53637
565 0.945056
570 0.578428
575 0.566223
580 0.42493
585 0.51236
590 0.456996
595 0.489576
600 0.228029
Ex : 548
200 0.189595
205 0.131743
210 0.23169
215 0.12997
220 0.169241
225 0.129181
230 0.132585
235 0.191379
240 0.102772
245 0.222331
250 0.166734
255 0.176731
260 0.157446
265 0.116424
270 0.170994
275 0.16635
280 0.130703
285 0.138595
290 0.0898144
295 0.0896456
300 0.18124
305 0.14797
310 0.119832
315 0.186808
320 0.147356
325 0.194762
330 0.128881
335 0.125744
340 0.194803
345 0.116119
350 0.143424
355 0.247699
360 0.186771
365 0.233059
370 0.220102
375 0.26739
380 0.222611
385 0.150567
390 0.151009
395 0.209912
400 0.137904
405 0.211161
410 0.18671
415 0.253792
420 0.181013
425 0.162021
430 0.200041
435 0.171132
440 0.213335
445 0.201615
450 0.170278
455 0.177086
460 0.166985
465 0.174355
470 0.165453
475 0.117539
480 0.221316
485 0.283828
490 0.227188
495 0.265659
500 0.244017
505 0.270321
510 0.359544
515 0.479146
520 0.60728
525 0.905083
530 1.17669
535 44.7227
540 806.951
545 1343.39
550 371.173
555 44.2905
560 6.01362
565 1.44125
570 0.865973
575 0.481951
580 0.45435
585 0.454104
590 0.491811
595 0.474397
600 0.0539846
Ex : 553
200 0.120034
205 0.205281
210 0.153417
215 0.205479
220 0.133674
225 0.224888
230 0.119134
235 0.110998
240 0.114001
245 0.107558
250 0.112291
255 0.126737
260 0.13725
265 0.122996
270 0.21888
275 0.162143
280 0.275989
285 0.11686
290 0.110025
295 0.112703
300 0.166822
305 0.211387
310 0.117569
315 0.196852
320 0.118785
325 0.172474
330 0.133436
335 0.129658
340 0.145035
345 0.138982
350 0.167847
355 0.169736
360 0.241274
365 0.165562
370 0.169307
375 0.134875
380 0.118222
385 0.193694
390 0.219694
395 0.243641
400 0.184402
405 0.189227
410 0.167886
415 0.310386
420 0.204008
425 0.192321
430 0.163879
435 0.183882
440 0.170518
445 0.286067
450 0.215742
455 0.146751
460 0.188694
465 0.249679
470 0.228786
475 0.283671
480 0.243299
485 0.180386
490 0.293253
495 0.360373
500 0.270645
505 0.251351
510 0.257545
515 0.30357
520 0.318
525 0.438745
530 0.723222
535 1.20119
540 37.4051
545 758.128
550 1320.07
555 374.556
560 44.6853
565 6.08189
570 1.25032
575 0.587878
580 0.451671
585 0.413496
590 0.352352
595 0.456481
600 0.445232
Ex : 558
200 0.239465
205 0.152965
210 0.124233
215 0.210312
220 0.189563
225 0.115975
230 0.116353
235 0.136927
240 0.0966496
245 0.172701
250 0.206696
255 0.10684
260 0.153409
265 0.112918
270 0.10944
275 0.131837
280 0.177833
285 0.161823
290 0.107756
295 0.143252
300 0.16838
305 0.191211
310 0.164201
315 0.157098
320 0.12946
325 0.23422
330 0.253682
335 0.213199
340 0.17119
345 0.15684
350 0.235175
355 0.211248
360 0.227953
365 0.174609
370 0.157204
375 0.124542
380 0.122034
385 0.181264
390 0.122624
395 0.147653
400 0.222641
405 0.197456
410 0.187263
415 0.206803
420 0.15876
425 0.226313
430 0.148433
435 0.165453
440 0.176663
445 0.204139
450 0.174669
455 0.221094
460 0.218635
465 0.20834
470 0.234444
475 0.213017
480 0.184301
485 0.219556
490 0.184298
495 0.187023
500 0.201159
505 0.231024
510 0.317172
515 0.348697
520 0.385805
525 0.495582
530 0.452619
535 0.715223
540 1.22152
545 35.5088
550 742.702
555 1327.1
560 371.669
565 44.4253
570 5.86764
575 1.30083
580 0.569649
585 0.487054
590 0.371705
595 0.384942
600 0.0975142
Ex : 563
200 0.108796
205 0.125107
210 0.118284
215 0.206848
220 0.0958789
225 0.143675
230 0.212222
235 0.277141
240 0.161313
245 0.172196
250 0.239613
255 0.134516
260 0.145282
265 0.232149
270 0.164436
275 0.0983934
280 0.0934672
285 0.137218
290 0.145849
295 0.133665
300 0.0910263
305 0.182543
310 0.143816
315 0.138279
320 0.144628
325 0.131453
330 0.149912
335 0.179311
340 0.122244
345 0.167213
350 0.20149
355 0.134784
360 0.127377
365 0.19689
370 0.186512
375 0.1318
380 0.24709
385 0.162842
390 0.268832
395 0.173649
400 0.187788
405 0.165211
410 0.243129
415 0.115686
420 0.222556
425 0.152478
430 0.162413
435 0.215063
440 0.232334
445 0.15874
450 0.133338
455 0.151553
460 0.22022
465 0.210474
470 0.172385
475 0.289773
480 0.176367
485 0.171803
490 0.244295
495 0.180705
500 0.285412
505 0.289738
510 0.406845
515 0.293215
520 0.21577
525 0.406176
530 0.355935
535 0.527236
540 0.689946
545 1.1933
550 33.573
555 698.472
560 1238.71
565 361.88
570 43.1972
575 5.6044
580 1.24109
585 0.617606
590 0.438613
595 0.468671
600 0.164805
Ex : 568
200 0.133568
205 0.110872
210 0.185064
215 0.108736
220 0.223479
225 0.154609
230 0.187837
235 0.16795
240 0.127549
245 0.114291
250 0.166908
255 0.149857
260 0.162971
265 0.170838
270 0.298028
275 0.199013
280 0.19037
285 0.218993
290 0.115686
295 0.201093
300 0.148818
305 0.137052
310 0.153752
315 0.14535
320 0.164492
325 0.14022
330 0.119151
335 0.20346
340 0.115221
345 0.153089
350 0.193864
355 0.225448
360 0.17562
365 0.19551
370 0.186923
375 0.215455
380 0.149727
385 0.151893
390 0.284553
395 0.204108
400 0.166508
405 0.225993
410 0.228348
415 0.178284
420 0.200195
425 0.253983
430 0.224854
435 0.307023
440 0.208938
445 0.240507
450 0.152297
455 0.253404
460 0.323779
465 0.189563
470 0.239931
475 0.281603
480 0.325656
485 0.236537
490 0.211314
495 0.209175
500 0.208446
505 0.260096
510 0.247452
515 0.360605
520 0.243044
525 0.350972
530 0.420135
535 0.449294
540 0.556705
545 0.702296
550 1.06444
555 24.7888
560 633.773
565 1214.21
570 367.361
575 44.2285
580 5.65021
585 1.14555
590 0.559393
595 0.426094
600 0.0484879
Ex : 573
200 0.258896
205 0.120772
210 0.189297
215 0.0963324
220 0.333991
225 0.153225
230 0.219227
235 0.303589
240 0.22822
245 0.144772
250 0.113825
255 0.0844755
260 0.162353
265 0.129409
270 0.146078
275 0.181426
280 0.184032
285 0.222057
290 0.137504
295 0.184502
300 0.100214
305 0.193933
310 0.118794
315 0.197734
320 0.178874
325 0.180789
330 0.165948
335 0.206275
340 0.222686
345 0.13759
350 0.247546
355 0.14225
360 0.178928
365 0.243956
370 0.151838
375 0.170058
380 0.139278
385 0.132892
390 0.181613
395 0.221044
400 0.212707
405 0.153319
410 0.237299
415 0.17841
420 0.199265
425 0.22236
430 0.172862
435 0.167136
440 0.17117
445 0.285368
450 0.175127
455 0.348444
460 0.207167
465 0.214245
470 0.153203
475 0.198969
480 0.187991
485 0.165563
490 0.229033
495 0.269504
500 0.251689
505 0.223558
510 0.172014
515 0.232598
520 0.225074
525 0.26489
530 0.254379
535 0.344711
540 0.502801
545 0.505417
550 0.734533
555 1.03485
560 21.8638
565 552.141
570 1118.88
575 348.556
580 41.5534
585 5.27323
590 1.11561
595 0.498513
600 0.464849
Ex : 578
200 0.117411
205 0.187777
210 0.211624
215 0.155252
220 0.117505
225 0.222386
230 0.16005
235 0.0982085
240 0.16036
245 0.181086
250 0.212787
255 0.161965
260 0.180389
265 0.188787
270 0.159405
275 0.0880305
280 0.0969828
285 0.0721337
290 0.211306
295 0.133606
300 0.160913
305 0.140802
310 0.194973
315 0.115894
320 0.131378
325 0.107791
330 0.165997
335 0.190016
340 0.271775
345 0.22061
350 0.230059
355 0.16154
360 0.188455
365 0.17721
370 0.143282
375 0.16161
380 0.217725
385 0.221678
390 0.240985
395 0.145971
400 0.210163
405 0.187748
410 0.170766
415 0.16163
420 0.129423
425 0.218553
430 0.18843
435 0.228336
440 0.160393
445 0.314523
450 0.219039
455 0.184137
460 0.292892
465 0.214655
470 0.231799
475 0.18946
480 0.238126
485 0.312473
490 0.180764
495 0.21228
500 0.208557
505 0.167058
510 0.183521
515 0.228356
520 0.155285
525 0.198707
530 0.210555
535 0.269413
540 0.33704
545 0.391028
550 0.404613
555 0.542364
560 0.895682
565 19.7333
570 489.555
575 973.337
580 297.767
585 35.5341
590 4.53231
595 1.00654
600 0.5486
Ex : 583
200 0.209279
205 0.230486
210 0.124365
215 0.132601
220 0.205801
225 0.119922
230 0.227672
235 0.146633
240 0.104889
245 0.303364
250 0.193569
255 0.320709
260 0.215967
265 0.121621
270 0.14621
275 0.126594
280 0.0893445
285 0.16496
290 0.0785779
295 0.204448
300 0.142265
305 0.179938
310 0.158588
315 0.191237
320 0.241705
325 0.173325
330 0.16847
335 0.200872
340 0.215368
345 0.138597
350 0.127982
355 0.138487
360 0.150087
365 0.167223
370 0.133968
375 0.230217
380 0.240729
385 0.142798
390 0.170126
395 0.297256
400 0.307129
405 0.170498
410 0.127447
415 0.184433
420 0.224326
425 0.20396
430 0.126391
435 0.16954
440 0.222076
445 0.153437
450 0.184801
455 0.24363
460 0.264898
465 0.152168
470 0.155051
475 0.240015
480 0.151136
485 0.104762
490 0.304793
495 0.206015
500 0.210813
505 0.29776
510 0.221517
515 0.222474
520 0.230626
525 0.244862
530 0.199915
535 0.328461
540 0.258854
545 0.331474
550 0.425882
555 0.34813
560 0.550479
565 0.971787
570 16.6971
575 442.186
580 848.507
585 245.99
590 29.4458
595 3.84455
600 0.874356
Ex : 588
200 0.178774
205 0.153405
210 0.136629
215 0.142368
220 0.191962
225 0.109228
230 0.189794
235 0.21988
240 0.161562
245 0.0949328
250 0.195596
255 0.118511
260 0.167113
265 0.178059
270 0.179309
275 0.228642
280 0.119164
285 0.139085
290 0.178427
295 0.149607
300 0.110064
305 0.147093
310 0.154232
315 0.0784246
320 0.160986
325 0.197569
330 0.26297
335 0.168795
340 0.220954
345 0.262016
350 0.246478
355 0.216681
360 0.214646
365 0.0930123
370 0.117803
375 0.147068
380 0.24761
385 0.270359
390 0.207822
395 0.188109
400 0.155483
405 0.360879
410 0.208147
415 0.159776
420 0.197056
425 0.2456
430 0.316031
435 0.206506
440 0.250779
445 0.236201
450 0.179641
455 0.171681
460 0.172591
465 0.203067
470 0.202549
475 0.181141
480 0.159529
485 0.263093
490 0.158325
495 0.240923
500 0.252782
505 0.167154
510 0.142491
515 0.180699
520 0.171606
525 0.217029
530 0.208114
535 0.211772
540 0.263877
545 0.316882
550 0.268194
555 0.290524
560 0.312719
565 0.551881
570 0.619449
575 14.564
580 370.486
585 727.749
590 219.961
595 26.2878
600 2.99145
Ex : 593
200 0.122302
205 0.125756
210 0.11097
215 0.208901
220 0.252225
225 0.142963
230 0.182614
235 0.169995
240 0.210417
245 0.161224
250 0.201052
255 0.165453
260 0.0665045
265 0.203875
270 0.290879
275 0.158366
280 0.138758
285 0.0966328
290 0.231258
295 0.229726
300 0.105537
305 0.200366
310 0.202482
315 0.190754
320 0.0669511
325 0.0753541
330 0.0993971
335 0.156735
340 0.16932
345 0.244095
350 0.260335
355 0.148764
360 0.15202
365 0.15525
370 0.187053
375 0.230787
380 0.199595
385 0.261021
390 0.245596
395 0.244633
400 0.0958351
405 0.135105
410 0.189519
415 0.310774
420 0.192209
425 0.171364
430 0.227744
435 0.249686
440 0.25142
445 0.216486
450 0.161774
455 0.182295
460 0.197761
465 0.33723
470 0.248732
475 0.146154
480 0.213119
485 0.253581
490 0.209025
495 0.27505
500 0.358516
505 0.290435
510 0.23405
515 0.249066
520 0.214097
525 0.200509
530 0.228592
535 0.233317
540 0.29498
545 0.229465
550 0.249068
555 0.28696
560 0.350837
565 0.450165
570 0.34996
575 0.850421
580 12.7319
585 326.424
590 608.371
595 186.41
600 27.1274
Ex : 598
200 0.189357
205 0.219232
210 0.141119
215 0.177125
220 0.144657
225 0.110499
230 0.129873
235 0.158314
240 0.172366
245 0.189896
250 0.141149
255 0.158803
260 0.178432
265 0.188308
270 0.280504
275 0.238628
280 0.123752
285 0.136716
290 0.106329
295 0.139038
300 0.183605
305 0.136149
310 0.156286
315 0.174223
320 0.14501
325 0.191087
330 0.183183
335 0.141546
340 0.101274
345 0.200658
350 0.272438
355 0.148388
360 0.203988
365 0.197253
370 0.24004
375 0.200348
380 0.146719
385 0.146636
390 0.217706
395 0.229568
400 0.200677
405 0.220723
410 0.269506
415 0.17584
420 0.211069
425 0.234256
430 0.0991111
435 0.164008
440 0.201571
445 0.174994
450 0.288532
455 0.192138
460 0.391003
465 0.197653
470 0.137952
475 0.19886
480 0.218462
485 0.263863
490 0.24775
495 0.228795
500 0.295493
505 0.177076
510 0.293752
515 0.224639
520 0.150388
525 0.174
530 0.160741
535 0.317005
540 0.304615
545 0.224145
550 0.24411
555 0.431436
560 0.235364
565 0.230681
570 0.321314
575 0.35273
580 0.702137
585 11.9943
590 291.979
595 532.426
600 366.088
Ex : 603
200 0.209096
205 0.148844
210 0.139581
215 0.160145
220 0.157274
225 0.211496
230 0.226755
235 0.177287
240 0.185952
245 0.222731
250 0.123231
255 0.152689
260 0.241562
265 0.150221
270 0.154193
275 0.133799
280 0.252652
285 0.172768
290 0.183324
295 0.218948
300 0.160459
305 0.336824
310 0.148072
315 0.403216
320 0.198684
325 0.12092
330 0.33169
335 0.188588
340 0.126714
345 0.0812929
350 0.22789
355 0.160084
360 0.190588
365 0.151697
370 0.216091
375 0.275632
380 0.218597
385 0.232919
390 0.224452
395 0.278693
400 0.120142
405 0.190807
410 0.24041
415 0.186744
420 0.34102
425 0.21211
430 0.276229
435 0.167949
440 0.178625
445 0.221142
450 0.195589
455 0.218976
460 0.259281
465 0.279285
470 0.160444
475 0.143558
480 0.239739
485 0.263638
490 0.190731
495 0.232355
500 0.300705
505 0.144863
510 0.241424
515 0.154149
520 0.165683
525 0.207885
530 0.17313
535 0.308825
540 0.14627
545 0.235026
550 0.24492
555 0.250733
560 0.339873
565 0.243212
570 0.308916
575 0.345
580 0.3909
585 0.450733
590 10.7117
595 253.913
600 494.137
