File format V 1.0
ven. 6. janv. 14:30:49 2017
Operator : 
Comments : 

=============================================
SpectroFluorometer parameters
Mode : 3D measurement
Data : Fluorescence
Phospho. : Ordinary
Spectrum : Fluorescence

Scan speed : 2400 nm/mn
Response : 100 ms
PM Voltage : 700 V
Shutter : On

Lambda Ex. Start : 203
Lambda Ex. End : 603
Lambda Ex. Step : 5
Ex. Slit : 5 nm

Lambda Em. Start : 200
Lambda Em. End : 600
Lambda Em. Step : 5
Em. Slit : 5 nm

Repetition : 1
Decal lambda em : 10
=============================================
DATA
Ex : 203
200 11.5728
205 11.5125
210 13.753
215 10.613
220 11.9336
225 14.0479
230 11.5945
235 11.5375
240 17.4217
245 15.0479
250 13.2532
255 11.4369
260 14.4794
265 10.5803
270 7.18891
275 11.3895
280 10.8931
285 12.0864
290 11.8892
295 10.9584
300 9.97761
305 15.2148
310 12.8291
315 7.84219
320 15.3712
325 9.33335
330 16.2894
335 11.6097
340 10.4037
345 14.2393
350 11.7625
355 10.9437
360 11.1314
365 12.4524
370 13.0406
375 11.5685
380 10.8373
385 11.5165
390 12.675
395 11.4794
400 14.9633
405 11.058
410 14.7328
415 14.5542
420 14.2079
425 11.5955
430 12.2629
435 12.0056
440 14.6467
445 10.7913
450 15.1985
455 13.2304
460 10.6881
465 16.9594
470 14.6281
475 12.6903
480 8.94864
485 12.547
490 11.9789
495 12.1918
500 10.2987
505 11.64
510 9.15786
515 10.6941
520 9.58339
525 13.6017
530 12.4427
535 15.7113
540 13.4955
545 11.767
550 16.8826
555 10.8103
560 9.84668
565 10.1786
570 12.6705
575 12.6157
580 15.5634
585 13.265
590 8.0871
595 11.4098
600 1.96304
Ex : 208
200 12.1268
205 11.3212
210 11.4409
215 13.2556
220 13.0868
225 14.6876
230 13.1019
235 12.5605
240 13.2044
245 9.47424
250 11.6619
255 9.35215
260 10.6188
265 13.8724
270 12.1926
275 12.6989
280 12.2114
285 12.8357
290 12.9292
295 12.4822
300 10.1672
305 12.0244
310 11.9904
315 14.4392
320 11.7546
325 12.3659
330 13.7
335 11.2666
340 12.2792
345 12.3813
350 12.754
355 14.4475
360 12.5359
365 12.8002
370 9.79552
375 12.7817
380 12.5004
385 12.0651
390 16.0855
395 10.9141
400 14.0315
405 14.4236
410 12.9484
415 11.9956
420 14.5699
425 10.1819
430 11.8829
435 12.6755
440 11.7475
445 15.2534
450 12.1147
455 18.6215
460 15.01
465 13.159
470 12.9219
475 12.1528
480 14.4426
485 11.1309
490 10.8273
495 11.0837
500 12.3208
505 10.6259
510 11.4359
515 9.65304
520 10.7918
525 12.8033
530 11.9864
535 12.1682
540 14.4675
545 13.8573
550 12.0059
555 10.6597
560 10.4986
565 10.2017
570 12.4891
575 10.8352
580 11.3263
585 12.5073
590 15.351
595 12.4936
600 3.37137
Ex : 213
200 12.8995
205 8.76513
210 9.23244
215 10.2976
220 9.18932
225 11.6645
230 11.6841
235 12.7072
240 12.7721
245 11.2556
250 15.104
255 11.947
260 13.2213
265 10.5969
270 12.1796
275 12.8275
280 12.3359
285 11.7387
290 14.4938
295 10.4902
300 11.0172
305 14.2234
310 11.4078
315 10.6643
320 12.9908
325 13.1827
330 12.9595
335 13.6238
340 10.3109
345 11.4109
350 11.1209
355 10.4638
360 10.1158
365 12.1827
370 10.658
375 12.7256
380 11.7779
385 13.4544
390 14.0617
395 16.7054
400 11.8369
405 11.0454
410 11.0255
415 12.1541
420 15.2408
425 11.1912
430 12.9987
435 8.6888
440 13.0628
445 13.8974
450 11.3261
455 15.0392
460 14.0221
465 11.9136
470 10.0361
475 10.4412
480 13.2558
485 11.4519
490 11.1422
495 11.4613
500 12.8531
505 14.5231
510 13.4898
515 10.5344
520 11.4128
525 9.02595
530 11.4277
535 11.8893
540 16.9666
545 14.9008
550 15.51
555 12.0466
560 11.8542
565 13.107
570 12.2585
575 10.6584
580 15.662
585 12.7353
590 12.5152
595 9.37269
600 2.98668
Ex : 218
200 13.2941
205 12.7381
210 10.7426
215 11.4511
220 10.5946
225 13.0941
230 15.164
235 14.6569
240 11.1304
245 9.47176
250 10.3577
255 13.6058
260 11.6567
265 14.0357
270 12.3549
275 12.8092
280 10.1089
285 10.6944
290 10.7446
295 10.2081
300 12.9841
305 12.8505
310 9.30602
315 14.5055
320 11.2233
325 11.1225
330 13.0455
335 12.0032
340 11.0054
345 11.6107
350 15.8055
355 14.6029
360 15.1375
365 11.9861
370 13.691
375 15.8073
380 10.8235
385 11.045
390 12.8909
395 15.2779
400 12.522
405 11.7327
410 14.7208
415 13.823
420 10.3934
425 12.9868
430 11.9295
435 13.3232
440 14.1363
445 12.274
450 13.9045
455 13.5745
460 14.1731
465 15.9562
470 15.4744
475 9.99457
480 11.8424
485 15.4596
490 11.8532
495 12.4587
500 11.7366
505 9.81333
510 9.68463
515 12.3233
520 10.6333
525 8.29966
530 9.35542
535 12.7061
540 11.4576
545 12.2377
550 11.7343
555 11.4676
560 13.5561
565 10.6079
570 13.516
575 16.0204
580 13.5769
585 13.3336
590 11.8758
595 9.78647
600 14.0522
Ex : 223
200 13.1651
205 10.3343
210 11.221
215 11.8619
220 13.0561
225 10.8243
230 9.32984
235 12.5446
240 11.6655
245 10.7542
250 8.9545
255 9.01451
260 11.6796
265 10.5141
270 15.3639
275 10.6065
280 13.0139
285 12.5744
290 13.0603
295 9.08853
300 11.8467
305 12.0535
310 11.096
315 15.6389
320 11.2926
325 10.7784
330 8.26952
335 10.105
340 11.4057
345 12.6648
350 12.1967
355 10.2226
360 11.4823
365 12.3015
370 11.1209
375 12.916
380 11.892
385 13.6599
390 12.6564
395 15.961
400 16.6055
405 11.2648
410 13.2456
415 16.2953
420 11.7353
425 11.1847
430 14.3965
435 10.4543
440 10.5218
445 12.0681
450 11.4892
455 12.465
460 10.8214
465 13.003
470 13.9135
475 11.9422
480 13.6108
485 10.7432
490 9.05658
495 10.657
500 16.0458
505 11.7008
510 12.1948
515 14.8808
520 13.5872
525 11.7077
530 10.2061
535 9.3657
540 10.1075
545 10.2074
550 12.5097
555 11.0539
560 11.1486
565 10.3189
570 10.5605
575 12.4656
580 15.218
585 13.6993
590 11.6672
595 8.3193
600 9.51334
Ex : 228
200 9.96266
205 11.6113
210 16.3637
215 12.792
220 11.9235
225 13.4282
230 9.77098
235 10.233
240 10.7878
245 12.9949
250 13.4917
255 12.1153
260 11.3757
265 13.8868
270 12.2959
275 9.87258
280 11.2093
285 13.1338
290 11.1509
295 8.97037
300 13.8433
305 13.3517
310 11.9017
315 12.1543
320 7.74865
325 9.85875
330 12.3577
335 11.1896
340 11.7343
345 9.89059
350 11.6851
355 11.4622
360 10.2587
365 11.7224
370 13.7999
375 9.83404
380 14.285
385 11.9895
390 13.1765
395 11.6089
400 13.1811
405 10.7857
410 11.5664
415 11.4085
420 9.58596
425 10.5345
430 13.4963
435 14.5515
440 12.0659
445 10.9404
450 12.6896
455 12.8442
460 9.32982
465 10.0747
470 11.5603
475 9.72725
480 11.4987
485 10.6565
490 12.2809
495 10.7121
500 10.3082
505 10.3379
510 14.6363
515 11.1806
520 12.6311
525 16.455
530 9.1446
535 8.75023
540 9.98654
545 11.8771
550 13.9744
555 9.74256
560 11.3441
565 10.983
570 10.8816
575 12.5527
580 13.2012
585 9.58624
590 10.3605
595 11.1087
600 1.77053
Ex : 233
200 10.8972
205 11.6013
210 9.94349
215 9.45278
220 10.5032
225 11.6414
230 8.41084
235 10.5295
240 11.1244
245 13.6398
250 11.676
255 9.51819
260 10.9193
265 10.3562
270 12.9513
275 11.5011
280 9.95016
285 9.10448
290 10.1179
295 9.50131
300 12.6627
305 14.1906
310 10.0356
315 10.5646
320 8.53103
325 8.70913
330 9.88799
335 10.8117
340 12.0316
345 9.40454
350 11.8968
355 10.9825
360 10.8586
365 9.38728
370 9.29575
375 12.4132
380 13.4129
385 11.6968
390 13.1674
395 11.8641
400 8.91775
405 12.4643
410 12.1824
415 12.4725
420 9.87094
425 10.2917
430 9.87206
435 10.6828
440 12.8895
445 13.4832
450 11.7102
455 13.2442
460 11.2624
465 10.4309
470 10.0634
475 9.91965
480 14.673
485 9.2059
490 10.4328
495 11.7026
500 12.0162
505 10.4209
510 10.3611
515 9.91554
520 12.4786
525 13.2966
530 13.547
535 13.6365
540 10.6819
545 9.39281
550 13.3286
555 10.9424
560 12.2878
565 12.7641
570 9.15538
575 12.7284
580 9.5302
585 11.8691
590 12.272
595 8.03249
600 27.2048
Ex : 238
200 9.34082
205 9.67685
210 10.9825
215 9.59091
220 8.46542
225 9.73776
230 8.78747
235 9.72844
240 8.74697
245 7.96461
250 12.251
255 6.71446
260 9.86873
265 11.3477
270 8.70832
275 8.00539
280 12.3573
285 8.17329
290 8.80073
295 8.52946
300 6.81275
305 9.0826
310 10.6494
315 8.48008
320 7.96601
325 8.85919
330 10.0128
335 10.7474
340 7.55111
345 10.2569
350 8.52537
355 9.04987
360 11.1076
365 8.26409
370 7.79182
375 9.23177
380 9.19717
385 8.64264
390 10.3752
395 7.58492
400 8.04909
405 9.49337
410 7.79108
415 10.0155
420 10.8083
425 11.2167
430 12.0155
435 10.6725
440 11.0374
445 8.86204
450 12.7427
455 11.9073
460 7.13882
465 7.18803
470 9.94928
475 11.6462
480 10.7446
485 10.7827
490 10.4522
495 12.9357
500 10.9108
505 10.0637
510 9.43121
515 10.6271
520 10.8533
525 10.7145
530 11.2672
535 10.1734
540 10.8257
545 10.2817
550 9.72467
555 11.7673
560 9.61031
565 11.3013
570 8.44334
575 9.96666
580 12.5154
585 8.09661
590 9.39823
595 9.56254
600 10.3933
Ex : 243
200 8.12862
205 7.68049
210 6.56074
215 8.39409
220 8.16843
225 7.36872
230 8.75774
235 8.0776
240 8.93709
245 8.48023
250 9.44565
255 7.09057
260 8.40291
265 6.92702
270 11.0553
275 9.1261
280 7.58236
285 7.81455
290 6.36658
295 9.40929
300 8.06441
305 9.23866
310 9.36263
315 8.83026
320 7.05911
325 8.14768
330 8.39373
335 9.54916
340 7.68173
345 8.71006
350 8.1525
355 7.97391
360 9.26638
365 10.38
370 9.44755
375 7.98806
380 9.20893
385 9.32877
390 8.83787
395 8.62766
400 7.89745
405 12.5807
410 8.77276
415 7.9333
420 7.74576
425 9.88249
430 7.44447
435 7.36689
440 9.86201
445 9.12813
450 7.56625
455 9.13225
460 7.87564
465 10.8867
470 8.22423
475 9.48283
480 9.46811
485 8.87012
490 10.5319
495 8.89989
500 8.53226
505 8.68865
510 10.8505
515 9.53205
520 8.09765
525 9.40915
530 8.69267
535 10.2168
540 7.76993
545 7.20294
550 7.99506
555 8.45771
560 10.4971
565 7.43536
570 7.7198
575 7.51621
580 8.28119
585 10.8738
590 7.20339
595 6.3592
600 6.18858
Ex : 248
200 7.20621
205 8.08284
210 8.22629
215 5.98047
220 7.65781
225 8.51333
230 8.17476
235 7.45686
240 8.17416
245 6.80351
250 9.26638
255 7.40518
260 8.99996
265 8.88856
270 6.88868
275 8.55622
280 7.52658
285 9.83413
290 5.49827
295 7.8563
300 6.82729
305 7.02427
310 7.14709
315 8.86764
320 8.42741
325 6.68334
330 7.56568
335 8.09207
340 8.40544
345 9.73868
350 6.51032
355 8.43073
360 9.15993
365 7.08353
370 9.17073
375 8.38165
380 7.41079
385 7.63584
390 9.25631
395 9.05151
400 8.16777
405 9.15779
410 8.62603
415 7.11608
420 9.72133
425 9.36301
430 7.52356
435 6.48228
440 7.05942
445 7.30647
450 9.18888
455 8.15359
460 9.09377
465 9.05829
470 10.1106
475 7.8836
480 7.53862
485 7.29761
490 8.30059
495 8.54414
500 6.48273
505 7.5658
510 6.21274
515 6.35344
520 9.11084
525 6.9448
530 6.67868
535 7.40654
540 8.23044
545 9.80118
550 8.53533
555 7.39363
560 5.83542
565 7.36009
570 7.29826
575 8.39875
580 9.77486
585 8.15075
590 9.72944
595 8.87908
600 6.4261
Ex : 253
200 7.55981
205 6.34528
210 6.8412
215 6.76854
220 5.76293
225 4.39802
230 5.60423
235 7.53019
240 6.4995
245 5.04282
250 5.10383
255 5.01606
260 7.62825
265 7.48003
270 6.55939
275 6.55575
280 5.77293
285 6.94173
290 8.49597
295 5.71023
300 7.57093
305 4.85269
310 8.65926
315 6.59444
320 5.08748
325 6.6865
330 8.32637
335 6.93667
340 9.35827
345 6.48693
350 5.96468
355 7.82116
360 7.78572
365 5.34927
370 6.90442
375 6.45138
380 6.50841
385 5.79911
390 7.02428
395 5.95348
400 7.71212
405 8.0835
410 6.12551
415 7.86843
420 5.73117
425 6.03978
430 6.65936
435 7.33402
440 7.01122
445 7.53602
450 6.9192
455 6.5899
460 6.87447
465 8.52665
470 7.1611
475 5.93188
480 7.1883
485 5.93829
490 6.61311
495 7.48466
500 6.91715
505 7.51199
510 8.10211
515 7.62631
520 7.11917
525 7.04995
530 5.34645
535 7.63677
540 7.72178
545 7.85105
550 7.87802
555 8.11057
560 9.76799
565 6.4373
570 6.06453
575 9.19386
580 6.38057
585 5.54601
590 5.55544
595 4.66887
600 0.531299
Ex : 258
200 4.57977
205 4.27287
210 4.86603
215 5.2412
220 6.1722
225 5.09815
230 5.00592
235 4.79
240 5.23235
245 5.34995
250 6.81917
255 4.75605
260 5.06
265 4.3496
270 5.26724
275 5.55211
280 5.25706
285 5.64385
290 5.08722
295 5.81697
300 5.66549
305 5.26697
310 5.21294
315 3.89634
320 4.2145
325 4.1217
330 4.10528
335 4.77337
340 4.40337
345 4.36641
350 6.17347
355 6.8728
360 6.44237
365 6.19064
370 4.91875
375 8.33591
380 5.86426
385 4.46134
390 4.53363
395 7.3541
400 6.89759
405 5.58405
410 6.17118
415 7.30625
420 5.84975
425 4.98142
430 5.64448
435 4.28015
440 6.44943
445 5.93264
450 6.2843
455 7.29002
460 5.69943
465 5.6577
470 5.98727
475 5.69961
480 4.80489
485 5.41744
490 5.11756
495 6.31291
500 4.19008
505 5.41844
510 7.8891
515 7.62444
520 6.35048
525 4.85019
530 5.87442
535 4.89119
540 6.07291
545 5.5039
550 4.13998
555 4.52532
560 6.17263
565 5.30299
570 4.91291
575 5.80799
580 5.73614
585 4.45924
590 4.63955
595 4.77827
600 5.78712
Ex : 263
200 3.98734
205 3.81393
210 3.69269
215 4.46782
220 3.82536
225 4.76894
230 3.31757
235 4.82105
240 3.77812
245 3.22877
250 3.35656
255 4.13858
260 4.20928
265 4.42689
270 3.40407
275 3.09795
280 5.0086
285 3.41857
290 3.85251
295 3.79575
300 3.51637
305 4.12895
310 4.54668
315 4.2929
320 4.29157
325 4.74326
330 3.62111
335 4.87428
340 3.61123
345 4.76765
350 4.29176
355 3.83088
360 4.70783
365 4.97221
370 3.91665
375 5.11955
380 4.1911
385 3.38774
390 4.97035
395 4.08945
400 4.61123
405 4.81747
410 4.10141
415 4.2939
420 4.19444
425 5.01627
430 5.17436
435 6.29614
440 4.38155
445 5.45009
450 4.23501
455 5.42369
460 4.4926
465 4.13712
470 4.12217
475 6.48272
480 3.66878
485 4.59431
490 3.61183
495 3.6471
500 3.48682
505 5.01604
510 4.16168
515 3.85577
520 5.43133
525 5.51315
530 3.98691
535 3.92502
540 4.44361
545 4.91192
550 4.48215
555 4.04658
560 4.32859
565 4.18326
570 5.07045
575 4.54814
580 4.04429
585 5.54343
590 4.15079
595 3.60214
600 0.46899
Ex : 268
200 2.51741
205 2.67633
210 2.93895
215 3.90918
220 3.22094
225 3.47715
230 2.93463
235 2.80064
240 3.54476
245 4.23093
250 2.63793
255 2.95546
260 3.21845
265 3.62415
270 2.57919
275 3.10619
280 3.72965
285 3.57573
290 2.99942
295 2.64211
300 3.35829
305 3.31491
310 3.32541
315 3.61699
320 3.41675
325 3.36077
330 3.99981
335 3.48837
340 3.63287
345 3.22672
350 3.77602
355 3.93295
360 4.55363
365 3.7457
370 4.17207
375 3.02302
380 5.00922
385 4.02329
390 3.17856
395 4.9361
400 4.01237
405 4.3176
410 3.85667
415 4.239
420 3.31779
425 4.11805
430 4.05013
435 4.30336
440 3.85773
445 4.2333
450 4.74947
455 3.695
460 3.92749
465 3.51644
470 3.21391
475 3.57065
480 3.78271
485 3.35083
490 4.05603
495 3.93804
500 3.36937
505 3.36027
510 3.36305
515 3.41698
520 3.36589
525 3.83967
530 3.44829
535 3.97275
540 3.70001
545 3.6567
550 3.44062
555 3.62629
560 3.02585
565 2.51355
570 3.34807
575 4.1516
580 3.93243
585 3.90437
590 3.97343
595 2.9536
600 2.92655
Ex : 273
200 2.05405
205 3.13119
210 2.58995
215 3.53364
220 2.77468
225 3.00399
230 3.06939
235 2.69831
240 3.15338
245 2.94766
250 2.39696
255 3.19095
260 3.13989
265 2.56654
270 3.11229
275 2.66659
280 2.15327
285 2.42667
290 2.92554
295 2.91783
300 2.86534
305 3.22859
310 2.96604
315 2.00254
320 2.39365
325 2.72458
330 2.93433
335 2.94374
340 3.34753
345 3.02421
350 3.06599
355 2.40797
360 3.24012
365 3.2884
370 3.11829
375 3.49619
380 3.29302
385 2.85883
390 2.68764
395 2.53128
400 2.89347
405 3.53086
410 2.94851
415 3.18462
420 3.52663
425 3.47952
430 3.49903
435 3.25382
440 2.95489
445 3.6602
450 3.16302
455 2.8205
460 3.01818
465 3.24042
470 3.05911
475 2.54365
480 2.8924
485 2.45353
490 3.10858
495 2.73791
500 3.69583
505 3.40801
510 3.55745
515 2.943
520 3.18912
525 2.62936
530 3.28437
535 3.7308
540 4.59061
545 3.41144
550 3.28984
555 2.42338
560 2.78986
565 2.31391
570 3.73413
575 3.39605
580 2.43085
585 2.93885
590 2.97668
595 2.83489
600 11.5735
Ex : 278
200 2.05156
205 2.30579
210 2.14715
215 1.84368
220 2.67777
225 2.47462
230 2.76567
235 2.25038
240 2.2315
245 2.63883
250 2.53584
255 2.14195
260 2.79055
265 2.39619
270 2.32891
275 2.14877
280 1.89723
285 2.09393
290 3.01902
295 2.36873
300 2.21562
305 1.99768
310 2.19357
315 2.18824
320 2.3515
325 2.35725
330 2.59321
335 2.38142
340 2.58962
345 2.62334
350 2.8949
355 3.01437
360 2.36152
365 2.33009
370 2.7661
375 3.39517
380 2.76966
385 2.90357
390 2.8073
395 2.57729
400 2.70618
405 2.61759
410 2.51412
415 2.16669
420 2.75463
425 2.1445
430 2.54135
435 2.76041
440 2.74139
445 2.66181
450 2.45007
455 3.03672
460 3.4896
465 2.84815
470 2.9909
475 2.12091
480 2.47283
485 2.81747
490 3.60587
495 2.97328
500 2.72605
505 2.83932
510 2.13203
515 2.27945
520 1.92335
525 2.09759
530 2.03679
535 2.5684
540 2.07577
545 3.06352
550 3.2245
555 2.76081
560 2.82236
565 2.27259
570 1.95438
575 2.52698
580 2.24743
585 2.17623
590 2.11794
595 2.58032
600 0.382252
Ex : 283
200 1.96098
205 2.22959
210 1.8777
215 1.9817
220 1.86517
225 1.693
230 2.09746
235 2.16952
240 1.91561
245 1.95391
250 1.64343
255 1.69099
260 2.01532
265 1.56081
270 1.82228
275 1.52891
280 1.83875
285 1.603
290 1.38628
295 2.07067
300 2.13348
305 1.92046
310 1.57208
315 1.38468
320 2.13167
325 1.73828
330 1.43899
335 2.18874
340 1.83193
345 2.57085
350 2.34035
355 2.42656
360 1.81412
365 2.10438
370 2.00447
375 2.09389
380 2.48653
385 2.42436
390 2.82395
395 2.10062
400 1.65734
405 1.68712
410 2.07003
415 2.00985
420 2.4504
425 2.0235
430 2.427
435 2.32916
440 2.03558
445 2.54735
450 1.83355
455 2.30557
460 2.38666
465 2.54554
470 2.20759
475 2.06606
480 2.30065
485 2.45783
490 2.10299
495 2.39152
500 1.60977
505 1.72166
510 2.18305
515 1.92471
520 2.39072
525 2.61425
530 1.55618
535 2.18879
540 1.98368
545 1.67198
550 1.84213
555 2.46242
560 2.38653
565 2.14832
570 2.25088
575 2.22908
580 1.65759
585 1.80523
590 1.89512
595 1.24862
600 2.30836
Ex : 288
200 1.17785
205 1.5055
210 1.75216
215 1.73837
220 1.44149
225 1.41299
230 1.81727
235 1.42729
240 1.43692
245 1.59994
250 1.56731
255 1.307
260 1.94431
265 1.69168
270 1.89666
275 1.41725
280 1.76677
285 1.98598
290 1.78877
295 1.55711
300 1.41019
305 1.42403
310 1.47684
315 1.44703
320 1.41449
325 1.21503
330 1.80782
335 1.77663
340 1.88353
345 1.66191
350 1.91999
355 1.7972
360 1.7436
365 1.67299
370 1.90733
375 1.55626
380 2.0687
385 2.06686
390 2.31511
395 1.86447
400 2.09082
405 1.97144
410 1.91057
415 1.68156
420 2.20631
425 1.77985
430 1.89768
435 1.89641
440 1.76485
445 2.02984
450 2.07355
455 1.82978
460 1.78508
465 1.70775
470 2.10173
475 1.44566
480 1.62533
485 2.03169
490 1.87999
495 1.73173
500 1.69842
505 1.47599
510 1.85805
515 1.42704
520 1.76264
525 1.62847
530 1.20048
535 1.72108
540 1.56269
545 1.35065
550 1.76089
555 1.65915
560 1.59563
565 1.95812
570 2.12654
575 1.93904
580 2.06243
585 1.34271
590 1.42965
595 1.30268
600 1.18214
Ex : 293
200 1.24447
205 1.0776
210 1.45957
215 1.57931
220 1.434
225 1.51848
230 1.63617
235 1.49569
240 1.24974
245 1.22619
250 1.25839
255 1.33882
260 1.09779
265 1.1256
270 1.30866
275 1.36572
280 1.74615
285 1.33294
290 1.86782
295 1.34009
300 1.18094
305 1.36249
310 1.80784
315 1.09685
320 1.36665
325 1.30923
330 1.48674
335 1.50181
340 1.62166
345 1.45257
350 1.26349
355 1.34978
360 1.75634
365 1.46714
370 1.802
375 1.77832
380 1.94156
385 1.817
390 1.67638
395 1.68635
400 1.63809
405 2.13738
410 1.56922
415 1.88617
420 1.68616
425 2.02301
430 2.12941
435 2.38069
440 1.85133
445 2.00969
450 2.23329
455 1.86063
460 1.29919
465 1.40315
470 1.53287
475 1.35305
480 1.67899
485 1.55401
490 1.67776
495 1.54627
500 1.4598
505 1.29292
510 1.45684
515 1.47108
520 1.24609
525 1.38142
530 1.20058
535 1.19203
540 1.0578
545 1.14641
550 1.17905
555 1.46725
560 1.78437
565 1.11839
570 1.60427
575 2.01434
580 2.16139
585 1.96267
590 1.25658
595 0.829891
600 1.89543
Ex : 298
200 0.986962
205 1.01735
210 1.04942
215 1.17017
220 1.12641
225 0.943085
230 1.09927
235 1.47226
240 1.21347
245 1.10901
250 0.8987
255 1.19862
260 1.48878
265 1.01804
270 0.978133
275 1.5996
280 1.24269
285 1.47226
290 1.73127
295 1.55439
300 1.22985
305 1.87197
310 1.23371
315 0.860817
320 1.17012
325 0.961758
330 1.02095
335 1.42382
340 1.03517
345 1.12216
350 1.6092
355 1.47579
360 1.23856
365 1.55088
370 1.48793
375 1.74806
380 1.6586
385 1.66766
390 1.51102
395 1.41417
400 1.64612
405 1.829
410 1.60684
415 1.29388
420 1.60506
425 1.42866
430 1.58594
435 1.30644
440 1.4296
445 1.63622
450 1.71744
455 1.53644
460 1.578
465 1.395
470 1.55966
475 1.14217
480 1.17646
485 1.1116
490 1.12255
495 1.25252
500 1.21248
505 1.34658
510 1.38623
515 1.14878
520 1.38721
525 1.29704
530 1.57597
535 1.27141
540 1.50503
545 1.03323
550 1.03571
555 1.26158
560 1.13412
565 1.44721
570 1.97122
575 1.0059
580 1.10475
585 1.60221
590 1.80729
595 1.76646
600 1.92678
Ex : 303
200 0.954443
205 1.34964
210 1.06749
215 0.897784
220 1.05438
225 1.01692
230 1.01788
235 1.13347
240 0.88641
245 1.02209
250 1.00854
255 1.06785
260 0.969528
265 0.860995
270 0.772973
275 1.09579
280 0.950853
285 0.820918
290 0.861394
295 1.21473
300 1.45527
305 0.971949
310 0.895729
315 1.01916
320 1.10591
325 1.14646
330 1.03702
335 1.0546
340 1.43429
345 1.14752
350 1.20323
355 0.94709
360 1.28254
365 1.47962
370 1.57951
375 1.2648
380 1.4941
385 1.58727
390 1.65022
395 1.63791
400 1.35748
405 1.65608
410 1.26098
415 1.55563
420 1.50065
425 1.5388
430 1.38997
435 1.28798
440 1.31421
445 1.74202
450 1.66705
455 1.46452
460 1.58007
465 1.13138
470 1.13787
475 1.43854
480 1.41313
485 1.09395
490 1.24708
495 1.12406
500 1.23608
505 1.4348
510 1.09337
515 1.43545
520 0.933683
525 1.02817
530 1.09327
535 1.27338
540 1.05718
545 0.972565
550 1.13366
555 1.26141
560 1.22399
565 1.14635
570 0.90718
575 0.985409
580 1.13706
585 1.31111
590 1.07314
595 1.03814
600 0.921259
Ex : 308
200 1.03472
205 0.82831
210 0.641254
215 0.794714
220 0.764695
225 0.848844
230 1.10587
235 0.712407
240 0.861058
245 0.87941
250 0.753283
255 0.839855
260 0.710145
265 0.925194
270 0.79676
275 0.922681
280 0.846352
285 0.954988
290 1.0131
295 1.07621
300 1.08436
305 1.2483
310 0.977657
315 1.19171
320 0.753997
325 1.08304
330 1.03571
335 1.2011
340 1.03972
345 1.25477
350 1.07545
355 0.999727
360 1.11754
365 0.963302
370 1.23267
375 1.20749
380 1.5074
385 1.28905
390 1.18054
395 1.28038
400 1.28944
405 1.27655
410 1.19643
415 1.2819
420 1.41458
425 1.44068
430 1.6015
435 1.43713
440 1.44525
445 1.57591
450 1.37966
455 1.19631
460 1.231
465 1.08084
470 1.07501
475 1.28979
480 1.15163
485 1.12896
490 1.00291
495 1.14256
500 1.11246
505 1.09172
510 0.993655
515 1.16355
520 0.93489
525 1.07702
530 0.882589
535 1.08632
540 1.08894
545 0.90335
550 1.0978
555 0.89528
560 0.742583
565 0.798234
570 0.783396
575 0.761348
580 0.791398
585 1.06471
590 1.14476
595 0.914298
600 1.92501
Ex : 313
200 0.830041
205 0.691534
210 0.850607
215 0.662694
220 0.590791
225 0.678806
230 0.9226
235 0.646945
240 0.719216
245 0.551224
250 0.705296
255 0.655438
260 0.79539
265 0.90583
270 0.642598
275 0.772733
280 0.782223
285 0.718441
290 0.732086
295 0.912481
300 0.731812
305 0.924656
310 1.20086
315 0.88027
320 0.870186
325 0.835926
330 1.00791
335 1.22407
340 1.09735
345 0.921494
350 0.948148
355 0.963398
360 1.38704
365 1.04973
370 1.30932
375 1.37085
380 1.48752
385 1.65961
390 1.59507
395 1.46738
400 1.3036
405 1.57567
410 1.56141
415 1.44521
420 1.72815
425 1.85409
430 1.80877
435 1.85179
440 1.49063
445 1.4147
450 1.43811
455 1.93813
460 1.4824
465 1.4801
470 1.40751
475 1.45813
480 1.10641
485 1.10524
490 1.20647
495 1.09894
500 1.16727
505 0.981582
510 1.023
515 1.06703
520 0.745394
525 1.01518
530 1.22315
535 1.06542
540 1.00744
545 0.802758
550 0.73366
555 0.683794
560 0.919758
565 0.925695
570 0.876561
575 0.859981
580 0.690736
585 0.960425
590 0.771817
595 0.816704
600 0.427966
Ex : 318
200 0.870859
205 0.832304
210 0.732094
215 0.919381
220 0.655181
225 0.728325
230 0.606016
235 0.666485
240 0.618065
245 0.631263
250 0.673295
255 0.529833
260 0.798028
265 0.695148
270 0.535592
275 0.649759
280 0.695254
285 0.69282
290 0.572843
295 0.693889
300 0.586823
305 0.872878
310 1.00551
315 1.47643
320 0.875633
325 0.80153
330 1.0865
335 1.35161
340 1.5055
345 1.9294
350 2.35735
355 3.0334
360 3.56496
365 4.1535
370 4.46727
375 5.04666
380 5.53387
385 6.0748
390 6.6997
395 6.98265
400 7.32789
405 7.75877
410 7.56262
415 7.5196
420 7.50974
425 7.0983
430 7.05906
435 6.86731
440 6.70968
445 6.23382
450 6.47696
455 5.41622
460 4.97948
465 5.16547
470 4.76315
475 4.26652
480 4.29534
485 3.89906
490 3.31926
495 3.13364
500 2.70076
505 2.44695
510 2.56511
515 2.06592
520 2.27366
525 1.72408
530 1.50962
535 1.63649
540 1.65081
545 1.46169
550 1.25835
555 1.28645
560 1.21289
565 1.11234
570 1.12451
575 0.854093
580 1.00069
585 0.790443
590 0.622085
595 0.736999
600 0.20073
Ex : 323
200 0.546943
205 0.460351
210 0.735976
215 0.674213
220 0.548967
225 0.637874
230 0.580973
235 0.641047
240 0.577733
245 0.483683
250 0.616999
255 0.528822
260 0.519478
265 0.675631
270 0.763897
275 0.794331
280 0.661487
285 0.529691
290 0.772591
295 0.580617
300 0.710918
305 0.562452
310 0.665174
315 4.34097
320 17.4458
325 8.43398
330 3.0556
335 3.20258
340 4.32034
345 6.14101
350 8.84734
355 10.7239
360 13.4107
365 15.3863
370 18.1431
375 20.8049
380 24.1517
385 26.4133
390 28.6374
395 31.554
400 31.9694
405 32.609
410 32.8208
415 32.4685
420 31.1603
425 30.3501
430 29.2716
435 28.8585
440 27.9141
445 26.701
450 25.6422
455 23.4194
460 22.075
465 21.0195
470 19.3426
475 17.7322
480 16.0893
485 14.9358
490 13.0606
495 11.6873
500 10.3535
505 9.64695
510 8.1153
515 6.86915
520 5.9423
525 5.32821
530 5.07615
535 4.35647
540 3.84294
545 3.30521
550 2.86714
555 2.98281
560 2.8534
565 2.01198
570 1.98064
575 1.66303
580 1.31686
585 1.19322
590 1.18872
595 0.958879
600 1.21902
Ex : 328
200 0.637516
205 0.508838
210 0.554125
215 0.520459
220 0.55472
225 0.509834
230 0.507522
235 0.493066
240 0.613328
245 0.516428
250 0.496298
255 0.597005
260 0.552594
265 0.524844
270 0.928264
275 0.545673
280 0.632773
285 0.590683
290 0.571812
295 0.717179
300 0.753718
305 0.731961
310 0.604932
315 1.72905
320 43.7489
325 104.803
330 33.5324
335 7.63443
340 6.45267
345 7.48369
350 9.63165
355 13.2548
360 18.9383
365 20.7885
370 22.4124
375 25.3075
380 28.5596
385 33.039
390 34.9708
395 37.5244
400 38.3226
405 39.6975
410 40.6884
415 40.0464
420 38.5302
425 37.3587
430 35.4308
435 35.4758
440 32.996
445 30.6902
450 30.148
455 28.5156
460 27.1428
465 25.2886
470 22.0345
475 20.8716
480 18.9471
485 17.0507
490 15.8908
495 14.3644
500 12.084
505 10.6747
510 9.84738
515 8.55857
520 7.85727
525 6.62142
530 5.9086
535 5.21999
540 4.5294
545 4.24237
550 3.65633
555 3.10293
560 2.92452
565 2.41853
570 2.02963
575 1.71096
580 1.5203
585 1.36902
590 1.3768
595 1.26854
600 0.649647
Ex : 333
200 0.512476
205 0.595821
210 0.490377
215 0.470669
220 0.434404
225 0.69226
230 0.750365
235 0.743168
240 0.78508
245 0.558856
250 0.568045
255 0.506728
260 0.493641
265 0.572592
270 0.627876
275 0.475654
280 0.581365
285 0.639513
290 0.682496
295 0.619536
300 0.610473
305 0.641743
310 0.64704
315 0.584267
320 7.1517
325 130.336
330 228.719
335 60.6874
340 10.8908
345 6.59705
350 6.87637
355 8.18963
360 10.8402
365 15.2282
370 16.1575
375 16.6057
380 17.6093
385 20.3352
390 22.9223
395 24.7772
400 24.4681
405 25.253
410 26.1357
415 26.5091
420 25.8982
425 25.1554
430 23.7646
435 22.6491
440 22.124
445 20.9885
450 19.7108
455 18.2564
460 17.149
465 15.9658
470 14.7663
475 13.6627
480 12.628
485 11.2977
490 10.1786
495 9.12211
500 8.25627
505 7.07872
510 6.42368
515 5.79552
520 5.25336
525 4.44969
530 4.03581
535 3.64235
540 3.35965
545 2.91639
550 2.84208
555 2.49892
560 2.07707
565 1.99508
570 1.73125
575 1.49035
580 1.41214
585 1.21703
590 1.13013
595 1.07364
600 1.27996
Ex : 338
200 0.337424
205 0.484735
210 0.459521
215 0.487306
220 0.529548
225 0.479604
230 0.478271
235 0.43751
240 0.560652
245 0.366772
250 0.405854
255 0.546102
260 0.388151
265 0.496005
270 0.583142
275 0.412731
280 0.461585
285 0.618326
290 0.533892
295 0.587771
300 0.497337
305 0.610937
310 0.564431
315 0.650479
320 0.628943
325 13.7243
330 205.955
335 300.139
340 74.5058
345 11.9634
350 5.34753
355 4.7553
360 4.92186
365 6.88127
370 11.1567
375 11.4129
380 10.9466
385 11.6168
390 14.189
395 15.3116
400 14.9688
405 15.827
410 16.7297
415 17.7824
420 17.9907
425 16.1473
430 15.1714
435 15.1391
440 14.8482
445 14.9204
450 13.2396
455 11.887
460 11.2173
465 10.5294
470 9.88457
475 9.16427
480 8.35242
485 7.90025
490 7.02424
495 6.00392
500 6.00245
505 5.30447
510 4.78495
515 4.08748
520 3.8959
525 3.28581
530 3.00295
535 3.02539
540 2.65524
545 2.46693
550 2.04958
555 1.95447
560 1.83035
565 1.7005
570 1.60774
575 1.43263
580 1.24835
585 1.05049
590 0.998336
595 0.86965
600 0.653637
Ex : 343
200 0.507242
205 0.416766
210 0.495776
215 0.571842
220 0.556621
225 0.487061
230 0.597392
235 0.448571
240 0.473373
245 0.429632
250 0.463298
255 0.342548
260 0.456835
265 0.533785
270 0.459119
275 0.371133
280 0.46279
285 0.508596
290 0.482835
295 0.440643
300 0.625833
305 0.485627
310 0.511572
315 0.43881
320 0.677833
325 0.829125
330 15.9087
335 231.682
340 334.292
345 81.5504
350 12.2748
355 4.5828
360 3.9045
365 3.11983
370 4.31105
375 8.13664
380 9.9216
385 10.4703
390 12.263
395 11.9862
400 12.3314
405 12.7813
410 15.0133
415 16.3821
420 16.003
425 14.9057
430 14.1005
435 14.0049
440 13.8397
445 13.5832
450 12.1513
455 11.3751
460 10.3054
465 9.89818
470 8.96261
475 8.46209
480 7.79704
485 7.08265
490 6.2821
495 6.0376
500 5.3547
505 4.91755
510 4.35243
515 3.81966
520 3.65324
525 3.27499
530 2.78404
535 2.76143
540 2.42643
545 2.2048
550 2.01878
555 2.04778
560 1.81392
565 1.56092
570 1.44844
575 1.17183
580 1.11595
585 1.07632
590 0.933868
595 1.0196
600 0.554653
Ex : 348
200 0.35612
205 0.461628
210 0.487042
215 0.496564
220 0.402096
225 0.360965
230 0.467161
235 0.369616
240 0.380635
245 0.384072
250 0.384352
255 0.4196
260 0.500648
265 0.40219
270 0.377376
275 0.442479
280 0.389087
285 0.481939
290 0.376684
295 0.555476
300 0.505919
305 0.419117
310 0.422596
315 0.570619
320 0.474255
325 0.573227
330 0.848942
335 15.937
340 237.36
345 350.101
350 90.9331
355 13.0556
360 4.1883
365 3.21575
370 2.68279
375 3.43525
380 7.77269
385 13.6232
390 14.6999
395 14.6514
400 13.6085
405 14.4089
410 17.0291
415 19.2958
420 19.0285
425 17.5172
430 16.0008
435 16.2525
440 16.1695
445 15.5144
450 14.3327
455 12.9193
460 11.7941
465 11.7144
470 10.8977
475 10.3417
480 9.2704
485 8.21981
490 7.27201
495 6.59955
500 6.18228
505 5.56802
510 4.74402
515 4.22206
520 4.06657
525 3.43497
530 3.35923
535 2.83098
540 2.57181
545 2.26252
550 2.15577
555 1.83915
560 1.79212
565 1.63428
570 1.29215
575 1.18545
580 1.04129
585 1.00825
590 0.846582
595 0.755259
600 0.841665
Ex : 353
200 0.408506
205 0.394721
210 0.512187
215 0.405245
220 0.470522
225 0.411103
230 0.309864
235 0.370727
240 0.356349
245 0.334988
250 0.490145
255 0.399986
260 0.378346
265 0.389245
270 0.452635
275 0.417791
280 0.505592
285 0.371689
290 0.456929
295 0.499473
300 0.485463
305 0.525144
310 0.373628
315 0.45804
320 0.459857
325 0.498945
330 0.72097
335 0.8253
340 17.196
345 249.157
350 352.843
355 87.464
360 12.4035
365 3.84481
370 3.19467
375 2.89857
380 3.95353
385 9.80622
390 17.14
395 17.6861
400 16.2908
405 15.6076
410 19.6927
415 21.6518
420 21.6713
425 19.4799
430 18.0134
435 18.252
440 18.2415
445 17.9697
450 16.2686
455 14.6525
460 13.4212
465 12.9949
470 11.6554
475 10.7976
480 9.70555
485 8.72123
490 8.02057
495 7.22661
500 6.27849
505 5.7598
510 5.06179
515 5.02373
520 4.15668
525 3.72436
530 3.12168
535 3.02604
540 2.70347
545 2.3689
550 2.15189
555 1.87948
560 1.9031
565 1.64672
570 1.60566
575 1.47933
580 1.11077
585 0.849296
590 0.866431
595 0.806295
600 1.4641
Ex : 358
200 0.386539
205 0.346749
210 0.396419
215 0.341532
220 0.378842
225 0.375606
230 0.356305
235 0.3543
240 0.375528
245 0.42461
250 0.352832
255 0.544718
260 0.398934
265 0.313827
270 0.358504
275 0.429842
280 0.333964
285 0.328496
290 0.378108
295 0.389413
300 0.412924
305 0.39896
310 0.418271
315 0.488037
320 0.510964
325 0.532821
330 0.510148
335 0.688969
340 1.01514
345 15.6516
350 239.257
355 362.789
360 91.5478
365 12.6138
370 3.55767
375 3.08777
380 3.93489
385 6.87671
390 12.5069
395 17.2913
400 16.8873
405 15.8707
410 18.1846
415 21.0977
420 21.1162
425 18.9646
430 18.3221
435 17.8641
440 18.8427
445 18.0118
450 16.7446
455 14.9455
460 13.0647
465 12.9705
470 12.1099
475 11.0358
480 10.1625
485 9.09083
490 8.34101
495 7.60356
500 6.64969
505 5.89737
510 5.44973
515 5.05536
520 4.19906
525 3.97809
530 3.45134
535 3.01078
540 2.62621
545 2.53552
550 2.3047
555 2.02795
560 1.81561
565 1.60848
570 1.34253
575 1.37547
580 1.11911
585 0.894049
590 0.893816
595 0.843822
600 1.16705
Ex : 363
200 0.444039
205 0.40338
210 0.303635
215 0.383992
220 0.405395
225 0.304609
230 0.365033
235 0.383097
240 0.383161
245 0.382786
250 0.354828
255 0.414473
260 0.306249
265 0.346527
270 0.345669
275 0.365409
280 0.327813
285 0.4613
290 0.39394
295 0.326597
300 0.370959
305 0.389427
310 0.449798
315 0.310743
320 0.36678
325 0.447104
330 0.487223
335 0.510213
340 0.621265
345 0.834438
350 15.21
355 232.962
360 360.239
365 95.8247
370 13.0557
375 3.8714
380 4.92519
385 8.49928
390 12.3292
395 14.8688
400 17.2615
405 19.7986
410 22.0836
415 24.2852
420 23.6044
425 21.4736
430 20.2957
435 20.4488
440 20.8963
445 20.2963
450 18.7424
455 17.1772
460 15.2986
465 14.5575
470 13.3296
475 12.3222
480 11.0424
485 10.4939
490 9.219
495 8.12218
500 7.39103
505 6.70638
510 6.01109
515 5.24487
520 4.74795
525 3.97742
530 3.46055
535 3.2056
540 2.92277
545 2.49973
550 2.28699
555 2.16565
560 1.79088
565 1.70243
570 1.62769
575 1.24437
580 1.05662
585 1.00623
590 0.720296
595 0.646327
600 1.10598
Ex : 368
200 0.272727
205 0.315901
210 0.318687
215 0.333239
220 0.350056
225 0.31863
230 0.317219
235 0.276837
240 0.349314
245 0.336761
250 0.285688
255 0.260369
260 0.321461
265 0.387339
270 0.368976
275 0.338869
280 0.33997
285 0.334973
290 0.261759
295 0.311105
300 0.401855
305 0.414998
310 0.445737
315 0.35929
320 0.316313
325 0.370526
330 0.397919
335 0.403077
340 0.548389
345 0.635703
350 0.846656
355 12.3049
360 224.512
365 364.46
370 97.7425
375 13.4333
380 6.02132
385 9.83868
390 15.9872
395 18.5035
400 18.1672
405 21.8076
410 28.9697
415 32.3914
420 30.8859
425 26.4381
430 24.826
435 25.0241
440 25.8301
445 25.2472
450 22.9937
455 20.533
460 18.4676
465 17.1519
470 15.8304
475 15.0837
480 13.0178
485 11.3654
490 10.4956
495 9.03682
500 8.42579
505 7.52331
510 6.73834
515 5.71213
520 5.29293
525 4.35038
530 4.07461
535 3.49387
540 3.05777
545 2.83611
550 2.61861
555 2.50422
560 1.91524
565 1.73009
570 1.50607
575 1.23057
580 1.06499
585 0.892192
590 0.779918
595 0.708114
600 0.863737
Ex : 373
200 0.413096
205 0.340891
210 0.332123
215 0.297874
220 0.290427
225 0.286905
230 0.360666
235 0.308054
240 0.349938
245 0.353821
250 0.302915
255 0.28167
260 0.237547
265 0.291184
270 0.226182
275 0.310803
280 0.317207
285 0.294503
290 0.316613
295 0.386744
300 0.356353
305 0.333445
310 0.356878
315 0.281128
320 0.319158
325 0.360647
330 0.369143
335 0.402397
340 0.489126
345 0.386763
350 0.551092
355 0.986722
360 14.4658
365 228.739
370 366.795
375 97.7636
380 14.5469
385 8.93869
390 15.117
395 19.1737
400 17.8407
405 18.0409
410 24.1969
415 31.6074
420 31.5279
425 27.4356
430 23.6438
435 23.41
440 24.3269
445 24.0361
450 21.4478
455 18.872
460 16.6305
465 15.6163
470 15.2693
475 14.025
480 12.5257
485 11.2628
490 9.71092
495 8.77923
500 7.79115
505 7.3584
510 6.12299
515 5.51665
520 5.02265
525 4.1231
530 3.77749
535 3.45502
540 3.29578
545 2.56777
550 2.46173
555 2.18153
560 2.07509
565 1.92449
570 1.50976
575 1.17702
580 1.04369
585 0.923508
590 0.708865
595 0.644969
600 0.479409
Ex : 378
200 0.312085
205 0.270246
210 0.331937
215 0.262199
220 0.29728
225 0.31338
230 0.293254
235 0.377814
240 0.304485
245 0.337255
250 0.306752
255 0.269929
260 0.298981
265 0.261633
270 0.22038
275 0.271982
280 0.269337
285 0.323898
290 0.234317
295 0.228102
300 0.296604
305 0.321821
310 0.263838
315 0.271659
320 0.353323
325 0.330073
330 0.362398
335 0.3805
340 0.423
345 0.409608
350 0.496196
355 0.582767
360 0.793961
365 13.4442
370 227.33
375 368.035
380 100.384
385 17.5356
390 11.7399
395 14.2993
400 13.1545
405 13.6728
410 17.5694
415 22.477
420 26.1193
425 23.2947
430 20.5564
435 19.7004
440 19.9628
445 19.9731
450 18.002
455 15.8514
460 14.5386
465 14.0255
470 12.7075
475 12.2263
480 11.4401
485 10.003
490 9.00998
495 8.09111
500 7.07346
505 6.46878
510 5.99401
515 5.25998
520 4.45855
525 4.18647
530 3.5873
535 3.28735
540 3.08112
545 2.80278
550 2.43289
555 2.06275
560 1.80674
565 1.86105
570 1.42122
575 1.16717
580 1.04973
585 0.863662
590 0.692914
595 0.64352
600 1.00022
Ex : 383
200 0.225164
205 0.337067
210 0.277112
215 0.266155
220 0.303818
225 0.302442
230 0.25567
235 0.216685
240 0.322047
245 0.344815
250 0.322519
255 0.257621
260 0.315862
265 0.316374
270 0.291232
275 0.292136
280 0.365443
285 0.222204
290 0.346007
295 0.308438
300 0.313428
305 0.339127
310 0.281176
315 0.279606
320 0.354282
325 0.306447
330 0.394039
335 0.344934
340 0.308427
345 0.412191
350 0.418905
355 0.459004
360 0.575025
365 0.702268
370 12.4123
375 225.146
380 384.428
385 108.185
390 22.689
395 13.5296
400 12.201
405 14.2425
410 18.5398
415 22.4827
420 23.2341
425 22.9521
430 22.1207
435 21.9205
440 22.0197
445 21.3332
450 19.1627
455 17.2713
460 15.5707
465 14.4802
470 13.7781
475 12.9454
480 11.5595
485 10.1834
490 9.07518
495 8.62332
500 7.67203
505 6.83431
510 6.05649
515 5.25138
520 4.7198
525 3.99601
530 3.85703
535 3.50136
540 3.20022
545 2.62607
550 2.35099
555 2.10606
560 2.052
565 1.72072
570 1.49505
575 1.16724
580 1.12223
585 0.875208
590 0.730806
595 0.677822
600 0.52549
Ex : 388
200 0.320977
205 0.302232
210 0.26657
215 0.220856
220 0.288757
225 0.24299
230 0.293258
235 0.24713
240 0.249918
245 0.355415
250 0.290982
255 0.251278
260 0.306662
265 0.28619
270 0.275423
275 0.245265
280 0.267511
285 0.386198
290 0.355794
295 0.263404
300 0.362046
305 0.215168
310 0.340893
315 0.312335
320 0.302514
325 0.360737
330 0.324704
335 0.300339
340 0.298601
345 0.347531
350 0.416422
355 0.398455
360 0.447993
365 0.606415
370 0.892639
375 13.1348
380 232.07
385 386.255
390 112.834
395 27.1018
400 15.8687
405 16.4432
410 22.7135
415 27.1364
420 27.4047
425 23.9128
430 24.2914
435 25.5141
440 26.3029
445 24.9079
450 22.0441
455 19.6459
460 17.8661
465 16.5263
470 15.6386
475 14.1619
480 12.855
485 11.4436
490 10.2187
495 8.98916
500 7.96988
505 7.32475
510 6.54886
515 5.65416
520 5.25393
525 4.31816
530 3.78667
535 3.65804
540 3.12184
545 2.94733
550 2.46209
555 2.12371
560 1.8808
565 1.66074
570 1.60076
575 1.40886
580 1.06994
585 0.847067
590 0.767391
595 0.681951
600 0.524088
Ex : 393
200 0.285201
205 0.235016
210 0.251593
215 0.337448
220 0.268003
225 0.289452
230 0.350077
235 0.234226
240 0.245726
245 0.228796
250 0.22453
255 0.303618
260 0.203255
265 0.261368
270 0.286818
275 0.23723
280 0.223844
285 0.269179
290 0.256789
295 0.268932
300 0.300794
305 0.328754
310 0.264655
315 0.291327
320 0.299005
325 0.277567
330 0.307411
335 0.311013
340 0.33221
345 0.345538
350 0.376724
355 0.410671
360 0.39385
365 0.48588
370 0.514599
375 0.82469
380 12.7716
385 230.936
390 396.49
395 119.687
400 27.6812
405 17.0494
410 20.6262
415 26.5547
420 27.4345
425 24.2083
430 21.3855
435 22.6216
440 26.2639
445 24.8416
450 21.6958
455 19.2794
460 16.3305
465 14.6491
470 14.261
475 13.3684
480 12.1911
485 10.7767
490 9.13546
495 8.44325
500 7.45961
505 6.83522
510 6.23022
515 5.25139
520 4.88448
525 4.32207
530 3.7361
535 3.29741
540 2.86083
545 2.73697
550 2.34459
555 2.12208
560 1.85433
565 1.73451
570 1.38508
575 1.14966
580 1.04028
585 0.789246
590 0.693026
595 0.625804
600 0.216493
Ex : 398
200 0.264749
205 0.220179
210 0.20603
215 0.207412
220 0.240217
225 0.221399
230 0.229397
235 0.278397
240 0.223589
245 0.24599
250 0.286885
255 0.243161
260 0.271092
265 0.271255
270 0.204877
275 0.231794
280 0.229905
285 0.202908
290 0.196224
295 0.279818
300 0.252862
305 0.29741
310 0.24824
315 0.304012
320 0.285117
325 0.276044
330 0.236274
335 0.29291
340 0.357171
345 0.286337
350 0.346824
355 0.322798
360 0.382878
365 0.343731
370 0.430059
375 0.714816
380 0.942042
385 13.5848
390 239.091
395 403.387
400 113.871
405 22.2913
410 14.3141
415 17.425
420 18.6361
425 16.7154
430 14.7643
435 14.9724
440 16.9582
445 19.236
450 17.7571
455 14.4362
460 12.5282
465 11.4696
470 11.0677
475 10.3111
480 9.63179
485 8.30123
490 7.76905
495 6.86237
500 6.41864
505 5.75424
510 5.10387
515 4.68248
520 3.9101
525 3.70238
530 3.20897
535 3.04062
540 2.80051
545 2.41131
550 2.27888
555 1.97502
560 1.70401
565 1.50003
570 1.31012
575 1.12636
580 0.953176
585 0.792489
590 0.639357
595 0.619582
600 0.60834
Ex : 403
200 0.198335
205 0.209656
210 0.217483
215 0.252583
220 0.27454
225 0.236794
230 0.222643
235 0.246924
240 0.216137
245 0.215548
250 0.272486
255 0.309028
260 0.242566
265 0.252409
270 0.258798
275 0.25475
280 0.241154
285 0.253398
290 0.23
295 0.305295
300 0.241449
305 0.240374
310 0.261592
315 0.292522
320 0.233486
325 0.231621
330 0.305074
335 0.280651
340 0.251942
345 0.274854
350 0.322006
355 0.333176
360 0.331739
365 0.311509
370 0.346754
375 0.439744
380 0.670127
385 1.14632
390 15.5669
395 242.342
400 393.273
405 109.474
410 20.0218
415 12.5653
420 12.6575
425 12.0508
430 11.4222
435 11.8358
440 13.0177
445 13.6157
450 14.6161
455 14.0562
460 11.8508
465 10.9222
470 10.1824
475 9.25151
480 8.75536
485 7.93136
490 7.20189
495 6.45563
500 5.95212
505 5.75894
510 4.64484
515 4.46436
520 3.94575
525 3.56875
530 3.15405
535 2.92539
540 2.38603
545 2.34717
550 2.17808
555 1.77849
560 1.83758
565 1.56936
570 1.28612
575 1.09837
580 0.893226
585 0.805973
590 0.655538
595 0.522305
600 0.766547
Ex : 408
200 0.29789
205 0.294792
210 0.244568
215 0.240455
220 0.192475
225 0.266426
230 0.226852
235 0.262893
240 0.28937
245 0.229383
250 0.252266
255 0.261087
260 0.220848
265 0.249244
270 0.209452
275 0.226293
280 0.213388
285 0.254017
290 0.282253
295 0.221118
300 0.280684
305 0.25629
310 0.275642
315 0.274017
320 0.286269
325 0.272622
330 0.318613
335 0.305653
340 0.304035
345 0.317331
350 0.27645
355 0.360742
360 0.327124
365 0.337966
370 0.383176
375 0.412654
380 0.436293
385 0.547817
390 0.997785
395 13.9362
400 244.234
405 400.404
410 110.903
415 23.1936
420 13.6497
425 11.8779
430 11.8157
435 12.4968
440 13.966
445 14.4645
450 13.9698
455 13.9583
460 14.3818
465 12.7126
470 11.5719
475 10.8986
480 9.45194
485 8.38083
490 7.4333
495 6.93253
500 6.20693
505 5.70687
510 5.16174
515 4.60228
520 4.09683
525 3.71474
530 3.23395
535 2.86413
540 2.57452
545 2.48566
550 2.18967
555 1.89822
560 1.79905
565 1.54583
570 1.18414
575 1.09871
580 0.873998
585 0.739738
590 0.65176
595 0.596412
600 0.189684
Ex : 413
200 0.230135
205 0.249733
210 0.229151
215 0.262809
220 0.250724
225 0.249867
230 0.215896
235 0.243467
240 0.230979
245 0.226882
250 0.20079
255 0.270002
260 0.218566
265 0.265213
270 0.305945
275 0.233916
280 0.264346
285 0.24565
290 0.206056
295 0.267997
300 0.255047
305 0.276343
310 0.219741
315 0.270491
320 0.28179
325 0.236945
330 0.239403
335 0.284375
340 0.246115
345 0.226679
350 0.299195
355 0.315304
360 0.271313
365 0.283584
370 0.372234
375 0.380727
380 0.410751
385 0.459328
390 0.672462
395 0.984093
400 15.2941
405 249.527
410 406.999
415 112.716
420 23.3446
425 11.9836
430 10.5085
435 11.6095
440 12.9679
445 12.6048
450 12.2632
455 11.1728
460 11.3308
465 12.8734
470 11.3494
475 10.0654
480 9.05954
485 7.96774
490 6.92464
495 6.23065
500 5.9535
505 5.31969
510 4.6146
515 4.10147
520 3.78668
525 3.49364
530 2.98873
535 2.83698
540 2.48358
545 2.18735
550 1.95075
555 1.8349
560 1.642
565 1.31893
570 1.19117
575 1.04164
580 0.774356
585 0.679184
590 0.590698
595 0.557671
600 0.533508
Ex : 418
200 0.243081
205 0.221435
210 0.227798
215 0.221142
220 0.248102
225 0.187853
230 0.212459
235 0.207271
240 0.246587
245 0.230055
250 0.257187
255 0.245155
260 0.262721
265 0.265198
270 0.255417
275 0.245989
280 0.296447
285 0.244996
290 0.224892
295 0.270218
300 0.227093
305 0.268334
310 0.246532
315 0.186854
320 0.229677
325 0.278476
330 0.330694
335 0.253277
340 0.314061
345 0.228491
350 0.236059
355 0.264869
360 0.264246
365 0.332143
370 0.347688
375 0.293061
380 0.355999
385 0.35723
390 0.431534
395 0.655338
400 0.970667
405 15.5332
410 259.299
415 421.487
420 114.849
425 18.6906
430 7.66297
435 6.87933
440 7.69822
445 7.83758
450 7.33049
455 6.46941
460 6.26357
465 6.70978
470 8.28421
475 7.98159
480 6.7085
485 6.15126
490 5.14772
495 4.50737
500 4.50137
505 3.83302
510 3.59302
515 3.36665
520 3.09811
525 2.80326
530 2.70327
535 2.24934
540 2.18741
545 2.04196
550 1.87928
555 1.61595
560 1.44453
565 1.3014
570 1.12097
575 0.964831
580 0.84298
585 0.620796
590 0.53935
595 0.469492
600 0.426408
Ex : 423
200 0.20816
205 0.229107
210 0.242362
215 0.203321
220 0.197244
225 0.242876
230 0.234681
235 0.180981
240 0.257618
245 0.213522
250 0.192985
255 0.239005
260 0.234372
265 0.182928
270 0.27694
275 0.253752
280 0.277515
285 0.220776
290 0.26316
295 0.223955
300 0.245362
305 0.234326
310 0.256842
315 0.265549
320 0.206145
325 0.273947
330 0.272237
335 0.217475
340 0.260222
345 0.357406
350 0.234702
355 0.243984
360 0.274938
365 0.247097
370 0.309227
375 0.341235
380 0.325854
385 0.40976
390 0.406529
395 0.391794
400 0.620123
405 1.03897
410 15.8017
415 258.747
420 405.476
425 104.584
430 14.7829
435 4.69616
440 3.57655
445 3.94336
450 3.74072
455 3.55603
460 3.34013
465 3.49623
470 3.73056
475 5.4448
480 6.09735
485 4.6911
490 4.01353
495 3.76971
500 3.33049
505 2.97998
510 3.00829
515 2.72433
520 2.63316
525 2.28129
530 2.281
535 2.13079
540 1.98324
545 1.89691
550 1.6232
555 1.48719
560 1.20405
565 1.16082
570 1.03088
575 0.89542
580 0.856904
585 0.665299
590 0.523449
595 0.439578
600 0.595154
Ex : 428
200 0.256064
205 0.300578
210 0.235217
215 0.225116
220 0.26259
225 0.216055
230 0.254541
235 0.275719
240 0.239869
245 0.193647
250 0.266605
255 0.204608
260 0.215054
265 0.219631
270 0.208193
275 0.221314
280 0.209608
285 0.23382
290 0.197886
295 0.259863
300 0.322477
305 0.296251
310 0.2379
315 0.22157
320 0.205509
325 0.281446
330 0.238467
335 0.189718
340 0.361804
345 0.294159
350 0.323144
355 0.30153
360 0.282527
365 0.357982
370 0.335377
375 0.298167
380 0.292783
385 0.28866
390 0.367743
395 0.413599
400 0.413628
405 0.604971
410 1.14051
415 16.1864
420 269.643
425 425.473
430 111.232
435 14.7913
440 3.58302
445 2.36161
450 2.63883
455 2.51205
460 2.2452
465 2.31638
470 2.34277
475 2.61492
480 4.12063
485 5.15996
490 4.18453
495 3.36744
500 3.09191
505 2.69583
510 2.44056
515 2.44169
520 2.31219
525 2.23374
530 1.9544
535 1.85329
540 1.70733
545 1.57105
550 1.57154
555 1.39801
560 1.28192
565 1.13399
570 1.01518
575 0.853143
580 0.679257
585 0.633194
590 0.537714
595 0.591972
600 0.556716
Ex : 433
200 0.214355
205 0.243512
210 0.213779
215 0.279376
220 0.193636
225 0.242127
230 0.253377
235 0.221587
240 0.233356
245 0.248954
250 0.180646
255 0.242415
260 0.244164
265 0.237385
270 0.243858
275 0.270733
280 0.271618
285 0.278842
290 0.247493
295 0.220455
300 0.19335
305 0.217955
310 0.264127
315 0.283196
320 0.326542
325 0.26687
330 0.294417
335 0.270305
340 0.322114
345 0.317062
350 0.28824
355 0.329235
360 0.266491
365 0.31029
370 0.266707
375 0.319186
380 0.429507
385 0.333668
390 0.333252
395 0.362578
400 0.368868
405 0.562615
410 0.687611
415 0.923497
420 17.6044
425 292.568
430 439.933
435 110.579
440 14.4391
445 3.07866
450 1.90803
455 2.12806
460 2.29851
465 2.11267
470 1.85717
475 1.95884
480 2.30036
485 2.94513
490 4.67905
495 4.24533
500 3.12756
505 2.84412
510 2.60261
515 2.26804
520 1.98816
525 1.9518
530 1.84563
535 1.75453
540 1.72554
545 1.67795
550 1.42234
555 1.2883
560 1.33439
565 1.16325
570 1.10342
575 0.84432
580 0.674497
585 0.633855
590 0.601527
595 0.472105
600 0.179895
Ex : 438
200 0.267421
205 0.300855
210 0.207234
215 0.209105
220 0.267317
225 0.188573
230 0.221089
235 0.21351
240 0.222149
245 0.218956
250 0.227053
255 0.298813
260 0.21433
265 0.25377
270 0.238082
275 0.223072
280 0.237111
285 0.231844
290 0.248489
295 0.262951
300 0.321532
305 0.217613
310 0.28765
315 0.250794
320 0.24304
325 0.23781
330 0.236456
335 0.273481
340 0.292055
345 0.258432
350 0.283009
355 0.262504
360 0.254954
365 0.268597
370 0.250705
375 0.317021
380 0.280884
385 0.328054
390 0.326924
395 0.372787
400 0.34517
405 0.41682
410 0.451421
415 0.53515
420 0.791731
425 17.0411
430 288.812
435 463.028
440 116.439
445 15.0228
450 3.18818
455 1.68836
460 2.00924
465 2.23074
470 1.90341
475 1.78313
480 1.86136
485 1.88002
490 2.47358
495 4.07836
500 4.33774
505 3.14098
510 2.52844
515 2.34927
520 2.15642
525 1.90926
530 1.88437
535 1.63869
540 1.60736
545 1.51079
550 1.32598
555 1.30137
560 1.19921
565 1.1198
570 0.962522
575 0.880329
580 0.811351
585 0.694362
590 0.557841
595 0.488065
600 0.456727
Ex : 443
200 0.167417
205 0.248637
210 0.206111
215 0.275976
220 0.328179
225 0.277867
230 0.246894
235 0.192818
240 0.249192
245 0.252596
250 0.246755
255 0.278793
260 0.23513
265 0.252188
270 0.285784
275 0.256903
280 0.215473
285 0.303946
290 0.214891
295 0.277737
300 0.26299
305 0.308296
310 0.262226
315 0.279273
320 0.203605
325 0.226119
330 0.277154
335 0.21346
340 0.323715
345 0.240846
350 0.248922
355 0.293194
360 0.312168
365 0.360349
370 0.335063
375 0.226
380 0.255863
385 0.29005
390 0.290877
395 0.281747
400 0.384501
405 0.383805
410 0.409632
415 0.595282
420 0.639488
425 0.855621
430 18.7547
435 313.901
440 481.079
445 120.025
450 15.194
455 3.26896
460 1.68809
465 1.83413
470 2.17973
475 2.03849
480 1.77385
485 1.67192
490 1.96396
495 2.0529
500 3.32142
505 4.57959
510 3.35017
515 2.5553
520 2.3589
525 2.0986
530 1.85454
535 1.6919
540 1.65584
545 1.36803
550 1.49069
555 1.21803
560 1.27853
565 1.11349
570 1.01659
575 0.942996
580 0.746195
585 0.627131
590 0.633429
595 0.493789
600 0.716323
Ex : 448
200 0.282691
205 0.210346
210 0.191822
215 0.265898
220 0.307332
225 0.210962
230 0.196669
235 0.23255
240 0.269537
245 0.248215
250 0.225492
255 0.217445
260 0.198555
265 0.196087
270 0.249848
275 0.223791
280 0.266564
285 0.244195
290 0.247232
295 0.22094
300 0.309706
305 0.238802
310 0.24842
315 0.281655
320 0.268482
325 0.275307
330 0.285246
335 0.238885
340 0.347917
345 0.294189
350 0.30791
355 0.331611
360 0.290916
365 0.236885
370 0.415191
375 0.252837
380 0.261359
385 0.363066
390 0.367739
395 0.277108
400 0.381735
405 0.334462
410 0.51134
415 0.473994
420 0.489483
425 0.564849
430 0.827857
435 20.292
440 335.753
445 506.445
450 125.454
455 15.8748
460 3.34947
465 1.81023
470 1.77032
475 2.10187
480 1.9198
485 1.7139
490 1.82443
495 1.65419
500 1.93634
505 2.69839
510 4.21572
515 3.35277
520 2.34945
525 2.22494
530 2.10593
535 1.67223
540 1.58104
545 1.47345
550 1.33476
555 1.328
560 1.27503
565 1.11285
570 0.991174
575 0.891487
580 0.804307
585 0.683507
590 0.689738
595 0.55274
600 0.605961
Ex : 453
200 0.229428
205 0.22413
210 0.27268
215 0.221794
220 0.251516
225 0.240919
230 0.290726
235 0.247188
240 0.248503
245 0.303788
250 0.227693
255 0.252178
260 0.245839
265 0.198287
270 0.23712
275 0.242096
280 0.329217
285 0.213083
290 0.232607
295 0.247088
300 0.268221
305 0.286092
310 0.214656
315 0.244585
320 0.243403
325 0.269798
330 0.333708
335 0.304376
340 0.283784
345 0.260054
350 0.287948
355 0.293628
360 0.30919
365 0.296147
370 0.29525
375 0.304339
380 0.320844
385 0.311797
390 0.310557
395 0.342208
400 0.290489
405 0.339678
410 0.350997
415 0.315398
420 0.366159
425 0.374198
430 0.560871
435 0.902456
440 21.0668
445 362.459
450 530.409
455 124.432
460 15.8427
465 3.42098
470 1.77423
475 1.71281
480 2.03257
485 2.016
490 1.84163
495 1.68277
500 1.56479
505 1.74619
510 2.28445
515 3.44084
520 3.57994
525 2.59398
530 2.22067
535 2.12085
540 1.72888
545 1.5462
550 1.34964
555 1.41714
560 1.24245
565 1.12639
570 1.04215
575 0.918378
580 0.820964
585 0.664145
590 0.556382
595 0.548549
600 0.398667
Ex : 458
200 0.211117
205 0.231787
210 0.279962
215 0.23156
220 0.229211
225 0.306514
230 0.330445
235 0.244227
240 0.255766
245 0.209887
250 0.284962
255 0.252959
260 0.237964
265 0.266453
270 0.318278
275 0.261127
280 0.251459
285 0.250693
290 0.25813
295 0.235277
300 0.214467
305 0.241676
310 0.271453
315 0.200592
320 0.252136
325 0.28524
330 0.222555
335 0.205491
340 0.288177
345 0.273691
350 0.295613
355 0.237997
360 0.26894
365 0.227764
370 0.257636
375 0.349233
380 0.286823
385 0.277561
390 0.296998
395 0.31492
400 0.311224
405 0.334629
410 0.371918
415 0.319676
420 0.405267
425 0.419249
430 0.527316
435 0.675447
440 1.01204
445 24.0889
450 376.641
455 549.996
460 132.645
465 17.0195
470 3.512
475 1.69441
480 1.66949
485 1.91683
490 1.84552
495 1.71202
500 1.64401
505 1.64763
510 1.62977
515 1.82898
520 3.0314
525 3.77424
530 2.71277
535 2.15551
540 1.99418
545 1.66004
550 1.47276
555 1.31159
560 1.28627
565 1.12283
570 1.03184
575 0.89109
580 0.792926
585 0.667973
590 0.622512
595 0.545692
600 0.0707859
Ex : 463
200 0.236373
205 0.223906
210 0.202563
215 0.24888
220 0.20187
225 0.279324
230 0.237132
235 0.220411
240 0.22417
245 0.218917
250 0.231283
255 0.199989
260 0.19407
265 0.254118
270 0.235406
275 0.264191
280 0.268051
285 0.266868
290 0.203644
295 0.19949
300 0.204265
305 0.263909
310 0.227913
315 0.249098
320 0.226805
325 0.226464
330 0.243971
335 0.264377
340 0.275655
345 0.241083
350 0.338976
355 0.254495
360 0.261466
365 0.24495
370 0.247368
375 0.306398
380 0.329761
385 0.275476
390 0.271513
395 0.300207
400 0.268436
405 0.351589
410 0.283046
415 0.28698
420 0.299666
425 0.340397
430 0.446592
435 0.459858
440 0.599818
445 0.867959
450 22.994
455 396.84
460 606.625
465 146.459
470 18.5278
475 3.63031
480 1.82204
485 1.52125
490 1.76171
495 1.90245
500 1.76708
505 1.38901
510 1.61255
515 1.54741
520 1.64773
525 2.49351
530 3.51681
535 3.00139
540 2.15162
545 1.93628
550 1.67168
555 1.30799
560 1.35129
565 1.20482
570 1.12788
575 0.863415
580 0.827995
585 0.751483
590 0.658981
595 0.510378
600 0.315188
Ex : 468
200 0.200158
205 0.170704
210 0.214715
215 0.193805
220 0.216545
225 0.227482
230 0.215974
235 0.211004
240 0.237352
245 0.221191
250 0.237994
255 0.198918
260 0.169766
265 0.247468
270 0.210772
275 0.232841
280 0.231341
285 0.251276
290 0.207827
295 0.21712
300 0.177023
305 0.159882
310 0.274981
315 0.255453
320 0.195621
325 0.211209
330 0.236199
335 0.191855
340 0.204421
345 0.22219
350 0.253039
355 0.201294
360 0.230514
365 0.237965
370 0.229697
375 0.244179
380 0.294603
385 0.20253
390 0.294188
395 0.303351
400 0.253028
405 0.263704
410 0.299581
415 0.275628
420 0.247679
425 0.336938
430 0.340627
435 0.351785
440 0.472697
445 0.603208
450 0.88204
455 26.0519
460 399.259
465 626.611
470 150.948
475 18.7641
480 3.67339
485 1.71542
490 1.5354
495 1.82914
500 1.78763
505 1.66287
510 1.50589
515 1.50863
520 1.56865
525 1.62799
530 2.01909
535 3.00765
540 3.19164
545 2.16386
550 1.87508
555 1.79187
560 1.51341
565 1.13357
570 1.00224
575 0.865511
580 0.766942
585 0.72692
590 0.588114
595 0.593746
600 0.271885
Ex : 473
200 0.24914
205 0.243132
210 0.227396
215 0.224084
220 0.208695
225 0.219671
230 0.21348
235 0.249168
240 0.209676
245 0.221903
250 0.246975
255 0.213214
260 0.252752
265 0.230828
270 0.257041
275 0.226909
280 0.246166
285 0.210686
290 0.243659
295 0.22153
300 0.217862
305 0.244378
310 0.238974
315 0.2361
320 0.184696
325 0.271626
330 0.277169
335 0.237551
340 0.255487
345 0.266962
350 0.210283
355 0.215938
360 0.244253
365 0.240118
370 0.253353
375 0.288741
380 0.241538
385 0.304335
390 0.287932
395 0.275553
400 0.248504
405 0.274878
410 0.332297
415 0.346685
420 0.352476
425 0.308823
430 0.327788
435 0.300985
440 0.448754
445 0.517794
450 0.606594
455 1.00056
460 29.1274
465 441.786
470 615.759
475 142.145
480 17.7788
485 3.34221
490 1.72219
495 1.49953
500 1.80963
505 1.76634
510 1.66138
515 1.43362
520 1.52175
525 1.63653
530 1.67654
535 1.89324
540 2.765
545 3.03469
550 2.25616
555 1.81471
560 1.61403
565 1.34718
570 1.00772
575 0.955871
580 0.804585
585 0.776318
590 0.625431
595 0.51982
600 0.459625
Ex : 478
200 0.297786
205 0.25353
210 0.263009
215 0.287054
220 0.278896
225 0.267122
230 0.301331
235 0.311097
240 0.275316
245 0.290552
250 0.262222
255 0.250918
260 0.277881
265 0.30891
270 0.230175
275 0.350464
280 0.275045
285 0.308409
290 0.308916
295 0.245615
300 0.322745
305 0.323877
310 0.278789
315 0.30912
320 0.355119
325 0.280599
330 0.307446
335 0.275186
340 0.256732
345 0.267604
350 0.319465
355 0.257527
360 0.243399
365 0.250954
370 0.278267
375 0.335884
380 0.292795
385 0.410605
390 0.342253
395 0.349847
400 0.294987
405 0.391609
410 0.324048
415 0.320012
420 0.303979
425 0.340365
430 0.4219
435 0.366635
440 0.435088
445 0.536564
450 0.650091
455 0.757354
460 1.09408
465 32.8873
470 461.01
475 647.611
480 155.947
485 19.5241
490 3.86584
495 1.72841
500 1.44621
505 1.63734
510 1.74554
515 1.71317
520 1.59398
525 1.65191
530 1.76031
535 1.79548
540 1.61065
545 2.30389
550 2.97906
555 2.3919
560 1.69197
565 1.49714
570 1.36751
575 1.0644
580 0.869202
585 0.852049
590 0.703687
595 0.561821
600 0.44057
Ex : 483
200 0.314204
205 0.287043
210 0.27163
215 0.248244
220 0.275402
225 0.32397
230 0.231456
235 0.274317
240 0.23179
245 0.207039
250 0.260122
255 0.272511
260 0.332187
265 0.275172
270 0.29032
275 0.352972
280 0.287625
285 0.236252
290 0.275313
295 0.308771
300 0.285887
305 0.265504
310 0.348832
315 0.309195
320 0.261461
325 0.293721
330 0.272711
335 0.290739
340 0.298565
345 0.348734
350 0.351322
355 0.302477
360 0.384496
365 0.28163
370 0.29562
375 0.290783
380 0.288759
385 0.340625
390 0.251737
395 0.319006
400 0.309292
405 0.378991
410 0.354239
415 0.33981
420 0.392609
425 0.406919
430 0.318477
435 0.369251
440 0.362766
445 0.439852
450 0.552484
455 0.586884
460 0.808152
465 1.22083
470 25.9188
475 454.368
480 687.291
485 163.238
490 20.1394
495 3.72984
500 1.81154
505 1.49137
510 1.64086
515 1.80793
520 1.83626
525 1.67906
530 1.58941
535 1.56541
540 1.60209
545 1.77401
550 1.78544
555 2.7357
560 2.62777
565 1.9819
570 1.45784
575 1.30209
580 1.06931
585 0.809054
590 0.635056
595 0.616725
600 0.571215
Ex : 488
200 0.275078
205 0.253372
210 0.274123
215 0.305059
220 0.306103
225 0.339955
230 0.358874
235 0.328206
240 0.306234
245 0.302595
250 0.303096
255 0.324876
260 0.262068
265 0.389926
270 0.303443
275 0.37882
280 0.323954
285 0.326542
290 0.38973
295 0.333881
300 0.32438
305 0.29034
310 0.300875
315 0.26818
320 0.259888
325 0.312331
330 0.276069
335 0.33336
340 0.330556
345 0.31393
350 0.372228
355 0.382037
360 0.343681
365 0.295039
370 0.309807
375 0.323525
380 0.350789
385 0.336671
390 0.360832
395 0.378714
400 0.349714
405 0.283289
410 0.31447
415 0.390702
420 0.398726
425 0.455514
430 0.363644
435 0.50893
440 0.438519
445 0.445199
450 0.534413
455 0.488868
460 0.662082
465 0.811846
470 1.17116
475 32.8908
480 496.433
485 692.505
490 163.132
495 20.3022
500 3.81233
505 1.85086
510 1.53053
515 1.72068
520 1.75138
525 1.87642
530 1.73238
535 1.61711
540 1.5542
545 1.47983
550 1.57689
555 1.59312
560 2.06932
565 2.53056
570 1.83527
575 1.26889
580 1.20886
585 0.963008
590 0.757806
595 0.69902
600 0.457867
Ex : 493
200 0.380504
205 0.255766
210 0.313232
215 0.356178
220 0.25094
225 0.342316
230 0.321611
235 0.279615
240 0.288208
245 0.337839
250 0.285206
255 0.277092
260 0.330937
265 0.292341
270 0.324958
275 0.350434
280 0.295346
285 0.328304
290 0.325382
295 0.26934
300 0.305732
305 0.286386
310 0.318585
315 0.339569
320 0.351939
325 0.374374
330 0.335432
335 0.312952
340 0.381862
345 0.268371
350 0.356757
355 0.287109
360 0.361889
365 0.410194
370 0.34167
375 0.268838
380 0.326808
385 0.364461
390 0.334035
395 0.338457
400 0.325027
405 0.346044
410 0.356474
415 0.262933
420 0.342024
425 0.33584
430 0.424121
435 0.417781
440 0.401141
445 0.374656
450 0.414189
455 0.421808
460 0.572992
465 0.682584
470 0.848854
475 1.21893
480 29.8841
485 491.426
490 721.196
495 164.916
500 20.4196
505 3.80545
510 1.82311
515 1.5342
520 1.59817
525 1.924
530 1.8703
535 1.9101
540 1.78785
545 1.42987
550 1.46565
555 1.39234
560 1.38889
565 1.59974
570 2.3457
575 1.85205
580 1.20882
585 0.986712
590 0.936998
595 0.776444
600 0.710729
Ex : 498
200 0.265724
205 0.315611
210 0.309553
215 0.395601
220 0.301475
225 0.361529
230 0.394203
235 0.363668
240 0.3006
245 0.380873
250 0.319553
255 0.325183
260 0.40816
265 0.27261
270 0.302355
275 0.322588
280 0.383752
285 0.351679
290 0.336535
295 0.445711
300 0.306516
305 0.312804
310 0.391845
315 0.308555
320 0.370264
325 0.285805
330 0.305654
335 0.257124
340 0.33712
345 0.27496
350 0.372875
355 0.363614
360 0.317084
365 0.350744
370 0.326122
375 0.385708
380 0.379579
385 0.389106
390 0.384827
395 0.309997
400 0.327182
405 0.25806
410 0.358696
415 0.433432
420 0.465126
425 0.341491
430 0.4131
435 0.414169
440 0.409391
445 0.428818
450 0.471851
455 0.471854
460 0.533077
465 0.60453
470 0.704728
475 0.740501
480 1.28743
485 35.0765
490 524.388
495 714.605
500 165.169
505 20.4321
510 3.90012
515 2.00443
520 1.69582
525 1.75842
530 1.85454
535 2.06921
540 1.69553
545 1.55081
550 1.54642
555 1.37528
560 1.28205
565 1.16227
570 1.32565
575 1.7169
580 1.80539
585 1.19832
590 0.903624
595 0.813828
600 0.975059
Ex : 503
200 0.331989
205 0.341302
210 0.316972
215 0.356478
220 0.37431
225 0.367413
230 0.317529
235 0.335361
240 0.336519
245 0.296858
250 0.375194
255 0.414225
260 0.346448
265 0.361299
270 0.305534
275 0.371711
280 0.313639
285 0.34382
290 0.380595
295 0.358475
300 0.342257
305 0.509186
310 0.374472
315 0.298096
320 0.338116
325 0.331306
330 0.297676
335 0.381132
340 0.321931
345 0.372408
350 0.36725
355 0.337576
360 0.374105
365 0.38973
370 0.370014
375 0.401
380 0.363308
385 0.386121
390 0.421618
395 0.332265
400 0.368617
405 0.378465
410 0.399208
415 0.363275
420 0.483016
425 0.33927
430 0.418642
435 0.415527
440 0.431754
445 0.436906
450 0.396531
455 0.46006
460 0.47104
465 0.538705
470 0.671889
475 0.653785
480 0.990953
485 1.26619
490 33.3055
495 532.701
500 733.705
505 167.217
510 20.9642
515 3.81609
520 2.0723
525 1.76997
530 1.61279
535 1.86811
540 1.7017
545 1.58063
550 1.52339
555 1.42268
560 1.30842
565 1.1536
570 1.16787
575 1.01394
580 1.38488
585 1.52147
590 1.26246
595 0.922901
600 0.919372
Ex : 508
200 0.412995
205 0.368822
210 0.482301
215 0.362876
220 0.325257
225 0.30468
230 0.366227
235 0.29602
240 0.33232
245 0.33335
250 0.281467
255 0.361398
260 0.318668
265 0.2933
270 0.356756
275 0.385804
280 0.297669
285 0.345459
290 0.337772
295 0.357904
300 0.385143
305 0.361661
310 0.383732
315 0.399883
320 0.405498
325 0.437122
330 0.383363
335 0.351154
340 0.348886
345 0.388164
350 0.356874
355 0.343739
360 0.335076
365 0.324367
370 0.346811
375 0.400036
380 0.359181
385 0.447367
390 0.383617
395 0.424303
400 0.52111
405 0.40014
410 0.459706
415 0.362455
420 0.45215
425 0.437907
430 0.424902
435 0.484399
440 0.434474
445 0.567193
450 0.416992
455 0.433862
460 0.493413
465 0.564064
470 0.560557
475 0.676307
480 0.739537
485 0.935692
490 1.27187
495 34.7222
500 524.888
505 736.22
510 176.216
515 21.9723
520 4.05213
525 2.11956
530 1.81691
535 1.74644
540 1.89835
545 1.79433
550 1.70113
555 1.29486
560 1.22392
565 1.25244
570 1.07135
575 1.08958
580 0.901269
585 1.06335
590 1.21769
595 1.28268
600 1.33173
Ex : 513
200 0.363595
205 0.367108
210 0.320989
215 0.369361
220 0.364869
225 0.360668
230 0.534583
235 0.41218
240 0.293242
245 0.297841
250 0.425394
255 0.367275
260 0.279594
265 0.277229
270 0.296063
275 0.329838
280 0.355174
285 0.408698
290 0.480364
295 0.325521
300 0.417629
305 0.387253
310 0.383314
315 0.327505
320 0.388233
325 0.439839
330 0.345962
335 0.459744
340 0.361606
345 0.381832
350 0.337124
355 0.363984
360 0.351197
365 0.428686
370 0.407967
375 0.377249
380 0.290941
385 0.395976
390 0.469609
395 0.522252
400 0.554491
405 0.414443
410 0.347434
415 0.46456
420 0.344914
425 0.496711
430 0.51757
435 0.631288
440 0.444525
445 0.611527
450 0.576239
455 0.488659
460 0.565961
465 0.517749
470 0.603659
475 0.569773
480 0.63305
485 0.80305
490 0.873531
495 1.29089
500 32.465
505 518.824
510 763.009
515 187.632
520 23.4823
525 4.37608
530 2.13025
535 1.74505
540 1.64105
545 1.76425
550 1.75529
555 1.4879
560 1.28977
565 1.26525
570 1.05856
575 1.0351
580 1.02872
585 0.906314
590 0.869727
595 1.04559
600 1.15857
Ex : 518
200 0.382497
205 0.410755
210 0.321498
215 0.326841
220 0.354575
225 0.382299
230 0.316674
235 0.337007
240 0.34689
245 0.274251
250 0.384022
255 0.362734
260 0.38962
265 0.455246
270 0.371966
275 0.477517
280 0.354337
285 0.325263
290 0.301407
295 0.357953
300 0.339797
305 0.395489
310 0.352528
315 0.471051
320 0.434598
325 0.443859
330 0.346886
335 0.445045
340 0.422934
345 0.386965
350 0.314536
355 0.446879
360 0.456951
365 0.428811
370 0.428003
375 0.399234
380 0.412528
385 0.398975
390 0.423898
395 0.416966
400 0.377916
405 0.45072
410 0.332445
415 0.409091
420 0.407754
425 0.451374
430 0.434924
435 0.505434
440 0.382252
445 0.440528
450 0.499559
455 0.456306
460 0.58346
465 0.523096
470 0.570617
475 0.530123
480 0.545646
485 0.705781
490 0.792406
495 0.916899
500 1.34278
505 33.8894
510 517.869
515 755.498
520 186.781
525 23.3197
530 4.38232
535 1.99989
540 1.62427
545 1.54801
550 1.4288
555 1.30522
560 1.48395
565 1.38834
570 0.946293
575 1.05883
580 0.979144
585 0.936024
590 0.878731
595 0.796217
600 1.51114
Ex : 523
200 0.383642
205 0.349785
210 0.396841
215 0.362937
220 0.377562
225 0.369547
230 0.451605
235 0.464477
240 0.414305
245 0.405648
250 0.40705
255 0.334673
260 0.390864
265 0.393449
270 0.349934
275 0.401634
280 0.540604
285 0.304854
290 0.310545
295 0.404375
300 0.438306
305 0.476612
310 0.451597
315 0.390865
320 0.414205
325 0.420234
330 0.402935
335 0.4105
340 0.346739
345 0.437949
350 0.503402
355 0.492568
360 0.462549
365 0.3041
370 0.442937
375 0.37466
380 0.368892
385 0.37993
390 0.444193
395 0.415398
400 0.510186
405 0.463058
410 0.570052
415 0.417159
420 0.366978
425 0.585096
430 0.440143
435 0.367343
440 0.468905
445 0.462592
450 0.39721
455 0.531379
460 0.373932
465 0.526426
470 0.492732
475 0.521439
480 0.574557
485 0.607023
490 0.763422
495 0.756672
500 0.884401
505 1.20804
510 30.7207
515 491.823
520 744.789
525 189.557
530 23.5922
535 4.37913
540 2.00412
545 1.66255
550 1.79579
555 1.51932
560 1.48807
565 1.27153
570 1.07792
575 1.03257
580 0.845051
585 0.928687
590 0.86975
595 0.747448
600 0.97126
Ex : 528
200 0.385794
205 0.303959
210 0.335746
215 0.374295
220 0.366966
225 0.374771
230 0.453624
235 0.407149
240 0.427266
245 0.427452
250 0.451341
255 0.37899
260 0.379666
265 0.353304
270 0.326163
275 0.478706
280 0.399221
285 0.361923
290 0.348599
295 0.454377
300 0.532505
305 0.487474
310 0.453567
315 0.498056
320 0.467939
325 0.343056
330 0.474029
335 0.455993
340 0.438047
345 0.432365
350 0.399197
355 0.419795
360 0.444063
365 0.450476
370 0.491967
375 0.501865
380 0.478619
385 0.414977
390 0.422432
395 0.386301
400 0.402082
405 0.394681
410 0.469827
415 0.430283
420 0.384767
425 0.44103
430 0.445948
435 0.431697
440 0.417803
445 0.423536
450 0.432403
455 0.47666
460 0.487309
465 0.429992
470 0.516166
475 0.411234
480 0.596724
485 0.537796
490 0.608352
495 0.636564
500 0.915288
505 0.959113
510 1.30892
515 29.7346
520 494.248
525 744.025
530 185.911
535 23.0239
540 4.13712
545 2.21153
550 1.68134
555 1.34514
560 1.28273
565 1.40949
570 1.13536
575 1.06993
580 0.833158
585 0.821502
590 0.749638
595 0.764244
600 1.29165
Ex : 533
200 0.317204
205 0.285363
210 0.402606
215 0.410994
220 0.403226
225 0.363173
230 0.34933
235 0.332932
240 0.425888
245 0.394841
250 0.518493
255 0.379844
260 0.419093
265 0.342749
270 0.331684
275 0.37243
280 0.476424
285 0.530039
290 0.414316
295 0.347321
300 0.356631
305 0.417985
310 0.377388
315 0.446804
320 0.515467
325 0.442424
330 0.452554
335 0.419098
340 0.370982
345 0.436619
350 0.434997
355 0.433262
360 0.498841
365 0.345778
370 0.432551
375 0.360694
380 0.445235
385 0.375718
390 0.393795
395 0.422663
400 0.316151
405 0.384417
410 0.592945
415 0.589076
420 0.473523
425 0.48301
430 0.434899
435 0.418885
440 0.48584
445 0.475243
450 0.44942
455 0.41246
460 0.457397
465 0.496584
470 0.413977
475 0.46675
480 0.500633
485 0.563093
490 0.56884
495 0.566929
500 0.69814
505 0.772666
510 1.0298
515 1.37038
520 28.7025
525 478.879
530 738.068
535 190.828
540 23.4718
545 4.14828
550 1.78752
555 1.33422
560 1.25071
565 1.25493
570 1.20302
575 1.08074
580 1.01642
585 0.91724
590 0.841794
595 0.788717
600 0.609916
Ex : 538
200 0.331785
205 0.332128
210 0.48993
215 0.413439
220 0.445447
225 0.415808
230 0.416349
235 0.423308
240 0.425812
245 0.501071
250 0.48037
255 0.429138
260 0.380716
265 0.462481
270 0.454393
275 0.443188
280 0.401262
285 0.43354
290 0.51404
295 0.49414
300 0.481552
305 0.535786
310 0.384285
315 0.374703
320 0.365089
325 0.494652
330 0.385123
335 0.439569
340 0.491696
345 0.371761
350 0.441819
355 0.358899
360 0.441769
365 0.438968
370 0.473748
375 0.454574
380 0.371849
385 0.327731
390 0.519448
395 0.392859
400 0.572867
405 0.432311
410 0.421594
415 0.490187
420 0.553511
425 0.449433
430 0.404407
435 0.435723
440 0.546812
445 0.521031
450 0.446961
455 0.449755
460 0.526534
465 0.450506
470 0.530311
475 0.532134
480 0.592158
485 0.668471
490 0.611216
495 0.58367
500 0.651055
505 0.653735
510 0.844891
515 1.0109
520 1.37782
525 23.9194
530 452.028
535 739.671
540 201.046
545 24.9061
550 4.33923
555 1.71511
560 1.33475
565 1.17934
570 1.08601
575 1.15627
580 1.07328
585 0.782853
590 0.750064
595 0.780007
600 0.167536
Ex : 543
200 0.471991
205 0.399079
210 0.524706
215 0.384948
220 0.392285
225 0.420921
230 0.491551
235 0.388052
240 0.434811
245 0.404571
250 0.385436
255 0.397539
260 0.432302
265 0.401887
270 0.346174
275 0.370989
280 0.594594
285 0.505496
290 0.525148
295 0.400486
300 0.331759
305 0.370049
310 0.403458
315 0.386639
320 0.443656
325 0.450421
330 0.439597
335 0.506705
340 0.466548
345 0.418113
350 0.458553
355 0.444861
360 0.421542
365 0.437473
370 0.470772
375 0.410991
380 0.552997
385 0.46958
390 0.429934
395 0.484512
400 0.458849
405 0.376837
410 0.434285
415 0.513789
420 0.488937
425 0.582495
430 0.439301
435 0.450345
440 0.48525
445 0.555123
450 0.437089
455 0.434052
460 0.480104
465 0.608024
470 0.567255
475 0.43819
480 0.60599
485 0.536323
490 0.488225
495 0.578875
500 0.525706
505 0.512446
510 0.598086
515 0.837998
520 0.913367
525 1.23024
530 22.7899
535 439.297
540 735.031
545 200.073
550 24.6721
555 4.28589
560 1.53473
565 1.42111
570 1.02126
575 0.871882
580 1.06407
585 1.00207
590 0.844797
595 0.744413
600 0.603342
Ex : 548
200 0.442979
205 0.409944
210 0.493178
215 0.432522
220 0.427642
225 0.363031
230 0.341698
235 0.464112
240 0.427189
245 0.409
250 0.380879
255 0.466159
260 0.432955
265 0.495359
270 0.465513
275 0.434995
280 0.412061
285 0.353068
290 0.372222
295 0.501481
300 0.451256
305 0.395917
310 0.491167
315 0.530318
320 0.332212
325 0.428813
330 0.468605
335 0.419478
340 0.451043
345 0.387602
350 0.569697
355 0.503613
360 0.452811
365 0.532721
370 0.504346
375 0.524661
380 0.52135
385 0.5427
390 0.559356
395 0.505067
400 0.462739
405 0.431586
410 0.44548
415 0.526949
420 0.539148
425 0.521774
430 0.441036
435 0.583912
440 0.621431
445 0.523483
450 0.529303
455 0.492159
460 0.633048
465 0.607851
470 0.578309
475 0.649785
480 0.586374
485 0.660024
490 0.675227
495 0.632692
500 0.67732
505 0.483732
510 0.598794
515 0.622579
520 0.769106
525 1.00196
530 1.18814
535 25.9516
540 442.2
545 720.092
550 198.524
555 24.3331
560 4.01855
565 1.61133
570 1.26755
575 0.931563
580 0.864292
585 0.928181
590 0.86292
595 0.732804
600 0.778957
Ex : 553
200 0.427168
205 0.411189
210 0.468241
215 0.426814
220 0.421411
225 0.3484
230 0.54176
235 0.479195
240 0.480409
245 0.491397
250 0.380702
255 0.525986
260 0.431842
265 0.433013
270 0.423513
275 0.536858
280 0.490367
285 0.423396
290 0.397299
295 0.504534
300 0.45858
305 0.477707
310 0.442043
315 0.369732
320 0.360758
325 0.490843
330 0.475385
335 0.396438
340 0.504121
345 0.474517
350 0.417783
355 0.495983
360 0.603528
365 0.32131
370 0.488145
375 0.513378
380 0.513833
385 0.541553
390 0.488887
395 0.457065
400 0.474689
405 0.476105
410 0.450574
415 0.477678
420 0.497653
425 0.438948
430 0.467979
435 0.505923
440 0.479433
445 0.545404
450 0.523148
455 0.497227
460 0.543468
465 0.536752
470 0.586921
475 0.499959
480 0.496724
485 0.626961
490 0.577508
495 0.534984
500 0.627637
505 0.502959
510 0.601886
515 0.590332
520 0.636779
525 0.663523
530 0.931998
535 1.19455
540 21.9261
545 422.867
550 720.225
555 202.602
560 24.8933
565 3.92122
570 1.53391
575 1.26344
580 0.95742
585 0.798948
590 0.894967
595 0.886021
600 0.546613
Ex : 558
200 0.441251
205 0.334147
210 0.532783
215 0.449138
220 0.489499
225 0.557185
230 0.526238
235 0.481139
240 0.440574
245 0.375889
250 0.395565
255 0.35864
260 0.42964
265 0.424156
270 0.417354
275 0.500863
280 0.441407
285 0.475052
290 0.512119
295 0.429277
300 0.440207
305 0.423491
310 0.378133
315 0.531382
320 0.421658
325 0.374933
330 0.438094
335 0.478961
340 0.565699
345 0.526102
350 0.407855
355 0.434841
360 0.50035
365 0.640243
370 0.541035
375 0.432215
380 0.508786
385 0.508706
390 0.439467
395 0.466577
400 0.566672
405 0.54723
410 0.465069
415 0.501702
420 0.49754
425 0.450354
430 0.446422
435 0.471359
440 0.538688
445 0.514063
450 0.465163
455 0.455127
460 0.502077
465 0.49223
470 0.570379
475 0.6269
480 0.563365
485 0.514761
490 0.757647
495 0.604414
500 0.666443
505 0.636347
510 0.469184
515 0.703035
520 0.684136
525 0.711235
530 0.880325
535 1.00664
540 1.41778
545 20.7744
550 400.816
555 709.873
560 201.344
565 24.6865
570 3.92943
575 1.28996
580 1.13397
585 0.812487
590 0.872482
595 0.821421
600 1.4957
Ex : 563
200 0.525669
205 0.431502
210 0.551859
215 0.488237
220 0.462926
225 0.450853
230 0.474226
235 0.393531
240 0.408867
245 0.42231
250 0.439924
255 0.435225
260 0.436882
265 0.462159
270 0.455152
275 0.346057
280 0.46333
285 0.557081
290 0.412198
295 0.436727
300 0.442062
305 0.395289
310 0.462487
315 0.470052
320 0.441392
325 0.562179
330 0.531152
335 0.493447
340 0.530181
345 0.530223
350 0.581498
355 0.474822
360 0.417965
365 0.56544
370 0.459217
375 0.507605
380 0.645508
385 0.540512
390 0.419775
395 0.6362
400 0.580718
405 0.523933
410 0.506423
415 0.419387
420 0.629888
425 0.575896
430 0.510016
435 0.574021
440 0.487863
445 0.467838
450 0.567817
455 0.452312
460 0.520051
465 0.509986
470 0.506539
475 0.621976
480 0.658571
485 0.538453
490 0.485093
495 0.533133
500 0.448117
505 0.579126
510 0.673339
515 0.530062
520 0.60371
525 0.603077
530 0.860581
535 0.779104
540 0.940904
545 1.39723
550 19.8629
555 389.475
560 682.176
565 199.752
570 24.5988
575 3.81713
580 1.43656
585 0.984638
590 0.869559
595 0.799149
600 1.46001
Ex : 568
200 0.397699
205 0.456799
210 0.523873
215 0.330211
220 0.387826
225 0.56455
230 0.483942
235 0.362907
240 0.519969
245 0.513717
250 0.516724
255 0.458686
260 0.403358
265 0.478884
270 0.468235
275 0.546749
280 0.444775
285 0.431555
290 0.62719
295 0.447688
300 0.503628
305 0.568127
310 0.488451
315 0.450123
320 0.516352
325 0.411458
330 0.466961
335 0.467467
340 0.44098
345 0.440371
350 0.515094
355 0.495421
360 0.577897
365 0.546006
370 0.56698
375 0.580328
380 0.428494
385 0.49824
390 0.450379
395 0.413154
400 0.581842
405 0.592531
410 0.600441
415 0.44859
420 0.415566
425 0.439933
430 0.529042
435 0.463854
440 0.541904
445 0.572191
450 0.458416
455 0.483391
460 0.521675
465 0.571043
470 0.62122
475 0.505904
480 0.4814
485 0.627507
490 0.584629
495 0.624535
500 0.54805
505 0.522339
510 0.678521
515 0.662909
520 0.64061
525 0.583937
530 0.528755
535 0.654839
540 0.655721
545 0.912182
550 1.28282
555 15.8996
560 358.784
565 668.517
570 203.668
575 25.0597
580 3.82689
585 1.2284
590 0.89594
595 0.763548
600 0.127971
Ex : 573
200 0.588626
205 0.553975
210 0.462587
215 0.491834
220 0.372016
225 0.50865
230 0.495055
235 0.613831
240 0.399345
245 0.454094
250 0.585162
255 0.534811
260 0.438257
265 0.431188
270 0.540521
275 0.471542
280 0.507016
285 0.451017
290 0.554399
295 0.510542
300 0.490357
305 0.573487
310 0.451104
315 0.581086
320 0.347113
325 0.476147
330 0.572074
335 0.504503
340 0.444041
345 0.462671
350 0.491141
355 0.464728
360 0.665112
365 0.438278
370 0.766
375 0.586397
380 0.643715
385 0.613115
390 0.521862
395 0.491631
400 0.492284
405 0.575589
410 0.645431
415 0.476965
420 0.524308
425 0.667613
430 0.476221
435 0.676816
440 0.510203
445 0.53814
450 0.574449
455 0.65753
460 0.600085
465 0.595028
470 0.454166
475 0.437209
480 0.567201
485 0.702026
490 0.636453
495 0.651572
500 0.571214
505 0.493768
510 0.549427
515 0.51419
520 0.59532
525 0.72211
530 0.768894
535 0.621918
540 0.692333
545 0.714168
550 0.939526
555 1.34502
560 14.2104
565 314.289
570 618.103
575 190.452
580 23.4154
585 3.49754
590 1.1083
595 0.786977
600 0.752701
Ex : 578
200 0.490591
205 0.465338
210 0.466655
215 0.433139
220 0.530205
225 0.581351
230 0.492007
235 0.492495
240 0.495192
245 0.561506
250 0.609688
255 0.630389
260 0.557665
265 0.440489
270 0.371774
275 0.386941
280 0.492246
285 0.506245
290 0.558507
295 0.628719
300 0.607598
305 0.507232
310 0.420549
315 0.406024
320 0.539931
325 0.53669
330 0.494693
335 0.452707
340 0.492017
345 0.453737
350 0.492796
355 0.465992
360 0.469318
365 0.514993
370 0.525458
375 0.452487
380 0.540457
385 0.566906
390 0.605677
395 0.520708
400 0.571111
405 0.663013
410 0.63573
415 0.477499
420 0.658567
425 0.459651
430 0.603539
435 0.534595
440 0.619957
445 0.755808
450 0.750288
455 0.551889
460 0.656522
465 0.508359
470 0.486418
475 0.572243
480 0.574332
485 0.58794
490 0.622498
495 0.537144
500 0.53353
505 0.555256
510 0.653491
515 0.443902
520 0.49287
525 0.639951
530 0.588652
535 0.663802
540 0.642846
545 0.880226
550 0.819659
555 0.976351
560 1.05239
565 12.6379
570 279.595
575 529.879
580 162.448
585 20.1932
590 3.12554
595 1.21666
600 0.292306
Ex : 583
200 0.524309
205 0.48313
210 0.405342
215 0.495572
220 0.489922
225 0.44909
230 0.535719
235 0.55601
240 0.539182
245 0.45942
250 0.656885
255 0.608405
260 0.436039
265 0.472773
270 0.629409
275 0.442466
280 0.54509
285 0.600802
290 0.526297
295 0.451391
300 0.520975
305 0.524018
310 0.419003
315 0.496195
320 0.506901
325 0.631859
330 0.467094
335 0.501917
340 0.57174
345 0.510301
350 0.536694
355 0.488589
360 0.471291
365 0.584221
370 0.705501
375 0.527052
380 0.560854
385 0.640437
390 0.426716
395 0.536376
400 0.6223
405 0.757097
410 0.585571
415 0.593869
420 0.456432
425 0.681486
430 0.632527
435 0.440073
440 0.689243
445 0.830261
450 0.719865
455 0.697648
460 0.598778
465 0.740847
470 0.538627
475 0.651075
480 0.641929
485 0.692614
490 0.572542
495 0.564611
500 0.585005
505 0.59083
510 0.585424
515 0.61536
520 0.562925
525 0.677348
530 0.660839
535 0.579265
540 0.672568
545 0.666979
550 0.807282
555 0.798107
560 1.06357
565 1.17945
570 11.1006
575 252.137
580 465.714
585 137.35
590 17.0794
595 2.95024
600 0.577997
Ex : 588
200 0.371872
205 0.476837
210 0.497921
215 0.460648
220 0.393159
225 0.61943
230 0.568209
235 0.520771
240 0.473993
245 0.616736
250 0.508844
255 0.604714
260 0.480038
265 0.565874
270 0.598239
275 0.401493
280 0.606328
285 0.594849
290 0.539191
295 0.430305
300 0.493724
305 0.643248
310 0.51519
315 0.551314
320 0.550776
325 0.485551
330 0.52217
335 0.456526
340 0.510048
345 0.525142
350 0.611185
355 0.540925
360 0.61446
365 0.703354
370 0.533294
375 0.64031
380 0.661304
385 0.475163
390 0.590867
395 0.536656
400 0.518149
405 0.62602
410 0.5605
415 0.620096
420 0.528222
425 0.521829
430 0.5841
435 0.655164
440 0.560681
445 0.530777
450 0.598718
455 0.631162
460 0.651697
465 0.650796
470 0.49969
475 0.520008
480 0.607687
485 0.486068
490 0.663476
495 0.664449
500 0.579979
505 0.602149
510 0.529627
515 0.546293
520 0.652758
525 0.603875
530 0.535636
535 0.656127
540 0.822311
545 0.675043
550 0.622344
555 0.726384
560 0.775516
565 0.884319
570 1.03282
575 9.8425
580 216.637
585 408.833
590 123.585
595 15.2799
600 2.39524
Ex : 593
200 0.577999
205 0.542757
210 0.557092
215 0.528545
220 0.52823
225 0.546806
230 0.508072
235 0.486487
240 0.455352
245 0.548302
250 0.454357
255 0.521114
260 0.474348
265 0.568007
270 0.562654
275 0.541696
280 0.488113
285 0.530658
290 0.537866
295 0.56224
300 0.646966
305 0.503836
310 0.434369
315 0.669789
320 0.549797
325 0.55376
330 0.584184
335 0.510734
340 0.470388
345 0.467134
350 0.517204
355 0.636592
360 0.606746
365 0.554799
370 0.598924
375 0.620432
380 0.515024
385 0.571961
390 0.588843
395 0.489387
400 0.704365
405 0.644087
410 0.563503
415 0.422275
420 0.518844
425 0.503792
430 0.502675
435 0.506003
440 0.535441
445 0.61645
450 0.502388
455 0.606715
460 0.791262
465 0.560192
470 0.612751
475 0.504336
480 0.492818
485 0.488355
490 0.523255
495 0.618975
500 0.482135
505 0.594704
510 0.740116
515 0.646954
520 0.777497
525 0.634971
530 0.463357
535 0.626613
540 0.672694
545 0.635007
550 0.773315
555 0.687506
560 0.659507
565 0.790505
570 0.838581
575 0.975703
580 8.38084
585 188.194
590 352.535
595 106.147
600 14.8934
Ex : 598
200 0.677999
205 0.487488
210 0.482088
215 0.54963
220 0.604615
225 0.573345
230 0.498356
235 0.660179
240 0.49783
245 0.511172
250 0.630772
255 0.446944
260 0.540623
265 0.426357
270 0.471155
275 0.46609
280 0.566798
285 0.595393
290 0.621717
295 0.45065
300 0.578401
305 0.487065
310 0.536671
315 0.576973
320 0.53091
325 0.524989
330 0.698486
335 0.551457
340 0.564919
345 0.509973
350 0.645479
355 0.614772
360 0.608401
365 0.582472
370 0.572858
375 0.483983
380 0.547755
385 0.501536
390 0.495101
395 0.598044
400 0.500844
405 0.661663
410 0.555546
415 0.561946
420 0.554901
425 0.584961
430 0.598669
435 0.589372
440 0.637846
445 0.553943
450 0.723437
455 0.714261
460 0.574882
465 0.510422
470 0.654352
475 0.816377
480 0.631015
485 0.599828
490 0.608473
495 0.570704
500 0.595071
505 0.567985
510 0.539337
515 0.679508
520 0.696283
525 0.748645
530 0.565394
535 0.68029
540 0.710024
545 0.619457
550 0.622096
555 0.634409
560 0.722272
565 0.725124
570 0.873381
575 0.780351
580 0.860438
585 8.44883
590 171.892
595 317.449
600 207.183
Ex : 603
200 0.536981
205 0.437192
210 0.565944
215 0.520648
220 0.745907
225 0.610788
230 0.510509
235 0.563365
240 0.471269
245 0.663063
250 0.557613
255 0.643489
260 0.639603
265 0.588082
270 0.603474
275 0.526424
280 0.468645
285 0.51163
290 0.627434
295 0.52894
300 0.58992
305 0.649966
310 0.572059
315 0.436324
320 0.561256
325 0.531442
330 0.650672
335 0.568082
340 0.51581
345 0.526008
350 0.528051
355 0.659444
360 0.52439
365 0.499433
370 0.43764
375 0.513952
380 0.554868
385 0.498953
390 0.735593
395 0.629605
400 0.592224
405 0.53952
410 0.545662
415 0.522704
420 0.661201
425 0.773545
430 0.702461
435 0.594321
440 0.588387
445 0.705864
450 0.595405
455 0.71747
460 0.599636
465 0.817642
470 0.76351
475 0.811423
480 0.593344
485 0.737365
490 0.572986
495 0.586076
500 0.580129
505 0.617085
510 0.621076
515 0.818648
520 0.799993
525 0.699573
530 0.624281
535 0.667345
540 0.616112
545 0.696956
550 0.661838
555 0.618687
560 0.771765
565 0.670753
570 0.605743
575 0.69785
580 0.725879
585 0.882026
590 7.26752
595 148.124
600 301.194
