File format V 1.0
jeu. 5. janv. 21:15:55 2017
Operator : 
Comments : 

=============================================
SpectroFluorometer parameters
Mode : 3D measurement
Data : Fluorescence
Phospho. : Ordinary
Spectrum : Fluorescence

Scan speed : 2400 nm/mn
Response : 100 ms
PM Voltage : 700 V
Shutter : On

Lambda Ex. Start : 203
Lambda Ex. End : 603
Lambda Ex. Step : 5
Ex. Slit : 5 nm

Lambda Em. Start : 200
Lambda Em. End : 600
Lambda Em. Step : 5
Em. Slit : 5 nm

Repetition : 1
Decal lambda em : 10
=============================================
DATA
Ex : 203
200 3.29936
205 4.73215
210 3.02885
215 7.10978
220 6.14528
225 5.95364
230 7.08285
235 6.96941
240 8.40518
245 5.48596
250 6.00262
255 3.78479
260 5.60945
265 5.93935
270 9.73485
275 6.36632
280 6.04169
285 6.33559
290 9.03133
295 5.48849
300 5.25815
305 4.04471
310 3.93922
315 3.87145
320 9.68763
325 7.56946
330 5.02221
335 3.58771
340 4.29805
345 6.44104
350 6.33806
355 3.64383
360 12.7641
365 4.1383
370 5.8606
375 7.36071
380 4.41742
385 4.37835
390 5.08287
395 6.40691
400 6.30731
405 6.28286
410 4.57835
415 3.4866
420 4.43132
425 7.30821
430 10.5864
435 6.1602
440 7.07596
445 9.59491
450 6.50384
455 7.84103
460 5.16724
465 5.97566
470 7.55237
475 3.10722
480 3.9601
485 4.46497
490 4.75539
495 4.47503
500 6.11659
505 6.37386
510 4.92281
515 6.75148
520 7.85168
525 7.60179
530 4.78457
535 7.99169
540 6.84822
545 3.08113
550 4.93142
555 5.23442
560 6.36414
565 2.69616
570 7.02481
575 3.29068
580 3.93701
585 6.73035
590 2.3265
595 3.91027
600 0.444973
Ex : 208
200 1.9359
205 3.66415
210 5.01076
215 2.78571
220 5.1218
225 3.59003
230 2.18621
235 2.43983
240 4.6585
245 4.54199
250 5.5168
255 4.40379
260 4.77751
265 6.28067
270 3.04033
275 5.03831
280 4.86844
285 6.59898
290 4.99328
295 4.99924
300 3.41783
305 3.40426
310 1.74952
315 5.83663
320 5.575
325 8.39558
330 5.43657
335 2.41336
340 7.46273
345 8.61924
350 9.62572
355 5.46859
360 3.25819
365 4.68122
370 5.74199
375 3.05963
380 5.32655
385 5.09508
390 6.23787
395 5.49751
400 3.2636
405 3.75343
410 4.12658
415 3.7045
420 5.86944
425 6.63121
430 11.3075
435 5.69615
440 6.66416
445 4.8465
450 6.15811
455 4.73329
460 8.44246
465 7.70451
470 7.89205
475 6.39036
480 3.1278
485 6.56508
490 5.09201
495 4.89302
500 4.94179
505 5.59942
510 2.87983
515 3.97643
520 5.26413
525 5.20393
530 3.67618
535 3.18013
540 5.93475
545 3.6328
550 3.22872
555 3.25578
560 5.22713
565 3.95771
570 2.21702
575 3.8724
580 4.98873
585 2.92462
590 4.55179
595 1.73725
600 3.29941
Ex : 213
200 6.61806
205 5.17834
210 7.59477
215 5.92978
220 5.45207
225 3.02584
230 5.28685
235 4.80246
240 3.95543
245 3.93037
250 4.31285
255 8.06585
260 6.29117
265 3.8862
270 5.5558
275 6.6037
280 2.94222
285 4.68527
290 5.18706
295 4.64383
300 4.19056
305 7.6428
310 4.00642
315 2.85967
320 3.54849
325 2.90778
330 5.06075
335 5.35805
340 2.87447
345 3.32859
350 6.29085
355 2.96731
360 6.59357
365 2.81446
370 5.65487
375 2.87349
380 5.75798
385 5.17334
390 2.99331
395 6.25783
400 4.38353
405 3.12482
410 6.09164
415 5.07277
420 7.29404
425 3.85839
430 4.20865
435 8.31922
440 4.34568
445 5.25355
450 5.47802
455 6.83775
460 6.25799
465 3.35877
470 5.88205
475 5.99179
480 12.4902
485 4.77927
490 5.39848
495 4.17065
500 4.41139
505 3.5429
510 3.90169
515 4.06173
520 6.67158
525 3.14597
530 6.34261
535 3.17628
540 9.08126
545 4.41453
550 4.9703
555 7.1635
560 2.06243
565 7.50047
570 5.12879
575 4.77442
580 2.62982
585 6.40173
590 6.20735
595 2.61842
600 0.297967
Ex : 218
200 2.53472
205 4.64416
210 4.87305
215 5.1351
220 6.59788
225 8.13396
230 3.55219
235 3.86042
240 2.33059
245 4.12815
250 4.92214
255 4.23313
260 5.16861
265 3.46692
270 3.03492
275 10.641
280 5.27133
285 2.66767
290 4.96027
295 6.11003
300 8.32681
305 5.48316
310 2.92153
315 5.17293
320 3.70851
325 3.72464
330 5.28981
335 4.76654
340 2.27984
345 6.63007
350 4.54376
355 3.34042
360 2.45908
365 3.564
370 3.03781
375 6.45235
380 5.64206
385 4.70849
390 4.61462
395 6.54483
400 4.39779
405 5.91725
410 3.13882
415 4.38044
420 4.49508
425 6.49066
430 5.03029
435 2.45431
440 7.61914
445 4.69432
450 5.55065
455 9.69727
460 4.04835
465 5.19651
470 8.67525
475 8.03855
480 5.40787
485 4.69193
490 4.55791
495 3.38516
500 4.95
505 4.70079
510 2.81293
515 4.80616
520 4.00006
525 5.82195
530 5.9619
535 4.37623
540 5.47736
545 5.12544
550 4.06676
555 3.457
560 4.74862
565 3.68753
570 4.11027
575 6.47423
580 2.70354
585 3.57348
590 5.03152
595 4.43595
600 0.504795
Ex : 223
200 5.6242
205 5.87846
210 3.25027
215 4.06881
220 3.35258
225 5.39786
230 4.17538
235 5.24269
240 5.27843
245 2.72653
250 4.0377
255 4.48317
260 4.68295
265 5.37748
270 4.72921
275 3.71099
280 5.63132
285 4.98744
290 5.30241
295 2.84528
300 2.38071
305 2.40101
310 3.60535
315 5.22199
320 4.59022
325 3.47448
330 2.40701
335 4.26698
340 5.87789
345 3.77557
350 3.74037
355 2.28451
360 3.92083
365 2.32084
370 3.99549
375 6.23743
380 4.7344
385 4.63745
390 2.43893
395 6.39398
400 9.78156
405 8.85751
410 4.84298
415 4.99896
420 4.46121
425 5.55137
430 3.47108
435 6.82264
440 4.72686
445 7.27082
450 4.9132
455 4.57487
460 6.15158
465 6.41957
470 5.623
475 4.81328
480 6.35794
485 4.63355
490 5.49099
495 2.53606
500 3.42058
505 5.42079
510 8.71609
515 8.2487
520 2.55671
525 5.75778
530 3.45884
535 3.13582
540 5.84805
545 8.43247
550 5.89223
555 9.99206
560 7.93881
565 3.79371
570 5.42382
575 4.64693
580 3.92155
585 4.62718
590 5.20023
595 4.21549
600 0.479707
Ex : 228
200 4.18085
205 5.11654
210 5.07872
215 2.31925
220 4.41456
225 2.80543
230 2.76432
235 3.94134
240 3.6651
245 4.58807
250 3.97889
255 4.12566
260 4.51999
265 3.66986
270 3.1719
275 2.89365
280 4.41287
285 3.52005
290 2.9123
295 3.45801
300 3.63418
305 8.01175
310 3.27492
315 4.14431
320 4.65162
325 3.48673
330 2.72768
335 2.92182
340 5.28767
345 4.80262
350 4.55435
355 4.93892
360 4.46349
365 5.15776
370 6.31842
375 6.65207
380 7.02729
385 3.68788
390 8.21721
395 5.94516
400 5.86794
405 5.91429
410 2.48108
415 4.33356
420 2.922
425 4.61915
430 4.06527
435 4.39295
440 5.49487
445 5.36327
450 7.58983
455 5.7216
460 8.45389
465 3.4877
470 5.01126
475 3.82852
480 5.41085
485 6.00033
490 10.285
495 6.40607
500 4.02346
505 5.02075
510 3.42868
515 5.0582
520 5.34708
525 3.34717
530 4.87838
535 7.03722
540 3.54312
545 2.29926
550 3.98472
555 3.51441
560 4.20693
565 2.55623
570 6.64452
575 3.25718
580 5.88076
585 3.5331
590 3.95671
595 3.64261
600 0.414515
Ex : 233
200 3.66497
205 5.32266
210 3.07774
215 2.22746
220 4.54558
225 4.08446
230 6.35407
235 3.83411
240 3.37926
245 3.22875
250 5.62556
255 4.76641
260 3.85277
265 1.75403
270 3.91981
275 5.03947
280 4.72464
285 8.27716
290 2.07795
295 5.12385
300 3.65555
305 2.95204
310 3.97226
315 2.91217
320 3.4834
325 4.09964
330 11.4191
335 4.4278
340 3.69514
345 2.97958
350 3.70221
355 5.23824
360 3.23232
365 3.30278
370 5.39435
375 4.03356
380 5.14952
385 5.84812
390 4.004
395 3.65997
400 5.75655
405 3.91792
410 4.04197
415 3.09899
420 2.51193
425 1.70377
430 6.07058
435 11.0584
440 3.95989
445 5.08762
450 3.67048
455 4.31698
460 4.55541
465 2.08435
470 6.57153
475 2.74406
480 2.75604
485 4.17859
490 2.88162
495 4.57635
500 1.67151
505 4.52676
510 5.24155
515 4.14595
520 4.38297
525 4.62233
530 2.83784
535 5.79489
540 6.29514
545 4.26616
550 3.84423
555 4.62807
560 2.71125
565 1.49642
570 6.16294
575 3.31562
580 4.03054
585 4.28688
590 2.86027
595 4.39931
600 0.500625
Ex : 238
200 3.70233
205 3.01393
210 3.39168
215 3.34555
220 3.12332
225 7.03712
230 3.38181
235 2.62591
240 3.42186
245 5.47318
250 5.29832
255 3.91142
260 4.42899
265 2.42879
270 3.03248
275 2.08222
280 3.46526
285 3.51075
290 4.54855
295 4.77884
300 2.80949
305 3.19342
310 2.17741
315 8.45062
320 3.59822
325 3.83524
330 3.23651
335 3.63114
340 4.16605
345 5.95747
350 5.54354
355 4.26893
360 4.27346
365 7.73133
370 7.28526
375 4.60749
380 6.59016
385 3.67315
390 2.1904
395 3.12056
400 3.89119
405 2.95085
410 5.1564
415 4.6068
420 2.35462
425 3.70199
430 4.89784
435 3.61605
440 3.71168
445 3.49033
450 4.92715
455 3.2193
460 5.15724
465 5.11382
470 2.62864
475 6.29738
480 6.36126
485 4.65699
490 3.3675
495 5.5969
500 2.93778
505 3.67888
510 5.03392
515 3.78959
520 2.60722
525 3.51235
530 6.7501
535 3.11701
540 2.56618
545 2.12513
550 4.72159
555 4.89597
560 1.55783
565 2.78902
570 3.44516
575 3.56693
580 2.97992
585 3.64818
590 3.56465
595 2.19059
600 1.87399
Ex : 243
200 5.47368
205 4.67155
210 3.81237
215 2.78209
220 4.23737
225 4.20272
230 2.75394
235 3.67127
240 4.5707
245 3.9899
250 3.6165
255 1.98702
260 2.27915
265 2.68534
270 2.51383
275 1.27861
280 1.4673
285 2.84477
290 2.58019
295 3.32925
300 3.79874
305 2.00733
310 4.55043
315 2.79555
320 1.951
325 3.16277
330 1.6281
335 2.12231
340 2.13261
345 2.61603
350 5.2247
355 4.19519
360 3.47451
365 2.83776
370 5.61853
375 3.68213
380 2.62493
385 4.60208
390 5.1971
395 4.29131
400 3.00472
405 4.53405
410 7.64779
415 5.17524
420 3.94542
425 6.18838
430 6.41531
435 2.92082
440 3.0874
445 3.99506
450 2.95379
455 3.03213
460 4.07509
465 2.96447
470 2.03082
475 2.03789
480 3.33891
485 2.31181
490 3.14604
495 5.39638
500 4.14792
505 2.71123
510 2.73752
515 4.22058
520 2.97575
525 2.52991
530 2.84884
535 4.28647
540 4.48625
545 2.61075
550 4.05519
555 1.4457
560 3.81447
565 3.21982
570 4.4972
575 2.39912
580 2.48486
585 3.10423
590 3.03374
595 2.34596
600 0.266961
Ex : 248
200 0.895623
205 2.58201
210 1.50963
215 2.17112
220 1.7437
225 2.472
230 1.85642
235 2.84794
240 2.62226
245 4.20381
250 4.04714
255 2.11778
260 2.19867
265 1.56994
270 1.98205
275 1.77641
280 5.21419
285 1.75513
290 3.09089
295 2.91921
300 1.64797
305 1.83334
310 2.47134
315 2.2106
320 4.84343
325 3.1224
330 3.51059
335 5.96437
340 3.03289
345 2.75548
350 3.18348
355 4.31339
360 3.47836
365 2.09172
370 4.40859
375 4.0302
380 3.68491
385 3.66379
390 3.77022
395 3.44777
400 3.53434
405 5.73589
410 2.95263
415 5.08729
420 2.45086
425 2.64532
430 3.07868
435 2.77764
440 2.40869
445 4.75311
450 1.70124
455 3.24718
460 1.68473
465 2.25952
470 2.38975
475 3.45016
480 4.76766
485 2.38597
490 2.63472
495 2.58496
500 2.55748
505 3.73911
510 3.4447
515 2.92752
520 2.50616
525 2.1557
530 4.08451
535 2.11377
540 3.21793
545 2.60587
550 3.66016
555 2.674
560 2.58092
565 1.53624
570 3.17752
575 3.58828
580 2.62548
585 3.00594
590 1.64348
595 2.07885
600 0.236565
Ex : 253
200 3.28161
205 2.52529
210 2.30478
215 1.39365
220 2.17477
225 1.80232
230 2.35656
235 2.14498
240 1.4282
245 4.48628
250 2.79005
255 1.99974
260 1.88603
265 1.597
270 1.7769
275 2.35112
280 2.15695
285 1.64566
290 1.33174
295 2.18082
300 1.77326
305 1.30648
310 1.5255
315 0.858042
320 2.82642
325 2.17344
330 4.31282
335 2.03267
340 4.02895
345 2.49337
350 1.70476
355 3.37815
360 3.20887
365 4.18025
370 2.83891
375 1.75324
380 2.56694
385 2.19552
390 1.7619
395 2.89104
400 1.8137
405 3.67226
410 3.10404
415 1.78904
420 2.56932
425 3.03858
430 1.59596
435 2.20247
440 2.64338
445 2.55479
450 3.02298
455 1.85154
460 2.73663
465 3.47496
470 3.20907
475 2.97047
480 3.13478
485 2.56464
490 2.23137
495 2.63321
500 2.37337
505 2.58867
510 1.26531
515 1.98167
520 2.34687
525 2.24417
530 1.56617
535 1.00184
540 1.94971
545 2.02286
550 2.66271
555 1.58534
560 2.4677
565 2.00829
570 2.20545
575 1.85927
580 2.447
585 1.96527
590 3.02463
595 2.20698
600 3.46363
Ex : 258
200 2.44545
205 1.2509
210 1.66662
215 1.90272
220 1.33947
225 1.32775
230 0.968504
235 2.03203
240 1.60298
245 1.54439
250 1.61244
255 2.56989
260 1.46955
265 3.00912
270 1.17896
275 1.198
280 1.54019
285 1.24836
290 2.43307
295 2.43405
300 1.49884
305 2.06873
310 1.11352
315 1.12243
320 2.11398
325 1.54145
330 1.63765
335 1.12808
340 3.15285
345 2.01639
350 2.84851
355 2.23052
360 2.22945
365 2.01178
370 2.07314
375 2.29199
380 4.85595
385 2.0864
390 1.79126
395 1.58599
400 2.18706
405 2.53963
410 1.55117
415 2.5901
420 2.31343
425 2.24382
430 1.61841
435 2.04898
440 1.64211
445 1.59544
450 1.58385
455 1.61827
460 1.81192
465 1.77175
470 1.54502
475 2.60342
480 3.75327
485 2.32036
490 1.35783
495 2.23392
500 1.96105
505 1.45274
510 2.83181
515 2.58091
520 2.31022
525 2.12732
530 2.07423
535 1.1844
540 1.73077
545 1.64212
550 1.18742
555 2.03357
560 3.53802
565 1.75361
570 1.12786
575 1.98691
580 1.91029
585 1.79154
590 1.31673
595 1.8305
600 0.208304
Ex : 263
200 3.18817
205 2.71377
210 1.25548
215 0.525967
220 0.833155
225 2.15375
230 1.6659
235 1.20261
240 1.26504
245 1.54738
250 1.50539
255 0.813806
260 0.898104
265 0.597525
270 1.53607
275 1.069
280 2.22403
285 1.544
290 1.68052
295 1.17927
300 1.87599
305 1.5475
310 1.50857
315 1.17117
320 1.26029
325 0.838354
330 2.14683
335 2.93282
340 1.56019
345 2.15301
350 0.860153
355 1.44453
360 0.974626
365 1.96985
370 1.16987
375 1.92857
380 0.932788
385 1.66136
390 2.00989
395 0.926504
400 2.39049
405 1.45674
410 1.43959
415 1.74177
420 1.4519
425 1.86391
430 1.12213
435 1.16106
440 0.917048
445 1.04625
450 1.99116
455 1.95122
460 1.01818
465 1.1717
470 1.56987
475 1.13883
480 0.619868
485 2.20498
490 1.59316
495 0.898699
500 1.14946
505 0.915181
510 1.23704
515 1.95545
520 1.61271
525 1.62301
530 1.15778
535 2.76829
540 1.98896
545 1.12985
550 1.4714
555 1.31966
560 1.43181
565 1.01666
570 2.08627
575 2.7366
580 1.83107
585 1.57767
590 1.20195
595 1.26554
600 0.144013
Ex : 268
200 0.641536
205 0.791581
210 1.68327
215 0.960093
220 1.24618
225 0.887055
230 0.599433
235 0.501523
240 0.967227
245 1.74397
250 1.38212
255 1.65901
260 1.47724
265 0.802504
270 0.819453
275 0.654681
280 0.901287
285 1.22674
290 2.09883
295 1.83227
300 0.944269
305 1.81921
310 1.52695
315 0.885428
320 1.73142
325 1.05246
330 1.6595
335 0.920709
340 1.03629
345 0.804887
350 2.17838
355 0.93923
360 1.46004
365 1.64903
370 0.72535
375 1.06163
380 1.33273
385 1.20732
390 1.15529
395 0.631724
400 1.36406
405 1.04639
410 2.3945
415 2.60739
420 1.01423
425 1.44907
430 1.709
435 1.81939
440 1.25448
445 1.28043
450 1.09083
455 1.71706
460 1.76573
465 0.976361
470 1.16036
475 0.698964
480 0.935871
485 0.519084
490 0.567046
495 1.1504
500 0.844349
505 0.688949
510 0.779518
515 1.16233
520 2.27485
525 2.0189
530 1.26901
535 1.17205
540 0.627065
545 1.47399
550 1.67478
555 0.959884
560 0.803052
565 0.98124
570 0.63103
575 1.07753
580 1.13331
585 0.609453
590 0.728452
595 1.14313
600 0.130084
Ex : 273
200 1.08768
205 0.422428
210 0.579793
215 0.526331
220 0.615944
225 1.00547
230 1.27174
235 0.576617
240 0.737978
245 0.35658
250 0.328668
255 0.78038
260 0.640817
265 0.812589
270 1.31531
275 0.758755
280 1.00269
285 1.17199
290 0.921665
295 1.04571
300 1.87415
305 0.77151
310 0.408252
315 0.418744
320 0.677774
325 1.60196
330 1.00293
335 1.48648
340 0.926184
345 0.770558
350 1.35469
355 0.84455
360 1.06482
365 0.719285
370 1.39215
375 1.27837
380 1.86
385 0.953483
390 1.05204
395 1.04932
400 1.29596
405 1.41049
410 0.944952
415 1.2178
420 1.2105
425 1.17538
430 1.24911
435 1.74561
440 1.04924
445 0.86795
450 1.33621
455 1.48037
460 0.83386
465 0.901166
470 0.902636
475 1.44411
480 1.54921
485 1.12303
490 0.830819
495 0.70313
500 0.843604
505 0.933919
510 0.728505
515 0.722276
520 0.658674
525 0.982306
530 0.962939
535 0.900546
540 1.15312
545 0.789115
550 0.906986
555 1.5113
560 1.12141
565 0.775185
570 0.614522
575 1.30088
580 0.63231
585 0.566951
590 0.83388
595 1.24636
600 0.141831
Ex : 278
200 0.354054
205 0.566804
210 0.712704
215 0.947503
220 1.09738
225 0.732749
230 0.529319
235 0.807567
240 0.798722
245 0.673601
250 0.475932
255 0.448564
260 0.774194
265 0.597647
270 0.707279
275 0.716986
280 0.50674
285 0.68181
290 0.481002
295 0.534329
300 0.508758
305 0.411892
310 0.418295
315 0.180208
320 0.396251
325 0.796561
330 0.936827
335 0.443284
340 0.49436
345 0.625098
350 0.88942
355 0.539044
360 0.976949
365 1.01855
370 1.07896
375 0.849388
380 1.15994
385 0.866066
390 0.625399
395 0.73398
400 1.05973
405 0.8095
410 0.720488
415 0.572246
420 0.851122
425 0.823933
430 0.978337
435 0.698329
440 1.40836
445 1.1533
450 0.633828
455 0.778128
460 1.13898
465 0.824738
470 0.692222
475 0.915966
480 0.88297
485 0.897331
490 0.780752
495 0.903261
500 0.901425
505 0.783013
510 0.684548
515 0.469668
520 1.44186
525 0.593409
530 0.485564
535 0.981408
540 0.798407
545 0.888357
550 0.912359
555 0.862727
560 0.679048
565 0.609797
570 1.34588
575 0.654518
580 0.470898
585 0.345207
590 0.350871
595 0.929408
600 2.29795
Ex : 283
200 0.584778
205 0.406257
210 0.709536
215 0.413069
220 0.330942
225 0.853583
230 0.621567
235 0.936579
240 0.543944
245 0.337322
250 0.437178
255 0.514873
260 0.385957
265 0.470187
270 1.07369
275 0.710268
280 0.38379
285 0.701613
290 1.23292
295 0.4592
300 0.42729
305 0.631777
310 0.397082
315 0.743911
320 0.582932
325 0.48405
330 0.874429
335 0.758479
340 0.576865
345 0.539225
350 0.590791
355 0.741703
360 0.596771
365 0.453011
370 0.870608
375 0.760869
380 0.872387
385 1.23046
390 0.942872
395 0.584327
400 0.615287
405 0.858202
410 0.796476
415 0.720146
420 0.933322
425 0.788423
430 0.603392
435 0.640255
440 0.380112
445 0.593705
450 0.467434
455 0.828955
460 0.625653
465 1.18351
470 0.868598
475 0.50699
480 1.02409
485 0.689017
490 0.8482
495 0.781987
500 0.453024
505 0.665792
510 0.966636
515 0.439563
520 0.581878
525 0.412846
530 0.607708
535 0.693026
540 0.776073
545 0.342855
550 0.328347
555 0.695477
560 0.556173
565 0.786763
570 0.66422
575 0.996003
580 0.661912
585 1.12462
590 0.709821
595 0.803413
600 2.12112
Ex : 288
200 0.581006
205 0.511462
210 0.623829
215 0.555851
220 0.601126
225 0.791849
230 0.479562
235 0.49152
240 0.211573
245 0.365786
250 0.382602
255 0.336169
260 0.45226
265 0.497368
270 0.40481
275 0.66967
280 0.583968
285 0.389269
290 0.531822
295 0.311956
300 0.401625
305 0.288757
310 0.491587
315 0.379789
320 0.491894
325 0.430585
330 0.439673
335 0.354112
340 0.434041
345 0.431357
350 0.468101
355 0.501655
360 0.792435
365 0.869769
370 0.936439
375 0.470278
380 0.491792
385 1.02263
390 0.541011
395 0.518636
400 0.657094
405 0.715525
410 0.834473
415 0.851406
420 1.15432
425 0.434343
430 0.742246
435 0.662085
440 0.678763
445 0.526813
450 0.537996
455 0.505727
460 0.336903
465 1.14343
470 0.689914
475 0.53691
480 0.732835
485 0.526496
490 0.358453
495 0.56387
500 0.461275
505 0.363754
510 0.974416
515 0.51548
520 0.542954
525 0.773349
530 0.462591
535 0.233973
540 0.438476
545 0.699073
550 0.57846
555 0.729496
560 0.517482
565 0.643333
570 0.544462
575 0.561282
580 0.365069
585 0.443
590 0.619436
595 0.445849
600 0.0507359
Ex : 293
200 0.316853
205 0.357968
210 0.442735
215 0.500097
220 0.484683
225 0.277064
230 0.370569
235 0.391552
240 0.374861
245 0.707548
250 0.445986
255 0.290189
260 0.299785
265 0.53601
270 0.368639
275 0.326445
280 0.531707
285 0.46857
290 0.546982
295 0.737652
300 0.571497
305 0.454983
310 0.211311
315 0.445685
320 0.304661
325 0.534991
330 0.418128
335 0.451091
340 0.513804
345 0.391868
350 0.586427
355 0.631545
360 0.578744
365 0.658262
370 0.399013
375 0.367662
380 0.561898
385 0.720018
390 0.790708
395 0.479756
400 0.610125
405 0.301916
410 0.308681
415 0.462259
420 0.649096
425 0.672895
430 0.350577
435 0.754883
440 0.429485
445 0.69373
450 0.447998
455 0.284689
460 0.846325
465 0.828967
470 0.532921
475 0.64361
480 0.524676
485 0.603708
490 0.328146
495 0.508331
500 0.36022
505 0.81127
510 0.379467
515 0.43524
520 0.393979
525 0.331476
530 0.279325
535 0.485393
540 0.650818
545 0.618388
550 0.436504
555 0.452886
560 0.341394
565 0.305187
570 0.570651
575 0.633482
580 0.654954
585 0.715574
590 0.456891
595 0.310152
600 0.0352941
Ex : 298
200 0.375288
205 0.190817
210 0.827354
215 0.429883
220 0.282903
225 0.381542
230 0.30703
235 0.321943
240 0.341345
245 0.52652
250 0.263979
255 0.390948
260 0.236111
265 0.399552
270 0.368469
275 0.238497
280 0.239993
285 0.405815
290 0.424741
295 0.303112
300 0.293071
305 0.334395
310 0.350441
315 0.27783
320 0.238893
325 0.273284
330 0.538097
335 0.39495
340 0.375518
345 0.28315
350 0.260292
355 0.215797
360 0.521162
365 0.69647
370 0.50846
375 0.473075
380 0.358738
385 0.412364
390 0.678691
395 0.676119
400 0.756745
405 0.437213
410 0.342809
415 0.648818
420 0.523689
425 0.536339
430 0.367283
435 0.55364
440 0.478655
445 0.337511
450 0.721523
455 0.454018
460 0.477805
465 0.309109
470 0.756197
475 0.301816
480 0.30293
485 0.364415
490 0.506336
495 0.576734
500 0.288119
505 0.583982
510 0.422248
515 0.475844
520 0.472864
525 0.438685
530 0.356779
535 0.521435
540 0.782434
545 0.336927
550 0.386683
555 0.257287
560 0.278613
565 0.393572
570 0.54965
575 0.309469
580 0.494989
585 0.574423
590 0.751567
595 0.749663
600 0.693488
Ex : 303
200 0.2
205 0.267895
210 0.323053
215 0.294221
220 0.327348
225 0.305379
230 0.305575
235 0.37052
240 0.380372
245 0.369462
250 0.270432
255 0.356144
260 0.493595
265 0.407809
270 0.209317
275 0.395591
280 0.273071
285 0.156863
290 0.392057
295 0.45585
300 0.443394
305 0.390867
310 0.337293
315 0.417259
320 0.266368
325 0.222376
330 0.251942
335 0.422734
340 0.351503
345 0.27278
350 0.326914
355 0.383962
360 0.52817
365 0.568237
370 0.786729
375 0.315505
380 0.527844
385 0.409575
390 0.592913
395 0.727577
400 0.509951
405 0.61908
410 0.518881
415 0.598444
420 0.495923
425 0.561211
430 0.715068
435 0.654652
440 0.5321
445 0.665807
450 0.648816
455 0.40674
460 0.31964
465 0.382392
470 0.250106
475 0.685863
480 0.367544
485 0.377739
490 0.466311
495 0.364201
500 0.302341
505 0.247421
510 0.465364
515 0.277207
520 0.303538
525 0.253432
530 0.352897
535 0.316299
540 0.301712
545 0.336392
550 0.464155
555 0.196547
560 0.313624
565 0.216958
570 0.296872
575 0.257115
580 0.260844
585 0.575396
590 0.429735
595 0.337236
600 1.6811
Ex : 308
200 0.209812
205 0.173758
210 0.207388
215 0.17068
220 0.535749
225 0.30507
230 0.249901
235 0.31739
240 0.213421
245 0.186602
250 0.377332
255 0.268992
260 0.373917
265 0.474891
270 0.244676
275 0.317772
280 0.358134
285 0.254271
290 0.249089
295 0.303728
300 0.210807
305 0.432126
310 0.471443
315 0.358164
320 0.593551
325 0.338128
330 0.375886
335 0.326898
340 0.408047
345 0.490775
350 0.376178
355 0.392266
360 0.494872
365 0.308006
370 0.313129
375 0.58612
380 0.501868
385 0.349486
390 0.347286
395 0.646779
400 0.507063
405 0.555506
410 0.50788
415 0.714022
420 0.382649
425 0.633004
430 0.472365
435 0.406167
440 0.658954
445 0.410939
450 0.370288
455 0.440759
460 0.310842
465 0.465328
470 0.348562
475 0.38854
480 0.729997
485 0.425753
490 0.34385
495 0.290246
500 0.284682
505 0.320064
510 0.445654
515 0.343922
520 0.221856
525 0.416373
530 0.188926
535 0.268345
540 0.298205
545 0.344621
550 0.190383
555 0.231539
560 0.327843
565 0.504487
570 0.317965
575 0.271426
580 0.355921
585 0.242619
590 0.249003
595 0.228868
600 0.589992
Ex : 313
200 0.243695
205 0.22765
210 0.209006
215 0.257469
220 0.40614
225 0.296642
230 0.396741
235 0.228088
240 0.197877
245 0.290611
250 0.238816
255 0.165519
260 0.325326
265 0.264239
270 0.241696
275 0.40789
280 0.13695
285 0.195224
290 0.26811
295 0.219512
300 0.101522
305 0.474568
310 0.375888
315 0.344188
320 0.252533
325 0.377947
330 0.446578
335 0.411784
340 0.38294
345 0.366755
350 0.416406
355 0.39199
360 0.514564
365 0.873155
370 0.403079
375 0.724738
380 0.695977
385 0.858034
390 0.786759
395 0.916527
400 0.828682
405 0.887321
410 0.734054
415 0.833837
420 0.780091
425 0.679392
430 0.825175
435 0.626829
440 0.73829
445 0.567175
450 0.562556
455 0.862009
460 0.479767
465 0.592192
470 0.689705
475 0.691823
480 0.660021
485 0.416757
490 0.430626
495 0.379147
500 0.22207
505 0.476733
510 0.501577
515 0.234536
520 0.522689
525 0.37028
530 0.40174
535 0.469234
540 0.343081
545 0.32632
550 0.241643
555 0.181919
560 0.205656
565 0.538893
570 0.311104
575 0.2224
580 0.128127
585 0.202861
590 0.167682
595 0.17579
600 0.0654506
Ex : 318
200 0.195957
205 0.286249
210 0.233091
215 0.208292
220 0.222701
225 0.17102
230 0.106092
235 0.347877
240 0.248134
245 0.270764
250 0.260559
255 0.296953
260 0.326714
265 0.186242
270 0.205739
275 0.317925
280 0.245904
285 0.232993
290 0.188518
295 0.251022
300 0.149146
305 0.177225
310 0.391645
315 0.998997
320 0.585103
325 0.403988
330 0.618113
335 0.758991
340 1.03247
345 1.20627
350 2.16548
355 2.44427
360 3.43821
365 3.91424
370 4.54741
375 5.14756
380 6.56247
385 6.53853
390 7.67355
395 8.33692
400 8.67172
405 9.11576
410 8.78207
415 8.93356
420 8.33205
425 7.86088
430 8.01135
435 7.23541
440 7.10718
445 6.99937
450 6.26323
455 5.72212
460 5.541
465 5.06349
470 4.53333
475 4.01036
480 3.54965
485 3.83728
490 3.112
495 2.96986
500 2.54972
505 1.94789
510 1.44187
515 1.19555
520 1.20997
525 0.984224
530 1.19368
535 0.823956
540 0.69785
545 0.807279
550 0.579821
555 0.632436
560 0.557185
565 0.607802
570 0.530274
575 0.378611
580 0.338245
585 0.196006
590 0.450392
595 0.307219
600 0.22415
Ex : 323
200 0.293736
205 0.250599
210 0.102027
215 0.139933
220 0.10763
225 0.272557
230 0.131207
235 0.156176
240 0.18039
245 0.150556
250 0.127054
255 0.142956
260 0.168721
265 0.377498
270 0.297817
275 0.294162
280 0.238956
285 0.178013
290 0.201158
295 0.241967
300 0.218765
305 0.160234
310 0.20149
315 8.3434
320 36.2022
325 14.9055
330 3.19779
335 2.61801
340 3.90476
345 5.44923
350 8.62373
355 11.3815
360 14.3231
365 15.7331
370 19.9114
375 22.5909
380 25.4804
385 29.0093
390 31.948
395 32.9621
400 34.9265
405 34.73
410 34.9248
415 33.7753
420 32.7093
425 31.9445
430 31.1151
435 29.6351
440 27.8507
445 27.3098
450 25.4678
455 23.845
460 23.0119
465 20.5203
470 18.7674
475 17.4178
480 15.1848
485 14.1146
490 12.8503
495 11.1003
500 9.31926
505 8.55152
510 7.36242
515 6.14905
520 5.04524
525 4.88677
530 4.09919
535 3.49722
540 3.12834
545 2.5816
550 2.14778
555 1.98912
560 1.35892
565 1.18502
570 0.980558
575 0.745758
580 0.464513
585 0.472013
590 0.515474
595 0.299415
600 0.0340722
Ex : 328
200 0.185337
205 0.196377
210 0.296334
215 0.283069
220 0.143374
225 0.173691
230 0.248144
235 0.111158
240 0.227271
245 0.221956
250 0.161819
255 0.0971838
260 0.175
265 0.0958857
270 0.215776
275 0.133136
280 0.276169
285 0.333293
290 0.173379
295 0.162902
300 0.16121
305 0.2046
310 0.245216
315 1.83774
320 78.3656
325 186.797
330 54.6495
335 9.49539
340 6.01267
345 6.71609
350 8.41795
355 12.8097
360 17.3122
365 19.1074
370 20.9021
375 24.079
380 27.0479
385 30.7157
390 34.0679
395 35.3158
400 36.1308
405 35.9562
410 37.9207
415 36.3314
420 35.5753
425 33.8834
430 32.1863
435 31.3465
440 29.7402
445 28.2659
450 26.4504
455 24.2847
460 22.5919
465 21.4366
470 19.405
475 17.5107
480 15.8516
485 14.7493
490 12.6878
495 11.5941
500 10.6245
505 9.3278
510 7.92559
515 6.75604
520 5.92819
525 5.13305
530 4.6137
535 3.8397
540 3.30842
545 2.69223
550 2.35984
555 1.86197
560 1.5605
565 1.19213
570 1.15743
575 0.82785
580 0.715892
585 0.572447
590 0.418542
595 0.286192
600 0.0325676
Ex : 333
200 0.104985
205 0.258848
210 0.185742
215 0.113577
220 0.119542
225 0.096516
230 0.145107
235 0.22714
240 0.187752
245 0.247971
250 0.275736
255 0.233614
260 0.238548
265 0.158526
270 0.154553
275 0.187301
280 0.162875
285 0.160404
290 0.406351
295 0.177257
300 0.202139
305 0.209692
310 0.184022
315 0.264425
320 9.9954
325 208.799
330 353.892
335 92.5629
340 14.0145
345 5.84325
350 5.94351
355 6.25955
360 9.83694
365 14.1137
370 14.5195
375 14.2907
380 14.8193
385 17.8158
390 20.484
395 21.4528
400 21.5227
405 21.7063
410 23.0772
415 23.2463
420 21.82
425 20.3784
430 18.7489
435 18.7362
440 17.4108
445 16.2517
450 14.6152
455 13.5299
460 12.941
465 11.6496
470 11.2253
475 10.2489
480 8.91674
485 7.87106
490 6.94212
495 6.40296
500 5.86984
505 5.38174
510 4.42746
515 4.20831
520 3.306
525 3.16311
530 2.79564
535 2.26831
540 2.02965
545 1.78431
550 1.25863
555 1.2126
560 1.12704
565 0.833391
570 0.76293
575 0.682681
580 0.497615
585 0.412471
590 0.247382
595 0.287988
600 0.0327719
Ex : 338
200 0.1533
205 0.152154
210 0.258905
215 0.215662
220 0.163303
225 0.109067
230 0.0987228
235 0.125491
240 0.27788
245 0.247792
250 0.181476
255 0.181966
260 0.153504
265 0.0867598
270 0.14022
275 0.142059
280 0.218496
285 0.19849
290 0.187145
295 0.222152
300 0.207301
305 0.198702
310 0.154207
315 0.175844
320 0.333907
325 19.1462
330 304.058
335 448.867
340 111.592
345 15.4696
350 4.7472
355 3.63304
360 3.83929
365 5.3948
370 10.1121
375 10.2794
380 9.41115
385 10.0241
390 12.0129
395 13.5803
400 13.2594
405 13.0229
410 13.3338
415 14.568
420 13.8388
425 11.8292
430 11.1279
435 10.9423
440 10.0607
445 9.45556
450 8.89103
455 8.17976
460 7.43665
465 6.79282
470 6.27884
475 6.02559
480 5.05898
485 5.0086
490 4.50391
495 3.99768
500 3.5564
505 3.23146
510 3.03437
515 2.67786
520 2.19213
525 1.95441
530 1.54235
535 1.62621
540 1.53294
545 1.10035
550 1.02089
555 1.08983
560 0.885344
565 0.814305
570 0.700931
575 0.449198
580 0.464774
585 0.47115
590 0.419008
595 0.379929
600 0.0432345
Ex : 343
200 0.107642
205 0.123423
210 0.0711314
215 0.17819
220 0.148365
225 0.168549
230 0.167586
235 0.14269
240 0.0971029
245 0.170699
250 0.175064
255 0.125867
260 0.110426
265 0.142025
270 0.115816
275 0.126895
280 0.260168
285 0.177065
290 0.230558
295 0.161879
300 0.199467
305 0.158305
310 0.129979
315 0.241333
320 0.216435
325 0.521853
330 21.581
335 342.992
340 497.88
345 121.341
350 16.4177
355 4.40429
360 2.81181
365 2.2889
370 3.0888
375 6.89363
380 8.86237
385 9.14365
390 10.2751
395 9.95055
400 9.83712
405 10.2078
410 11.8283
415 12.3966
420 10.9635
425 10.1821
430 9.50301
435 9.25207
440 9.04365
445 8.19614
450 7.7949
455 6.84618
460 6.35192
465 6.01425
470 5.98565
475 5.45591
480 4.6095
485 4.23288
490 3.80524
495 3.49991
500 3.2476
505 2.86988
510 2.42691
515 2.32602
520 1.82943
525 1.64293
530 1.59832
535 1.43423
540 1.32481
545 1.22219
550 0.92379
555 0.766583
560 0.907927
565 0.791544
570 0.511595
575 0.425435
580 0.554733
585 0.355202
590 0.454126
595 0.423734
600 0.412413
Ex : 348
200 0.0970989
205 0.084522
210 0.158005
215 0.118889
220 0.121856
225 0.107081
230 0.161355
235 0.149283
240 0.129103
245 0.189229
250 0.15774
255 0.10889
260 0.148904
265 0.0863366
270 0.17579
275 0.201094
280 0.112871
285 0.101465
290 0.115165
295 0.145096
300 0.13556
305 0.136482
310 0.164489
315 0.244765
320 0.310817
325 0.219244
330 0.473212
335 21.8505
340 347.491
345 532.265
350 136.301
355 17.7318
360 3.93774
365 2.52637
370 1.96581
375 2.41029
380 6.74591
385 11.9354
390 13.2447
395 12.8083
400 10.6032
405 11.5437
410 13.2662
415 14.486
420 13.4091
425 11.4406
430 10.8287
435 10.2648
440 10.2586
445 9.1808
450 8.6679
455 7.57244
460 7.1013
465 6.44412
470 6.13105
475 5.77495
480 5.09601
485 4.36004
490 4.12842
495 3.8691
500 3.39713
505 3.16306
510 2.82962
515 2.64327
520 2.17075
525 2.02247
530 1.60804
535 1.60765
540 1.41709
545 1.28453
550 0.932932
555 0.80188
560 0.905343
565 0.760838
570 0.734593
575 0.529276
580 0.37495
585 0.376851
590 0.356222
595 0.356269
600 0.804893
Ex : 353
200 0.187431
205 0.154503
210 0.14959
215 0.103243
220 0.115588
225 0.108385
230 0.138759
235 0.0753196
240 0.0548726
245 0.180937
250 0.126802
255 0.155405
260 0.17869
265 0.16783
270 0.154928
275 0.0999136
280 0.10928
285 0.0970511
290 0.22603
295 0.173853
300 0.113919
305 0.240568
310 0.132833
315 0.155679
320 0.16468
325 0.178453
330 0.236683
335 0.441391
340 22.8827
345 363.595
350 531.676
355 132.28
360 16.9981
365 3.9195
370 2.2763
375 1.88561
380 3.14515
385 8.65352
390 15.4754
395 16.2219
400 13.5931
405 12.503
410 14.7679
415 15.5164
420 15.7581
425 12.9114
430 11.7223
435 11.3848
440 11.7027
445 10.7222
450 9.68195
455 8.21557
460 7.28859
465 6.94553
470 6.65081
475 6.10542
480 5.61745
485 5.16794
490 4.61957
495 4.28651
500 3.7348
505 3.13923
510 2.84912
515 2.56913
520 2.40389
525 2.16602
530 1.93566
535 1.59489
540 1.48009
545 1.35748
550 1.04117
555 0.924298
560 0.725413
565 0.791537
570 0.592052
575 0.467123
580 0.462832
585 0.36063
590 0.244379
595 0.428027
600 0.21263
Ex : 358
200 0.103554
205 0.104937
210 0.103185
215 0.11012
220 0.142782
225 0.11552
230 0.134473
235 0.123232
240 0.156121
245 0.0899811
250 0.128906
255 0.176919
260 0.16378
265 0.0742737
270 0.134955
275 0.108481
280 0.231967
285 0.124725
290 0.150847
295 0.0933071
300 0.113564
305 0.172984
310 0.165566
315 0.117421
320 0.197535
325 0.179644
330 0.249103
335 0.296612
340 0.630865
345 22.0668
350 354.108
355 542.521
360 135.598
365 17.2091
370 3.83421
375 2.43666
380 2.99363
385 6.08521
390 11.0384
395 15.7816
400 14.0752
405 12.8903
410 13.5365
415 14.6721
420 13.7216
425 12.1346
430 11.4827
435 10.7148
440 10.9998
445 10.2804
450 9.28003
455 8.09204
460 7.35746
465 6.96187
470 6.52965
475 6.3359
480 5.84475
485 5.54576
490 4.66559
495 4.39221
500 3.75242
505 3.64141
510 3.21214
515 2.81501
520 2.66753
525 2.01313
530 1.84446
535 1.58489
540 1.50523
545 1.38019
550 1.13616
555 1.09785
560 0.908471
565 0.882907
570 0.733669
575 0.605637
580 0.457533
585 0.390251
590 0.346607
595 0.248008
600 0.0659331
Ex : 363
200 0.0884547
205 0.140951
210 0.141622
215 0.153231
220 0.11581
225 0.109329
230 0.169134
235 0.145075
240 0.107789
245 0.127485
250 0.220544
255 0.135912
260 0.0944098
265 0.15694
270 0.139447
275 0.171666
280 0.0964076
285 0.159112
290 0.219179
295 0.114005
300 0.0731812
305 0.0899868
310 0.0932559
315 0.158455
320 0.169937
325 0.183952
330 0.2657
335 0.223597
340 0.328712
345 0.531846
350 18.8428
355 345.677
360 547.131
365 140.672
370 17.9926
375 4.09387
380 4.39753
385 7.64608
390 10.7456
395 12.7478
400 14.5155
405 16.7305
410 16.7055
415 17.284
420 15.6083
425 13.6451
430 12.2776
435 12.2979
440 12.154
445 11.0605
450 10.1116
455 8.94231
460 8.24866
465 7.78185
470 7.13446
475 6.67237
480 6.13785
485 5.2619
490 5.23605
495 4.70998
500 4.28563
505 3.81188
510 3.55675
515 3.14483
520 2.5608
525 2.33893
530 2.01426
535 1.84164
540 1.6582
545 1.33779
550 1.19567
555 1.02822
560 0.894855
565 0.769138
570 0.673486
575 0.539506
580 0.433538
585 0.454077
590 0.300801
595 0.282784
600 0.191696
Ex : 368
200 0.144437
205 0.142181
210 0.0578728
215 0.0789572
220 0.164505
225 0.0526369
230 0.0839895
235 0.139144
240 0.0757288
245 0.0781374
250 0.0857584
255 0.0991257
260 0.0657883
265 0.130286
270 0.143685
275 0.103857
280 0.0675888
285 0.102702
290 0.098991
295 0.0760872
300 0.100551
305 0.145231
310 0.111675
315 0.073499
320 0.131889
325 0.117377
330 0.124543
335 0.184818
340 0.188135
345 0.312366
350 0.528113
355 16.2057
360 333.197
365 561.907
370 150.503
375 19.3065
380 5.95786
385 9.1446
390 13.9256
395 15.9061
400 14.8597
405 17.5837
410 21.5678
415 22.6158
420 20.46
425 16.7606
430 14.7668
435 14.5735
440 14.2112
445 13.8271
450 12.0124
455 10.5958
460 9.64798
465 9.21685
470 8.77854
475 8.03874
480 7.02756
485 6.57066
490 5.86792
495 5.34514
500 4.75508
505 4.17598
510 3.38459
515 3.18653
520 3.06127
525 2.53025
530 2.30168
535 2.07674
540 1.73741
545 1.64528
550 1.34105
555 1.2281
560 1.03201
565 0.86975
570 0.669096
575 0.590228
580 0.500454
585 0.31223
590 0.344311
595 0.334583
600 0.367824
Ex : 373
200 0.189702
205 0.112513
210 0.117874
215 0.100307
220 0.0996626
225 0.0851057
230 0.115928
235 0.110899
240 0.106345
245 0.0930807
250 0.103632
255 0.0766621
260 0.0805329
265 0.140241
270 0.0963033
275 0.0799762
280 0.0866205
285 0.112709
290 0.15944
295 0.150585
300 0.0997022
305 0.109491
310 0.0820022
315 0.113848
320 0.0987714
325 0.190783
330 0.150703
335 0.116438
340 0.15872
345 0.251258
350 0.337004
355 0.481405
360 19.5825
365 340.483
370 557.933
375 149.381
380 20.024
385 8.582
390 13.9154
395 16.9556
400 14.9766
405 14.3431
410 18.5807
415 23.8557
420 22.2222
425 18.1913
430 14.9605
435 13.9668
440 14.3286
445 13.8903
450 12.2319
455 10.8073
460 9.21193
465 8.90089
470 8.15998
475 7.72664
480 7.23045
485 6.35992
490 5.63752
495 5.272
500 4.68364
505 4.37142
510 3.99561
515 3.63629
520 3.18372
525 2.67845
530 2.4288
535 2.04484
540 1.90458
545 1.60732
550 1.32819
555 1.33583
560 1.07309
565 0.970785
570 0.763787
575 0.812314
580 0.477797
585 0.350861
590 0.367303
595 0.32884
600 0.435627
Ex : 378
200 0.134745
205 0.142892
210 0.099033
215 0.13493
220 0.131562
225 0.15812
230 0.0523223
235 0.0959702
240 0.074259
245 0.0782288
250 0.0931056
255 0.0852274
260 0.059355
265 0.0986707
270 0.0779149
275 0.0934678
280 0.0702778
285 0.0766345
290 0.0987175
295 0.115753
300 0.114498
305 0.0878526
310 0.0708517
315 0.150831
320 0.0698785
325 0.0958239
330 0.100121
335 0.155463
340 0.107738
345 0.163729
350 0.287669
355 0.3319
360 0.48246
365 18.1827
370 344.764
375 573.618
380 155.453
385 23.5547
390 11.9029
395 12.5399
400 11.2886
405 10.1391
410 12.3637
415 15.2842
420 17.9613
425 15.21
430 12.3668
435 11.4129
440 10.9691
445 10.4596
450 9.48931
455 8.48472
460 7.38969
465 7.30241
470 7.0284
475 6.40893
480 5.98597
485 5.69317
490 5.34259
495 4.84228
500 4.37868
505 3.86336
510 3.41323
515 3.35563
520 2.92761
525 2.4745
530 2.24718
535 2.02672
540 1.78452
545 1.65351
550 1.58662
555 1.26498
560 1.21878
565 0.890298
570 0.816375
575 0.592532
580 0.430275
585 0.443291
590 0.340976
595 0.213023
600 0.324525
Ex : 383
200 0.171248
205 0.0561004
210 0.0682433
215 0.0932525
220 0.0850522
225 0.100803
230 0.0563656
235 0.0539956
240 0.0623436
245 0.066494
250 0.143667
255 0.143465
260 0.0828604
265 0.0807974
270 0.177481
275 0.0751002
280 0.134665
285 0.0795249
290 0.149663
295 0.190424
300 0.159937
305 0.102432
310 0.0846656
315 0.0918208
320 0.0831845
325 0.0990426
330 0.0764016
335 0.0998716
340 0.119987
345 0.131073
350 0.21735
355 0.227012
360 0.320562
365 0.518874
370 16.281
375 339.775
380 591.824
385 165.836
390 28.3524
395 12.601
400 10.3076
405 11.0301
410 12.3037
415 13.9883
420 13.7097
425 14.8216
430 14.0996
435 12.7651
440 12.0585
445 10.9287
450 9.68054
455 8.30551
460 7.6386
465 7.15693
470 7.07776
475 6.74603
480 6.29334
485 5.7495
490 5.24479
495 4.58252
500 4.41454
505 3.96231
510 3.58331
515 3.49651
520 3.0151
525 2.66981
530 2.29019
535 1.95829
540 1.81795
545 1.70142
550 1.57442
555 1.42237
560 1.06612
565 0.829998
570 0.69463
575 0.718292
580 0.499661
585 0.378042
590 0.291402
595 0.286049
600 0.193679
Ex : 388
200 0.0605018
205 0.0800644
210 0.0927411
215 0.123002
220 0.111844
225 0.1155
230 0.0835644
235 0.0865458
240 0.0821637
245 0.071561
250 0.0966095
255 0.0836962
260 0.111726
265 0.0607372
270 0.109436
275 0.0812155
280 0.0903251
285 0.107695
290 0.122304
295 0.128775
300 0.0874972
305 0.100954
310 0.0953565
315 0.0625862
320 0.113269
325 0.0974371
330 0.119106
335 0.11004
340 0.138939
345 0.149085
350 0.150193
355 0.105696
360 0.196919
365 0.299524
370 0.576148
375 18.7974
380 354.319
385 599.584
390 170.214
395 31.6787
400 14.7472
405 13.3363
410 16.0397
415 17.5415
420 16.6755
425 14.4447
430 14.295
435 15.7221
440 14.7275
445 13.3432
450 11.2533
455 9.77431
460 8.70034
465 8.05506
470 7.76876
475 7.58441
480 6.76547
485 6.01629
490 5.47036
495 5.06544
500 4.8538
505 4.16126
510 3.89517
515 3.33949
520 2.9369
525 2.6965
530 2.41543
535 2.10038
540 1.79827
545 1.74079
550 1.39234
555 1.3766
560 1.35055
565 0.913047
570 0.829522
575 0.61733
580 0.475677
585 0.37596
590 0.29963
595 0.38619
600 0.808382
Ex : 393
200 0.125984
205 0.104091
210 0.0448202
215 0.105443
220 0.103045
225 0.0526549
230 0.0758085
235 0.0874191
240 0.0574232
245 0.088251
250 0.104793
255 0.1097
260 0.0810414
265 0.0841471
270 0.0958689
275 0.0828692
280 0.141685
285 0.0495965
290 0.054852
295 0.0858756
300 0.105741
305 0.109717
310 0.0479028
315 0.0946119
320 0.166465
325 0.0857628
330 0.082443
335 0.109537
340 0.106915
345 0.183781
350 0.161729
355 0.155073
360 0.138008
365 0.247364
370 0.334927
375 0.796941
380 17.6912
385 355.448
390 614.411
395 177.152
400 32.4947
405 14.4536
410 14.8869
415 18.0831
420 17.8919
425 14.624
430 12.357
435 13.3214
440 15.5259
445 14.3547
450 12.2396
455 9.81003
460 8.5374
465 7.86241
470 7.48438
475 7.00924
480 6.45542
485 5.92805
490 5.25872
495 4.6652
500 4.67258
505 4.25398
510 3.75924
515 3.31543
520 3.07604
525 2.66272
530 2.37173
535 1.97585
540 1.90933
545 1.64664
550 1.44796
555 1.29754
560 1.1313
565 0.942375
570 0.827495
575 0.679932
580 0.463909
585 0.371987
590 0.297137
595 0.222481
600 0.0684301
Ex : 398
200 0.0555151
205 0.0847199
210 0.0909825
215 0.10233
220 0.0569562
225 0.0552143
230 0.0946621
235 0.0495941
240 0.0483488
245 0.0464745
250 0.0521685
255 0.0818077
260 0.0735692
265 0.068055
270 0.104003
275 0.084217
280 0.127212
285 0.0662748
290 0.0854498
295 0.0539178
300 0.0483601
305 0.0730152
310 0.0992926
315 0.0973524
320 0.099735
325 0.100361
330 0.104494
335 0.0996849
340 0.110903
345 0.110517
350 0.16539
355 0.127911
360 0.111898
365 0.200626
370 0.221183
375 0.36322
380 0.742608
385 18.7432
390 361.962
395 624.128
400 172.455
405 26.3362
410 10.5189
415 11.2366
420 11.4487
425 9.59258
430 7.81973
435 7.4805
440 9.12078
445 11.0483
450 9.84316
455 7.91768
460 6.84226
465 6.07965
470 5.66466
475 5.75519
480 5.36908
485 4.73302
490 4.35315
495 4.09643
500 3.89336
505 3.50755
510 3.21924
515 2.98574
520 2.78959
525 2.47953
530 2.28907
535 1.90025
540 1.91412
545 1.57622
550 1.3719
555 1.34657
560 1.04361
565 0.890453
570 0.833942
575 0.642518
580 0.491231
585 0.371636
590 0.263499
595 0.239583
600 0.215881
Ex : 403
200 0.0555916
205 0.0454949
210 0.0679295
215 0.0794524
220 0.140417
225 0.0756154
230 0.0784344
235 0.0549185
240 0.0576194
245 0.0742221
250 0.103298
255 0.06812
260 0.0465732
265 0.0662576
270 0.0632961
275 0.0633296
280 0.0665967
285 0.0552528
290 0.0728093
295 0.0877069
300 0.0752285
305 0.0451867
310 0.101019
315 0.139118
320 0.0867098
325 0.0662184
330 0.112489
335 0.106747
340 0.10207
345 0.0914804
350 0.119896
355 0.176153
360 0.150335
365 0.163237
370 0.235318
375 0.238719
380 0.383671
385 0.825536
390 20.3311
395 369.413
400 619.531
405 169.485
410 23.4398
415 7.15512
420 5.67577
425 5.09653
430 4.46015
435 4.21362
440 4.73106
445 5.27338
450 7.08929
455 7.06998
460 5.7978
465 5.26458
470 4.6778
475 4.29779
480 4.14529
485 3.96476
490 3.78488
495 3.5643
500 3.34107
505 3.33199
510 3.07804
515 2.80387
520 2.5715
525 2.1742
530 1.92261
535 1.81257
540 1.55096
545 1.50087
550 1.41984
555 1.1852
560 1.0497
565 0.754502
570 0.663553
575 0.602882
580 0.485492
585 0.335702
590 0.311283
595 0.217453
600 0.311011
Ex : 408
200 0.075461
205 0.0520016
210 0.0320486
215 0.0598354
220 0.0322207
225 0.0743508
230 0.0479203
235 0.0552204
240 0.0531438
245 0.111706
250 0.0975571
255 0.0677661
260 0.0732305
265 0.0610611
270 0.108456
275 0.0895698
280 0.107201
285 0.0886654
290 0.0664304
295 0.0401534
300 0.0550768
305 0.0747331
310 0.059037
315 0.103794
320 0.0852633
325 0.110817
330 0.136688
335 0.0935087
340 0.0836498
345 0.117155
350 0.0730978
355 0.101943
360 0.0996922
365 0.142063
370 0.157739
375 0.218722
380 0.263998
385 0.367046
390 0.987768
395 18.7355
400 376.937
405 626.208
410 166.102
415 23.2655
420 6.38363
425 4.3888
430 4.12928
435 4.14463
440 4.17951
445 4.51745
450 4.41434
455 5.80331
460 6.91643
465 5.75839
470 5.34643
475 4.88678
480 4.51415
485 3.94926
490 3.60522
495 3.5086
500 3.35821
505 3.17763
510 3.07458
515 2.77296
520 2.47009
525 2.27597
530 2.13734
535 1.77323
540 1.68579
545 1.55171
550 1.47587
555 1.23816
560 1.12828
565 0.922591
570 0.793425
575 0.518588
580 0.400545
585 0.361084
590 0.274122
595 0.251388
600 0.276623
Ex : 413
200 0.0868671
205 0.126913
210 0.0849777
215 0.0547277
220 0.0690297
225 0.0995487
230 0.09992
235 0.0589519
240 0.0610816
245 0.0588627
250 0.0489358
255 0.0494119
260 0.0607714
265 0.0411169
270 0.0465239
275 0.0858066
280 0.0761393
285 0.123446
290 0.0960865
295 0.0541759
300 0.125176
305 0.0664408
310 0.140342
315 0.0864937
320 0.0520564
325 0.116726
330 0.0623055
335 0.106336
340 0.0561122
345 0.133572
350 0.145457
355 0.148644
360 0.0924668
365 0.132577
370 0.111839
375 0.136767
380 0.1905
385 0.225471
390 0.368994
395 0.710055
400 21.4152
405 384.066
410 625.591
415 162.682
420 22.1503
425 5.68376
430 3.8072
435 4.07705
440 4.13781
445 3.87742
450 3.62227
455 3.74319
460 4.66722
465 6.13675
470 5.79373
475 4.7499
480 4.50245
485 3.83269
490 3.68218
495 3.09485
500 3.09203
505 2.89127
510 2.81388
515 2.55352
520 2.42056
525 1.98853
530 1.87468
535 1.75481
540 1.62162
545 1.61875
550 1.30556
555 1.23339
560 0.985686
565 0.92574
570 0.733292
575 0.570741
580 0.502731
585 0.397165
590 0.331436
595 0.220959
600 0.0251442
Ex : 418
200 0.0649279
205 0.0873283
210 0.0738435
215 0.105155
220 0.0618566
225 0.0832573
230 0.0716418
235 0.104008
240 0.0737966
245 0.0736217
250 0.0606145
255 0.072584
260 0.0529276
265 0.0817422
270 0.0914483
275 0.145369
280 0.0639736
285 0.0435309
290 0.0528188
295 0.0494437
300 0.0729563
305 0.0775785
310 0.102305
315 0.0821785
320 0.0657802
325 0.0987207
330 0.0788264
335 0.116635
340 0.105131
345 0.0768592
350 0.132988
355 0.0859089
360 0.0874936
365 0.112656
370 0.142656
375 0.106189
380 0.110714
385 0.140063
390 0.257317
395 0.385713
400 0.617505
405 19.6855
410 376.625
415 626.498
420 167.571
425 21.6774
430 4.52887
435 2.64442
440 2.92934
445 2.89467
450 2.58446
455 2.36008
460 2.626
465 3.24802
470 4.93595
475 5.20695
480 4.18043
485 3.77518
490 3.36337
495 2.80077
500 2.62805
505 2.69623
510 2.41988
515 2.46431
520 2.12147
525 1.94464
530 1.78334
535 1.63349
540 1.49651
545 1.35221
550 1.04488
555 1.14364
560 0.880196
565 0.773259
570 0.758467
575 0.601495
580 0.515061
585 0.292181
590 0.308746
595 0.302016
600 0.3229
Ex : 423
200 0.0515768
205 0.0871138
210 0.0400168
215 0.0331635
220 0.069841
225 0.0549375
230 0.0485816
235 0.0913683
240 0.0554094
245 0.0914784
250 0.100574
255 0.0876767
260 0.0680606
265 0.0397715
270 0.0472898
275 0.0734974
280 0.035311
285 0.0881805
290 0.0889489
295 0.0484771
300 0.0428216
305 0.0640643
310 0.0778035
315 0.111218
320 0.0496449
325 0.100017
330 0.0901646
335 0.0644188
340 0.073368
345 0.0812237
350 0.097085
355 0.110104
360 0.126807
365 0.0822298
370 0.0993429
375 0.11312
380 0.131848
385 0.0943993
390 0.194932
395 0.322658
400 0.387323
405 0.687385
410 20.5831
415 390.467
420 623.052
425 159.249
430 20.0435
435 3.78921
440 1.91311
445 2.01288
450 2.04731
455 1.82628
460 1.71275
465 1.89075
470 2.33878
475 3.84825
480 4.8221
485 3.82033
490 3.21915
495 2.69373
500 2.36259
505 2.23556
510 1.93876
515 1.94292
520 1.87803
525 1.82487
530 1.56823
535 1.56265
540 1.51607
545 1.23588
550 1.11929
555 1.05917
560 0.975751
565 0.789223
570 0.601895
575 0.550516
580 0.443318
585 0.348393
590 0.336133
595 0.259958
600 0.430553
Ex : 428
200 0.0601753
205 0.0723796
210 0.0417461
215 0.102373
220 0.0719936
225 0.0592805
230 0.0844667
235 0.102967
240 0.0691466
245 0.061668
250 0.0818881
255 0.127058
260 0.128835
265 0.0762048
270 0.0968941
275 0.055916
280 0.0827746
285 0.0739609
290 0.0960056
295 0.0541751
300 0.0971066
305 0.100776
310 0.115819
315 0.121126
320 0.0624173
325 0.141357
330 0.112287
335 0.138729
340 0.0887225
345 0.0893572
350 0.111554
355 0.0735372
360 0.14545
365 0.144178
370 0.0748356
375 0.151859
380 0.0969341
385 0.155113
390 0.175394
395 0.169893
400 0.232473
405 0.437048
410 0.715274
415 22.2752
420 391.631
425 626.35
430 164.259
435 20.2415
440 3.4939
445 1.6379
450 1.59678
455 1.58866
460 1.44388
465 1.63187
470 1.46613
475 1.69697
480 3.13073
485 4.48273
490 3.38534
495 2.78274
500 2.58734
505 2.07197
510 1.92026
515 1.84287
520 1.69011
525 1.69428
530 1.63486
535 1.32471
540 1.35107
545 1.29604
550 1.13063
555 1.05275
560 0.930895
565 0.789213
570 0.626999
575 0.580753
580 0.443426
585 0.324366
590 0.260607
595 0.255476
600 0.135772
Ex : 433
200 0.0627888
205 0.0912707
210 0.0628227
215 0.0780339
220 0.0563271
225 0.0744095
230 0.110854
235 0.0919795
240 0.0923999
245 0.0645306
250 0.0542181
255 0.0652121
260 0.0567023
265 0.0899199
270 0.129336
275 0.0848995
280 0.0561385
285 0.0447737
290 0.0776196
295 0.034585
300 0.0628267
305 0.108252
310 0.0937478
315 0.0896021
320 0.0896422
325 0.0980062
330 0.0895098
335 0.0817983
340 0.127249
345 0.0679313
350 0.0451917
355 0.113019
360 0.135995
365 0.126135
370 0.0962723
375 0.0983538
380 0.0925696
385 0.0952237
390 0.181411
395 0.200364
400 0.221106
405 0.276742
410 0.390542
415 0.679532
420 25.0093
425 421.376
430 642.156
435 160.841
440 19.8503
445 3.47233
450 1.39925
455 1.52269
460 1.59203
465 1.45948
470 1.38688
475 1.3769
480 1.64309
485 2.75457
490 4.19345
495 3.72642
500 2.86165
505 2.51993
510 2.11677
515 1.81334
520 1.74569
525 1.57354
530 1.38374
535 1.20531
540 1.22986
545 1.05599
550 0.988721
555 0.849582
560 0.711023
565 0.770142
570 0.646904
575 0.473906
580 0.437051
585 0.399541
590 0.258087
595 0.206838
600 0.292991
Ex : 438
200 0.050751
205 0.0703229
210 0.0588026
215 0.0750023
220 0.0724378
225 0.104406
230 0.0685871
235 0.103416
240 0.0681996
245 0.10299
250 0.039427
255 0.0505342
260 0.0727418
265 0.0616226
270 0.0636821
275 0.0950548
280 0.095527
285 0.0461716
290 0.0679606
295 0.079924
300 0.114493
305 0.0571028
310 0.0803719
315 0.0956999
320 0.0932869
325 0.15875
330 0.0920341
335 0.107331
340 0.132036
345 0.0756706
350 0.0595748
355 0.109743
360 0.116714
365 0.0753782
370 0.0956944
375 0.0684033
380 0.0763111
385 0.0911906
390 0.103121
395 0.13712
400 0.138246
405 0.131716
410 0.292553
415 0.361242
420 0.602062
425 23.1586
430 417.061
435 676.501
440 169.534
445 20.8241
450 3.63768
455 1.44672
460 1.44551
465 1.77889
470 1.4531
475 1.29272
480 1.43199
485 1.57063
490 1.92435
495 3.36301
500 3.93376
505 2.70165
510 2.27906
515 2.04517
520 1.61555
525 1.37778
530 1.39371
535 1.28285
540 1.14324
545 1.00731
550 1.0186
555 0.982226
560 0.85838
565 0.701683
570 0.689869
575 0.53041
580 0.343167
585 0.361499
590 0.287608
595 0.211623
600 0.118296
Ex : 443
200 0.0451043
205 0.0687623
210 0.0820071
215 0.0451946
220 0.103118
225 0.0605568
230 0.0631466
235 0.0932458
240 0.109585
245 0.109335
250 0.0993316
255 0.0780124
260 0.0611242
265 0.126418
270 0.108571
275 0.0892269
280 0.0682958
285 0.0819756
290 0.0436626
295 0.0524899
300 0.0363044
305 0.113882
310 0.126672
315 0.0906925
320 0.111099
325 0.0750011
330 0.0774555
335 0.0647355
340 0.110785
345 0.0793511
350 0.0521479
355 0.112492
360 0.0652183
365 0.0915327
370 0.0666728
375 0.0794723
380 0.0975141
385 0.117997
390 0.0971231
395 0.110863
400 0.147289
405 0.164639
410 0.190795
415 0.234403
420 0.330294
425 0.674929
430 26.2941
435 447.468
440 688.592
445 170.158
450 20.9433
455 3.6017
460 1.51539
465 1.61348
470 1.64119
475 1.53978
480 1.3316
485 1.39405
490 1.33839
495 1.6682
500 2.95026
505 3.79727
510 2.62198
515 2.13877
520 1.87729
525 1.66514
530 1.47411
535 1.25099
540 1.12964
545 1.07448
550 0.907187
555 0.891011
560 0.827476
565 0.754961
570 0.673366
575 0.519906
580 0.407799
585 0.323898
590 0.285457
595 0.283005
600 0.0322049
Ex : 448
200 0.0652157
205 0.113811
210 0.0856248
215 0.0613618
220 0.100686
225 0.0757319
230 0.0515646
235 0.089574
240 0.0898119
245 0.107629
250 0.0639347
255 0.0625429
260 0.0843763
265 0.0727089
270 0.103885
275 0.056787
280 0.0503463
285 0.0378898
290 0.0729137
295 0.0405384
300 0.0705143
305 0.062561
310 0.0466197
315 0.114777
320 0.0567453
325 0.0536088
330 0.0921043
335 0.0981613
340 0.0878069
345 0.0688078
350 0.073953
355 0.123113
360 0.1361
365 0.105937
370 0.0691311
375 0.0930527
380 0.0931831
385 0.111685
390 0.0970385
395 0.101051
400 0.173136
405 0.212587
410 0.162207
415 0.204193
420 0.304829
425 0.414368
430 0.620794
435 27.5478
440 471.342
445 724.235
450 179.42
455 21.9709
460 3.74371
465 1.52991
470 1.4631
475 1.55122
480 1.55348
485 1.2239
490 1.21247
495 1.20408
500 1.37775
505 2.11695
510 3.29529
515 2.68394
520 2.03641
525 1.8891
530 1.65707
535 1.19157
540 1.23055
545 0.896912
550 0.969919
555 0.85263
560 0.691824
565 0.634118
570 0.505815
575 0.482629
580 0.438406
585 0.309929
590 0.307144
595 0.245251
600 0.0279086
Ex : 453
200 0.0993989
205 0.0613297
210 0.0537547
215 0.0680481
220 0.0507587
225 0.0442398
230 0.0737039
235 0.065335
240 0.0677227
245 0.079402
250 0.0699321
255 0.0532013
260 0.0670163
265 0.0935522
270 0.0657577
275 0.0671114
280 0.0800597
285 0.0935492
290 0.0699856
295 0.0557152
300 0.0840703
305 0.132742
310 0.0791822
315 0.0972619
320 0.140497
325 0.0612339
330 0.0726429
335 0.0976029
340 0.088658
345 0.0533086
350 0.0638593
355 0.105943
360 0.13348
365 0.0783708
370 0.0663153
375 0.0840243
380 0.0393687
385 0.0721608
390 0.117765
395 0.0898842
400 0.11602
405 0.116892
410 0.103947
415 0.131082
420 0.204333
425 0.19302
430 0.340178
435 0.668991
440 28.2071
445 511.557
450 754.542
455 176.872
460 21.8682
465 3.83722
470 1.63443
475 1.33801
480 1.49525
485 1.47933
490 1.25179
495 1.13407
500 1.17907
505 1.22622
510 1.70341
515 2.94542
520 2.91652
525 2.01595
530 1.75641
535 1.54762
540 1.19218
545 0.953187
550 0.998635
555 0.859265
560 0.772987
565 0.681893
570 0.578977
575 0.559709
580 0.414937
585 0.381994
590 0.31283
595 0.236495
600 0.0546061
Ex : 458
200 0.0880644
205 0.0744147
210 0.0415972
215 0.119105
220 0.0570072
225 0.0582303
230 0.0912129
235 0.0498051
240 0.0403443
245 0.0980402
250 0.0900774
255 0.0874799
260 0.0608078
265 0.0821686
270 0.0641686
275 0.111304
280 0.0812668
285 0.0752284
290 0.0761123
295 0.0546808
300 0.0389092
305 0.0680766
310 0.134079
315 0.0730008
320 0.0676231
325 0.0795553
330 0.0763758
335 0.0558659
340 0.0810288
345 0.0780433
350 0.171899
355 0.164738
360 0.0972049
365 0.0839893
370 0.117709
375 0.0659204
380 0.101998
385 0.1017
390 0.109793
395 0.135143
400 0.086802
405 0.147063
410 0.122859
415 0.143097
420 0.170743
425 0.126607
430 0.247254
435 0.42078
440 0.719795
445 31.7874
450 536.365
455 802.769
460 193.692
465 23.9931
470 4.13503
475 1.46143
480 1.26533
485 1.47992
490 1.38348
495 1.15406
500 1.19624
505 1.12895
510 1.14371
515 1.39509
520 2.25705
525 2.91636
530 2.2183
535 1.60018
540 1.4987
545 1.14752
550 0.904368
555 0.918895
560 0.82119
565 0.777032
570 0.70789
575 0.487018
580 0.409819
585 0.360296
590 0.309214
595 0.226966
600 0.0345733
Ex : 463
200 0.0783032
205 0.0555769
210 0.075198
215 0.0717188
220 0.0701182
225 0.0809025
230 0.0486238
235 0.0667651
240 0.0557291
245 0.0499319
250 0.0803515
255 0.0814391
260 0.0513443
265 0.059028
270 0.0855444
275 0.0896115
280 0.0700201
285 0.0721147
290 0.092294
295 0.0702387
300 0.0839125
305 0.0332217
310 0.10445
315 0.0801653
320 0.0515621
325 0.0599432
330 0.0897601
335 0.0863336
340 0.104738
345 0.083013
350 0.097554
355 0.0936124
360 0.10007
365 0.0917097
370 0.115399
375 0.0969349
380 0.0930615
385 0.0830624
390 0.141188
395 0.0679855
400 0.10769
405 0.137295
410 0.0934338
415 0.145025
420 0.159425
425 0.2012
430 0.248385
435 0.237349
440 0.364456
445 0.710781
450 30.9025
455 552.362
460 855.539
465 208.19
470 25.6047
475 4.47382
480 1.66523
485 1.33457
490 1.611
495 1.3024
500 1.16338
505 0.920969
510 1.11922
515 1.05934
520 1.19981
525 1.89542
530 2.80147
535 2.29461
540 1.56954
545 1.43659
550 1.19508
555 1.00371
560 0.798786
565 0.703208
570 0.60306
575 0.428721
580 0.432229
585 0.369931
590 0.299754
595 0.206281
600 0.25313
Ex : 468
200 0.0746596
205 0.0803019
210 0.0553283
215 0.0413847
220 0.0560945
225 0.0585743
230 0.0722409
235 0.0567504
240 0.0662404
245 0.0673153
250 0.0659685
255 0.040977
260 0.0794675
265 0.0830726
270 0.0497775
275 0.154276
280 0.0902461
285 0.101704
290 0.0726053
295 0.0844954
300 0.0544452
305 0.0693093
310 0.0726722
315 0.0407385
320 0.0554547
325 0.0603452
330 0.0501837
335 0.0763949
340 0.0603712
345 0.088089
350 0.0637178
355 0.0732602
360 0.0856788
365 0.0921135
370 0.105055
375 0.0762261
380 0.0759256
385 0.113862
390 0.0801315
395 0.0735425
400 0.0847538
405 0.114245
410 0.10218
415 0.160178
420 0.114107
425 0.164642
430 0.181373
435 0.128618
440 0.266847
445 0.439227
450 0.791002
455 34.8882
460 572.215
465 915.038
470 219.655
475 26.6804
480 4.33933
485 1.58663
490 1.25926
495 1.4323
500 1.4779
505 1.17775
510 0.961602
515 0.957585
520 1.07818
525 1.13203
530 1.40961
535 2.40635
540 2.66725
545 1.64845
550 1.32148
555 1.17368
560 0.942555
565 0.768716
570 0.723118
575 0.562228
580 0.417671
585 0.358966
590 0.290463
595 0.252895
600 0.104045
Ex : 473
200 0.0981903
205 0.0968698
210 0.130458
215 0.0400006
220 0.0533112
225 0.0537199
230 0.0627043
235 0.0854787
240 0.0883331
245 0.0518904
250 0.0741883
255 0.0721265
260 0.0646417
265 0.0738028
270 0.103646
275 0.0550061
280 0.0873008
285 0.0791586
290 0.0708829
295 0.141634
300 0.106485
305 0.0794281
310 0.0914604
315 0.100424
320 0.134864
325 0.0810304
330 0.0733267
335 0.138327
340 0.0878441
345 0.112799
350 0.0761056
355 0.103521
360 0.0761676
365 0.087031
370 0.0652227
375 0.0973357
380 0.0801688
385 0.0935673
390 0.0866502
395 0.123344
400 0.0930501
405 0.129866
410 0.101467
415 0.130591
420 0.117465
425 0.183166
430 0.133801
435 0.227761
440 0.233701
445 0.262589
450 0.424298
455 0.868242
460 40.3123
465 636.71
470 902.326
475 209.178
480 25.3445
485 4.32823
490 1.48615
495 1.2501
500 1.25561
505 1.30603
510 1.25338
515 1.02613
520 0.98084
525 1.07445
530 1.12374
535 1.18081
540 2.11247
545 2.42044
550 1.73753
555 1.29391
560 1.14917
565 1.02686
570 0.696741
575 0.585452
580 0.476339
585 0.422727
590 0.335004
595 0.307267
600 0.385325
Ex : 478
200 0.0805302
205 0.0669146
210 0.0942774
215 0.1164
220 0.0764397
225 0.102129
230 0.0668692
235 0.0433086
240 0.0671456
245 0.0859232
250 0.0652029
255 0.0544206
260 0.110136
265 0.105023
270 0.0782992
275 0.126329
280 0.0818108
285 0.0991464
290 0.0551968
295 0.0795242
300 0.130862
305 0.110951
310 0.0701077
315 0.0658639
320 0.0780763
325 0.1156
330 0.0760938
335 0.0784917
340 0.0841687
345 0.0796142
350 0.0616975
355 0.0914036
360 0.122713
365 0.159458
370 0.112072
375 0.127559
380 0.102432
385 0.0690086
390 0.114502
395 0.164797
400 0.0796802
405 0.0994751
410 0.128798
415 0.133357
420 0.124035
425 0.0998668
430 0.134131
435 0.163162
440 0.185343
445 0.276804
450 0.399412
455 0.528822
460 1.18116
465 45.3267
470 666.483
475 945.922
480 229.037
485 27.8061
490 4.3971
495 1.49667
500 1.0495
505 1.11835
510 1.24964
515 1.21633
520 0.975529
525 1.03695
530 0.912952
535 0.987487
540 1.01741
545 1.5264
550 2.25114
555 1.91052
560 1.16494
565 0.968637
570 0.966568
575 0.602914
580 0.567719
585 0.395312
590 0.286935
595 0.281934
600 0.531751
Ex : 483
200 0.0537439
205 0.0913901
210 0.115714
215 0.0924698
220 0.0866687
225 0.0868596
230 0.16667
235 0.104683
240 0.062633
245 0.0965426
250 0.120675
255 0.0833234
260 0.074477
265 0.100898
270 0.0797765
275 0.0442164
280 0.068463
285 0.0923382
290 0.0585785
295 0.0959224
300 0.0696515
305 0.06626
310 0.0686373
315 0.0665497
320 0.0674707
325 0.0652675
330 0.0871885
335 0.112864
340 0.110165
345 0.115354
350 0.122554
355 0.0544697
360 0.0618804
365 0.121805
370 0.0685082
375 0.0743147
380 0.0991926
385 0.119143
390 0.136628
395 0.124641
400 0.110675
405 0.187773
410 0.166768
415 0.130756
420 0.106688
425 0.113329
430 0.128517
435 0.116451
440 0.185781
445 0.169469
450 0.26595
455 0.326452
460 0.507333
465 1.03243
470 35.945
475 661.676
480 1018.17
485 244.082
490 29.506
495 4.47202
500 1.53761
505 1.03814
510 1.01099
515 1.17483
520 1.21948
525 1.13503
530 0.956012
535 1.02571
540 0.901926
545 0.928253
550 1.17036
555 1.90714
560 1.90881
565 1.17999
570 0.793199
575 0.736688
580 0.58361
585 0.423369
590 0.357947
595 0.301053
600 0.193164
Ex : 488
200 0.0893982
205 0.0939692
210 0.111545
215 0.0811836
220 0.105955
225 0.147253
230 0.0872175
235 0.134294
240 0.161005
245 0.111783
250 0.0892313
255 0.0974609
260 0.117145
265 0.0788667
270 0.059734
275 0.129804
280 0.110535
285 0.122507
290 0.144262
295 0.115047
300 0.106988
305 0.0823602
310 0.0705798
315 0.0983705
320 0.0860259
325 0.123533
330 0.0901333
335 0.0866396
340 0.103161
345 0.149457
350 0.16629
355 0.100902
360 0.0835393
365 0.108959
370 0.177676
375 0.140292
380 0.0986989
385 0.0949712
390 0.123502
395 0.09556
400 0.0990689
405 0.195136
410 0.164253
415 0.152849
420 0.141425
425 0.185331
430 0.170863
435 0.143409
440 0.217048
445 0.161314
450 0.213165
455 0.347138
460 0.375573
465 0.700392
470 1.15111
475 45.3394
480 731.078
485 1031.76
490 242.852
495 29.4477
500 4.40569
505 1.47711
510 1.0607
515 1.07641
520 1.22026
525 1.12068
530 1.0407
535 0.960655
540 0.946795
545 0.864285
550 0.902588
555 0.905941
560 1.50722
565 1.85691
570 1.19348
575 0.853135
580 0.683943
585 0.60083
590 0.376681
595 0.333177
600 1.84782
Ex : 493
200 0.060969
205 0.106522
210 0.136583
215 0.124268
220 0.11217
225 0.117104
230 0.0795645
235 0.0973603
240 0.166012
245 0.116598
250 0.0787854
255 0.0789268
260 0.106555
265 0.109254
270 0.121273
275 0.0988965
280 0.0628188
285 0.0932516
290 0.158179
295 0.0981236
300 0.0909454
305 0.108272
310 0.0734439
315 0.130357
320 0.141285
325 0.105572
330 0.111003
335 0.124008
340 0.0593417
345 0.0832985
350 0.1014
355 0.0676625
360 0.0638941
365 0.127933
370 0.131289
375 0.0598215
380 0.104234
385 0.211463
390 0.100199
395 0.138095
400 0.0920408
405 0.13443
410 0.168999
415 0.164756
420 0.167348
425 0.176808
430 0.145247
435 0.16737
440 0.191852
445 0.147764
450 0.149375
455 0.321353
460 0.360157
465 0.410524
470 0.666366
475 1.15578
480 41.1427
485 727.239
490 1091.76
495 250.26
500 29.9497
505 4.54228
510 1.52575
515 1.03598
520 1.04554
525 1.27128
530 1.08311
535 1.06076
540 0.9023
545 0.929566
550 0.882331
555 0.775145
560 0.764285
565 0.970583
570 1.65955
575 1.26888
580 0.769804
585 0.546516
590 0.512443
595 0.46475
600 0.269364
Ex : 498
200 0.0624752
205 0.0741937
210 0.112372
215 0.194046
220 0.134528
225 0.0526002
230 0.109517
235 0.102837
240 0.071862
245 0.0609543
250 0.0708444
255 0.127043
260 0.0854175
265 0.071662
270 0.0949453
275 0.0757594
280 0.0751465
285 0.0866701
290 0.0834981
295 0.0842558
300 0.170643
305 0.137874
310 0.137101
315 0.146657
320 0.150446
325 0.0981292
330 0.0740302
335 0.148949
340 0.0759886
345 0.0946632
350 0.0994458
355 0.136478
360 0.154885
365 0.158994
370 0.0916262
375 0.128428
380 0.0991251
385 0.134773
390 0.0914561
395 0.0693043
400 0.0958257
405 0.140565
410 0.119746
415 0.124114
420 0.0907103
425 0.0959581
430 0.13086
435 0.127455
440 0.142644
445 0.139544
450 0.245489
455 0.298312
460 0.288546
465 0.327167
470 0.501645
475 0.572524
480 1.1388
485 50.0407
490 781.284
495 1070.38
500 249.046
505 30.0933
510 4.59535
515 1.51852
520 0.957436
525 1.05278
530 1.26454
535 1.15586
540 0.978345
545 0.777293
550 0.781884
555 0.658729
560 0.736386
565 0.697687
570 0.876612
575 1.16107
580 1.2799
585 0.659992
590 0.45339
595 0.418131
600 0.737263
Ex : 503
200 0.115284
205 0.120623
210 0.110235
215 0.114961
220 0.106683
225 0.122149
230 0.0983138
235 0.107808
240 0.0892761
245 0.136463
250 0.116078
255 0.136577
260 0.122548
265 0.0765997
270 0.194025
275 0.141561
280 0.102813
285 0.113178
290 0.103279
295 0.0955651
300 0.136092
305 0.186127
310 0.105742
315 0.0914904
320 0.087947
325 0.11321
330 0.105999
335 0.0992731
340 0.0883991
345 0.102803
350 0.105244
355 0.0686462
360 0.0734599
365 0.0797
370 0.0886224
375 0.150176
380 0.172295
385 0.101763
390 0.0813091
395 0.148581
400 0.109925
405 0.0818096
410 0.105556
415 0.0894973
420 0.157697
425 0.210726
430 0.195494
435 0.170402
440 0.1132
445 0.139102
450 0.21244
455 0.185396
460 0.242412
465 0.34043
470 0.398939
475 0.391608
480 0.77671
485 1.12331
490 46.414
495 788.043
500 1123.91
505 259.899
510 31.2985
515 4.70016
520 1.63476
525 1.03118
530 0.957019
535 1.25101
540 1.15787
545 1.00671
550 0.685313
555 0.72748
560 0.629755
565 0.601454
570 0.623397
575 0.50507
580 0.812897
585 1.07656
590 0.723767
595 0.407768
600 0.0503064
Ex : 508
200 0.103593
205 0.109058
210 0.106425
215 0.09712
220 0.112009
225 0.121825
230 0.0760103
235 0.132976
240 0.0831006
245 0.143295
250 0.125544
255 0.111409
260 0.108132
265 0.1157
270 0.132496
275 0.0900745
280 0.120234
285 0.107497
290 0.102278
295 0.0894948
300 0.101499
305 0.0695951
310 0.0496841
315 0.0973335
320 0.131589
325 0.112545
330 0.106744
335 0.149673
340 0.157041
345 0.0923976
350 0.141306
355 0.0748817
360 0.1388
365 0.145312
370 0.136495
375 0.148347
380 0.0751408
385 0.124666
390 0.2245
395 0.114953
400 0.109288
405 0.123613
410 0.180899
415 0.148856
420 0.156086
425 0.169547
430 0.167464
435 0.145934
440 0.198103
445 0.163007
450 0.108684
455 0.185238
460 0.200009
465 0.231141
470 0.277365
475 0.419725
480 0.35377
485 0.706899
490 1.15747
495 51.5522
500 802.646
505 1138.03
510 273.026
515 32.9413
520 5.00967
525 1.6686
530 1.10278
535 1.01471
540 1.00779
545 0.896513
550 0.776303
555 0.712209
560 0.650694
565 0.52706
570 0.475138
575 0.512786
580 0.453334
585 0.543395
590 0.794687
595 0.775169
600 0.798388
Ex : 513
200 0.12635
205 0.0720571
210 0.115296
215 0.0863734
220 0.132313
225 0.1354
230 0.0958897
235 0.0846879
240 0.0603933
245 0.116577
250 0.113623
255 0.155551
260 0.157461
265 0.117979
270 0.0725987
275 0.147008
280 0.150501
285 0.135041
290 0.0885891
295 0.06998
300 0.0897623
305 0.123615
310 0.137333
315 0.112519
320 0.109486
325 0.0578876
330 0.125377
335 0.146369
340 0.187591
345 0.10742
350 0.129667
355 0.162771
360 0.132533
365 0.095384
370 0.103526
375 0.115453
380 0.104347
385 0.142622
390 0.0965242
395 0.107237
400 0.10262
405 0.122354
410 0.152275
415 0.1906
420 0.14328
425 0.178947
430 0.185417
435 0.210403
440 0.117527
445 0.211111
450 0.177313
455 0.125395
460 0.274836
465 0.226087
470 0.250347
475 0.314242
480 0.276599
485 0.439367
490 0.612338
495 1.09003
500 47.3516
505 789.646
510 1164.26
515 284.98
520 34.2763
525 5.11973
530 1.5648
535 1.06427
540 0.908306
545 0.831315
550 0.863796
555 0.86009
560 0.680712
565 0.56836
570 0.554073
575 0.528286
580 0.474777
585 0.43942
590 0.443906
595 0.630254
600 1.20112
Ex : 518
200 0.102409
205 0.220023
210 0.137888
215 0.237293
220 0.135157
225 0.0910343
230 0.105101
235 0.100244
240 0.0883527
245 0.120432
250 0.114991
255 0.0941774
260 0.108545
265 0.142543
270 0.150817
275 0.0797434
280 0.0748442
285 0.138937
290 0.134331
295 0.142369
300 0.0793914
305 0.122648
310 0.102741
315 0.169382
320 0.121133
325 0.150668
330 0.102322
335 0.120868
340 0.111081
345 0.094814
350 0.132778
355 0.14649
360 0.115975
365 0.158116
370 0.10945
375 0.150139
380 0.152337
385 0.18302
390 0.11167
395 0.135344
400 0.11731
405 0.118635
410 0.149478
415 0.124234
420 0.125015
425 0.111136
430 0.139746
435 0.209043
440 0.184591
445 0.130129
450 0.179347
455 0.22656
460 0.263342
465 0.190679
470 0.222454
475 0.269728
480 0.276549
485 0.399485
490 0.429202
495 0.719217
500 1.08813
505 48.8428
510 777.013
515 1170.4
520 287.616
525 34.6858
530 5.18305
535 1.55551
540 0.978543
545 0.912321
550 0.931639
555 0.913996
560 0.753314
565 0.55373
570 0.525034
575 0.484403
580 0.539186
585 0.399893
590 0.326035
595 0.307002
600 0.266119
Ex : 523
200 0.0978723
205 0.11855
210 0.169904
215 0.100176
220 0.0809017
225 0.154164
230 0.120856
235 0.102929
240 0.0958723
245 0.0725863
250 0.157973
255 0.0847649
260 0.105599
265 0.106137
270 0.0874301
275 0.116479
280 0.127246
285 0.0998999
290 0.201578
295 0.142211
300 0.122444
305 0.0991374
310 0.0848079
315 0.143815
320 0.0984079
325 0.146554
330 0.121635
335 0.174443
340 0.15985
345 0.140865
350 0.109647
355 0.111389
360 0.138327
365 0.099266
370 0.106924
375 0.166813
380 0.146908
385 0.111046
390 0.15161
395 0.18226
400 0.135174
405 0.103489
410 0.209191
415 0.145899
420 0.104502
425 0.193459
430 0.16197
435 0.10828
440 0.126433
445 0.228585
450 0.153002
455 0.162331
460 0.19111
465 0.205816
470 0.224137
475 0.203479
480 0.185829
485 0.317426
490 0.306921
495 0.464792
500 0.644288
505 1.14126
510 43.6716
515 756.509
520 1160.17
525 297.071
530 35.6365
535 5.196
540 1.54771
545 0.849893
550 0.677113
555 0.606871
560 0.746129
565 0.502664
570 0.499775
575 0.503395
580 0.447374
585 0.479028
590 0.354829
595 0.284535
600 0.241925
Ex : 528
200 0.170226
205 0.125047
210 0.0936237
215 0.106058
220 0.136327
225 0.122662
230 0.133904
235 0.127389
240 0.115322
245 0.109949
250 0.25551
255 0.101985
260 0.25079
265 0.115011
270 0.161257
275 0.119563
280 0.0912516
285 0.215332
290 0.165106
295 0.212971
300 0.108316
305 0.177894
310 0.136137
315 0.174872
320 0.155813
325 0.0753808
330 0.131662
335 0.137798
340 0.108102
345 0.175859
350 0.156326
355 0.0984716
360 0.0759016
365 0.108686
370 0.0990724
375 0.124365
380 0.0847109
385 0.113522
390 0.120594
395 0.184911
400 0.121206
405 0.143824
410 0.138493
415 0.208606
420 0.150246
425 0.0901908
430 0.100597
435 0.207441
440 0.160329
445 0.121992
450 0.103314
455 0.166729
460 0.245017
465 0.304855
470 0.181306
475 0.184579
480 0.230402
485 0.214389
490 0.282927
495 0.276845
500 0.457783
505 0.72869
510 1.18775
515 42.4635
520 757.701
525 1168.29
530 291.947
535 35.1604
540 5.07069
545 1.45207
550 0.942826
555 0.694235
560 0.568703
565 0.545922
570 0.583216
575 0.523081
580 0.430248
585 0.475712
590 0.3516
595 0.343809
600 0.461563
Ex : 533
200 0.108767
205 0.0941583
210 0.145528
215 0.119571
220 0.153397
225 0.156484
230 0.136367
235 0.157131
240 0.0970242
245 0.164846
250 0.102204
255 0.148056
260 0.0748335
265 0.129727
270 0.102377
275 0.0994308
280 0.176026
285 0.118647
290 0.102615
295 0.147896
300 0.137242
305 0.186089
310 0.172436
315 0.16378
320 0.0937775
325 0.0882158
330 0.127385
335 0.11315
340 0.163993
345 0.145822
350 0.166952
355 0.178497
360 0.0817501
365 0.0965856
370 0.107067
375 0.119047
380 0.121451
385 0.174406
390 0.124448
395 0.132994
400 0.199042
405 0.122393
410 0.230955
415 0.147153
420 0.140908
425 0.155212
430 0.229366
435 0.181348
440 0.163349
445 0.179087
450 0.1386
455 0.0910052
460 0.21915
465 0.266347
470 0.271007
475 0.17744
480 0.175706
485 0.165091
490 0.22161
495 0.247835
500 0.303532
505 0.426578
510 0.738735
515 1.20742
520 41.9249
525 725.392
530 1143.07
535 298.112
540 35.5482
545 4.74433
550 1.31129
555 0.916127
560 0.562359
565 0.551574
570 0.512373
575 0.468194
580 0.485137
585 0.385773
590 0.351257
595 0.28277
600 0.0321782
Ex : 538
200 0.125908
205 0.0717637
210 0.156194
215 0.143767
220 0.129475
225 0.0941039
230 0.100551
235 0.136057
240 0.105334
245 0.17324
250 0.109962
255 0.0689468
260 0.121814
265 0.0917726
270 0.101913
275 0.0806476
280 0.149208
285 0.0976908
290 0.0929681
295 0.0826388
300 0.123091
305 0.175597
310 0.161397
315 0.118704
320 0.1449
325 0.125711
330 0.068558
335 0.148403
340 0.198954
345 0.176783
350 0.10806
355 0.138307
360 0.187299
365 0.118737
370 0.127296
375 0.158375
380 0.142926
385 0.18346
390 0.135405
395 0.0749939
400 0.140959
405 0.199859
410 0.175032
415 0.0903761
420 0.124867
425 0.177183
430 0.183918
435 0.147316
440 0.131009
445 0.0867938
450 0.180421
455 0.234959
460 0.201288
465 0.258635
470 0.151122
475 0.21868
480 0.296985
485 0.266388
490 0.32029
495 0.241346
500 0.255527
505 0.39303
510 0.510077
515 0.672377
520 1.07056
525 36.4946
530 696.398
535 1148.02
540 309.845
545 36.9356
550 4.99589
555 1.38388
560 0.792044
565 0.62468
570 0.541661
575 0.46186
580 0.44723
585 0.412041
590 0.354465
595 0.308495
600 1.716
Ex : 543
200 0.118494
205 0.162186
210 0.0799571
215 0.144957
220 0.149214
225 0.121685
230 0.123996
235 0.164138
240 0.108498
245 0.133757
250 0.159074
255 0.0928278
260 0.192213
265 0.11081
270 0.141159
275 0.198016
280 0.133931
285 0.155012
290 0.138454
295 0.100184
300 0.109499
305 0.208024
310 0.141912
315 0.202164
320 0.0982637
325 0.089293
330 0.090237
335 0.122801
340 0.086356
345 0.210662
350 0.201851
355 0.132666
360 0.177881
365 0.203156
370 0.156019
375 0.116838
380 0.103182
385 0.158653
390 0.105332
395 0.169878
400 0.226514
405 0.17169
410 0.172584
415 0.231829
420 0.30793
425 0.185153
430 0.11078
435 0.167792
440 0.187574
445 0.187649
450 0.15342
455 0.13513
460 0.159442
465 0.243824
470 0.215126
475 0.154157
480 0.169851
485 0.170429
490 0.260227
495 0.188905
500 0.255903
505 0.347752
510 0.337736
515 0.47607
520 0.812314
525 1.0249
530 32.6273
535 676.054
540 1160.83
545 321.069
550 38.4702
555 5.16139
560 1.21175
565 0.630267
570 0.488898
575 0.415659
580 0.439243
585 0.379091
590 0.412095
595 0.327321
600 0.135171
Ex : 548
200 0.246922
205 0.135646
210 0.158446
215 0.144579
220 0.167163
225 0.156979
230 0.20404
235 0.145609
240 0.155501
245 0.177806
250 0.11394
255 0.0718025
260 0.120069
265 0.170666
270 0.160034
275 0.137464
280 0.134656
285 0.159062
290 0.145395
295 0.121185
300 0.0920208
305 0.227794
310 0.171245
315 0.14322
320 0.112961
325 0.124118
330 0.0995075
335 0.129218
340 0.118295
345 0.179033
350 0.175285
355 0.174032
360 0.219182
365 0.117275
370 0.171108
375 0.126816
380 0.12216
385 0.223964
390 0.140075
395 0.126579
400 0.130618
405 0.129374
410 0.2377
415 0.262711
420 0.198777
425 0.205985
430 0.127382
435 0.113583
440 0.205705
445 0.17771
450 0.197757
455 0.163065
460 0.156919
465 0.2011
470 0.286226
475 0.183027
480 0.271118
485 0.266343
490 0.255212
495 0.256833
500 0.221316
505 0.2901
510 0.320157
515 0.439617
520 0.39234
525 0.627974
530 1.00629
535 36.2883
540 674.945
545 1127.8
550 311.533
555 37.051
560 5.06806
565 1.12636
570 0.755307
575 0.429675
580 0.408507
585 0.38049
590 0.347295
595 0.290921
600 0.0331057
Ex : 553
200 0.135764
205 0.0781242
210 0.107371
215 0.151454
220 0.0748099
225 0.165644
230 0.204843
235 0.149929
240 0.133203
245 0.227787
250 0.139531
255 0.105714
260 0.117323
265 0.17186
270 0.179912
275 0.0851249
280 0.208014
285 0.230751
290 0.155551
295 0.192408
300 0.139531
305 0.15114
310 0.114087
315 0.127683
320 0.157623
325 0.140788
330 0.188374
335 0.185267
340 0.13111
345 0.136295
350 0.114366
355 0.128008
360 0.168971
365 0.0887344
370 0.171226
375 0.176815
380 0.202453
385 0.219445
390 0.205578
395 0.195708
400 0.119696
405 0.137864
410 0.279097
415 0.140968
420 0.197217
425 0.187146
430 0.196875
435 0.155247
440 0.14074
445 0.109043
450 0.134562
455 0.159851
460 0.175388
465 0.166496
470 0.131875
475 0.141715
480 0.212825
485 0.195472
490 0.232335
495 0.207674
500 0.267956
505 0.2172
510 0.259223
515 0.346939
520 0.29704
525 0.451074
530 0.592717
535 0.970117
540 31.4414
545 642.287
550 1109.99
555 314.349
560 37.4146
565 5.00171
570 0.990945
575 0.576926
580 0.497876
585 0.447533
590 0.387892
595 0.344915
600 0.920271
Ex : 558
200 0.144403
205 0.0843527
210 0.16496
215 0.197659
220 0.173385
225 0.125277
230 0.0930355
235 0.169825
240 0.154592
245 0.123355
250 0.158321
255 0.0858197
260 0.109861
265 0.155847
270 0.194149
275 0.158522
280 0.113299
285 0.198176
290 0.172171
295 0.101889
300 0.0988087
305 0.123314
310 0.124567
315 0.094481
320 0.128318
325 0.158955
330 0.135669
335 0.101838
340 0.199085
345 0.216906
350 0.168988
355 0.10608
360 0.0756209
365 0.121127
370 0.191464
375 0.247327
380 0.0954434
385 0.139606
390 0.177762
395 0.187262
400 0.198576
405 0.178789
410 0.103859
415 0.156016
420 0.176908
425 0.166522
430 0.155319
435 0.155471
440 0.140571
445 0.153996
450 0.213016
455 0.144008
460 0.13478
465 0.122458
470 0.20763
475 0.215295
480 0.233162
485 0.175822
490 0.171286
495 0.269688
500 0.186184
505 0.130657
510 0.169877
515 0.199283
520 0.303395
525 0.287708
530 0.415907
535 0.518939
540 0.971318
545 29.1542
550 606.4
555 1097.9
560 311.668
565 37.289
570 4.87907
575 1.03701
580 0.617307
585 0.357184
590 0.326573
595 0.336933
600 0.389581
Ex : 563
200 0.214328
205 0.135816
210 0.101264
215 0.0748905
220 0.10896
225 0.163129
230 0.216215
235 0.187615
240 0.212
245 0.209978
250 0.169067
255 0.110364
260 0.127647
265 0.183688
270 0.137737
275 0.147693
280 0.113971
285 0.158362
290 0.0929973
295 0.127396
300 0.0831703
305 0.1627
310 0.196847
315 0.124226
320 0.201937
325 0.188674
330 0.143478
335 0.192343
340 0.132763
345 0.191496
350 0.146337
355 0.102646
360 0.109348
365 0.240819
370 0.180203
375 0.132166
380 0.29862
385 0.100607
390 0.13845
395 0.25166
400 0.245651
405 0.263509
410 0.215018
415 0.120978
420 0.195709
425 0.193383
430 0.177277
435 0.182393
440 0.104322
445 0.121561
450 0.113786
455 0.125173
460 0.141323
465 0.223005
470 0.183747
475 0.23385
480 0.170865
485 0.168905
490 0.280065
495 0.327581
500 0.287049
505 0.173963
510 0.216953
515 0.226608
520 0.299446
525 0.291965
530 0.292889
535 0.511173
540 0.7104
545 1.00564
550 29.0483
555 589.297
560 1054.57
565 305.376
570 36.1886
575 4.61631
580 1.01999
585 0.459393
590 0.382374
595 0.363427
600 1.66328
Ex : 568
200 0.276151
205 0.180471
210 0.085705
215 0.106866
220 0.239749
225 0.176307
230 0.169898
235 0.215659
240 0.177542
245 0.221844
250 0.209934
255 0.186709
260 0.084332
265 0.119226
270 0.153236
275 0.115252
280 0.23312
285 0.174252
290 0.099772
295 0.191362
300 0.154983
305 0.145572
310 0.117944
315 0.142137
320 0.0906317
325 0.186731
330 0.0978109
335 0.116438
340 0.244833
345 0.105762
350 0.166277
355 0.13151
360 0.215838
365 0.213856
370 0.154068
375 0.104131
380 0.118309
385 0.168457
390 0.20133
395 0.264279
400 0.150721
405 0.116289
410 0.191865
415 0.160226
420 0.129866
425 0.110998
430 0.206186
435 0.241252
440 0.184237
445 0.200298
450 0.158881
455 0.193161
460 0.135851
465 0.207335
470 0.205734
475 0.181525
480 0.245562
485 0.242527
490 0.257472
495 0.270553
500 0.222325
505 0.279934
510 0.254604
515 0.199555
520 0.223775
525 0.189454
530 0.26232
535 0.298909
540 0.452097
545 0.477895
550 0.701187
555 22.2132
560 529.668
565 1013.41
570 306.844
575 36.8592
580 4.93133
585 0.918071
590 0.473599
595 0.430311
600 0.264838
Ex : 573
200 0.206142
205 0.117657
210 0.122054
215 0.168171
220 0.178908
225 0.1751
230 0.114653
235 0.219682
240 0.169564
245 0.131647
250 0.131576
255 0.171136
260 0.087339
265 0.0928212
270 0.106334
275 0.226818
280 0.118657
285 0.231289
290 0.181157
295 0.128727
300 0.162045
305 0.141583
310 0.186038
315 0.0954435
320 0.140264
325 0.229493
330 0.168286
335 0.150257
340 0.18971
345 0.171152
350 0.208465
355 0.14668
360 0.187387
365 0.0937391
370 0.14137
375 0.128493
380 0.191466
385 0.242774
390 0.131147
395 0.142701
400 0.242181
405 0.118699
410 0.141902
415 0.280454
420 0.190467
425 0.125826
430 0.169597
435 0.186692
440 0.204879
445 0.15737
450 0.11254
455 0.146934
460 0.151152
465 0.241896
470 0.184561
475 0.1325
480 0.173801
485 0.224461
490 0.266633
495 0.231951
500 0.196238
505 0.183909
510 0.1547
515 0.199996
520 0.177661
525 0.242511
530 0.333489
535 0.312443
540 0.355679
545 0.445258
550 0.521407
555 0.68566
560 18.691
565 466.054
570 947.878
575 292.712
580 34.9498
585 4.45777
590 0.890014
595 0.439521
600 0.237821
Ex : 578
200 0.220743
205 0.120651
210 0.0549416
215 0.135139
220 0.0953626
225 0.174436
230 0.123654
235 0.138862
240 0.149198
245 0.112534
250 0.204814
255 0.173014
260 0.15983
265 0.141502
270 0.145026
275 0.144454
280 0.0979032
285 0.173195
290 0.120665
295 0.212343
300 0.160973
305 0.147893
310 0.227437
315 0.120453
320 0.14921
325 0.219342
330 0.207647
335 0.139158
340 0.213872
345 0.0750985
350 0.0773281
355 0.147652
360 0.104154
365 0.154625
370 0.231906
375 0.240841
380 0.196381
385 0.110315
390 0.184762
395 0.139543
400 0.157081
405 0.143665
410 0.140449
415 0.183474
420 0.129189
425 0.169906
430 0.150331
435 0.192029
440 0.173032
445 0.0901986
450 0.138834
455 0.240654
460 0.258563
465 0.241294
470 0.1733
475 0.249074
480 0.195579
485 0.113507
490 0.207896
495 0.147544
500 0.145439
505 0.251283
510 0.162815
515 0.214865
520 0.236687
525 0.28202
530 0.152986
535 0.22372
540 0.244728
545 0.333651
550 0.470927
555 0.472499
560 0.87876
565 16.7915
570 422.992
575 827.3
580 253.105
585 30.0866
590 3.89548
595 0.757264
600 0.624008
Ex : 583
200 0.137563
205 0.128131
210 0.174621
215 0.111863
220 0.102156
225 0.120946
230 0.148499
235 0.179805
240 0.200541
245 0.156596
250 0.126344
255 0.0964834
260 0.171538
265 0.140171
270 0.1257
275 0.167222
280 0.148105
285 0.191211
290 0.179994
295 0.100259
300 0.0782076
305 0.147724
310 0.230861
315 0.426358
320 0.208768
325 0.226104
330 0.207006
335 0.143551
340 0.144571
345 0.102242
350 0.191291
355 0.236342
360 0.153859
365 0.0870177
370 0.132302
375 0.198367
380 0.232448
385 0.233427
390 0.214312
395 0.216072
400 0.197739
405 0.217473
410 0.176018
415 0.167307
420 0.192976
425 0.165109
430 0.127233
435 0.16367
440 0.178106
445 0.139499
450 0.168627
455 0.178351
460 0.13994
465 0.198515
470 0.140522
475 0.2381
480 0.173947
485 0.141983
490 0.156037
495 0.145983
500 0.19266
505 0.340273
510 0.135809
515 0.230558
520 0.203507
525 0.213697
530 0.177532
535 0.145865
540 0.230505
545 0.235897
550 0.22091
555 0.312823
560 0.362773
565 0.666355
570 13.6561
575 366.549
580 706.724
585 208.75
590 24.9304
595 3.18573
600 0.362524
Ex : 588
200 0.186067
205 0.146935
210 0.185842
215 0.188249
220 0.200955
225 0.190749
230 0.145589
235 0.184855
240 0.138198
245 0.100754
250 0.2373
255 0.174344
260 0.115629
265 0.127403
270 0.0784365
275 0.179053
280 0.116357
285 0.150601
290 0.167125
295 0.0946679
300 0.13944
305 0.155924
310 0.154213
315 0.166404
320 0.214024
325 0.214641
330 0.168395
335 0.138741
340 0.126698
345 0.114969
350 0.185302
355 0.161257
360 0.139491
365 0.164009
370 0.154872
375 0.0980615
380 0.132525
385 0.227733
390 0.18973
395 0.0841643
400 0.141227
405 0.200465
410 0.218585
415 0.283382
420 0.228736
425 0.179904
430 0.119442
435 0.183696
440 0.167865
445 0.177699
450 0.139995
455 0.157853
460 0.225297
465 0.212979
470 0.116783
475 0.18544
480 0.192581
485 0.156421
490 0.140093
495 0.156996
500 0.136859
505 0.13091
510 0.187129
515 0.149634
520 0.239464
525 0.164088
530 0.231891
535 0.185837
540 0.266948
545 0.261006
550 0.237674
555 0.182505
560 0.322333
565 0.419103
570 0.505208
575 12.1736
580 319.268
585 611.379
590 185.972
595 22.2362
600 3.09079
Ex : 593
200 0.161302
205 0.28609
210 0.186348
215 0.222841
220 0.142265
225 0.09463
230 0.103379
235 0.118689
240 0.129828
245 0.210388
250 0.236649
255 0.231796
260 0.114789
265 0.136928
270 0.175947
275 0.161931
280 0.116113
285 0.0975294
290 0.0913991
295 0.137718
300 0.144876
305 0.203351
310 0.244247
315 0.191667
320 0.111887
325 0.151252
330 0.101404
335 0.118987
340 0.264014
345 0.141769
350 0.11906
355 0.130188
360 0.126154
365 0.235585
370 0.237105
375 0.147435
380 0.269194
385 0.116411
390 0.157674
395 0.173963
400 0.147388
405 0.19369
410 0.243069
415 0.158454
420 0.205566
425 0.246109
430 0.149051
435 0.121524
440 0.149599
445 0.143281
450 0.221982
455 0.241817
460 0.22947
465 0.193355
470 0.1942
475 0.237705
480 0.159748
485 0.197647
490 0.225371
495 0.201761
500 0.119733
505 0.144379
510 0.164937
515 0.200009
520 0.175913
525 0.168872
530 0.100608
535 0.173757
540 0.164505
545 0.327827
550 0.255426
555 0.223999
560 0.462397
565 0.387051
570 0.379291
575 0.486183
580 10.9868
585 280.879
590 525.224
595 158.502
600 24.7036
Ex : 598
200 0.179568
205 0.0871684
210 0.158517
215 0.231868
220 0.183012
225 0.12559
230 0.135659
235 0.124925
240 0.184173
245 0.141221
250 0.115886
255 0.0859042
260 0.227016
265 0.127744
270 0.111002
275 0.312034
280 0.158902
285 0.158533
290 0.135807
295 0.133222
300 0.219721
305 0.156593
310 0.205915
315 0.143899
320 0.185312
325 0.180973
330 0.12529
335 0.162804
340 0.17111
345 0.1555
350 0.17439
355 0.231635
360 0.153567
365 0.24347
370 0.222037
375 0.315386
380 0.232092
385 0.133553
390 0.166645
395 0.106976
400 0.247217
405 0.103454
410 0.178599
415 0.187169
420 0.120857
425 0.16446
430 0.143053
435 0.243909
440 0.132706
445 0.141052
450 0.20053
455 0.177316
460 0.200254
465 0.156091
470 0.20574
475 0.237132
480 0.142877
485 0.263603
490 0.167712
495 0.143103
500 0.191907
505 0.112081
510 0.158243
515 0.223873
520 0.267276
525 0.199769
530 0.13558
535 0.242352
540 0.309407
545 0.278657
550 0.297453
555 0.120063
560 0.313213
565 0.40083
570 0.284122
575 0.319362
580 0.449915
585 10.4437
590 253.058
595 459.484
600 288.622
Ex : 603
200 0.133582
205 0.17416
210 0.230042
215 0.140317
220 0.102902
225 0.130959
230 0.0923328
235 0.28475
240 0.116186
245 0.192599
250 0.106192
255 0.186219
260 0.148292
265 0.146641
270 0.084465
275 0.193141
280 0.143542
285 0.140683
290 0.143361
295 0.156389
300 0.173116
305 0.152147
310 0.0838098
315 0.146472
320 0.171881
325 0.17548
330 0.195819
335 0.152075
340 0.243469
345 0.207981
350 0.18494
355 0.108702
360 0.15424
365 0.166365
370 0.161998
375 0.16927
380 0.10834
385 0.174381
390 0.209506
395 0.133977
400 0.164821
405 0.215632
410 0.296333
415 0.13934
420 0.238765
425 0.252711
430 0.252163
435 0.284663
440 0.148536
445 0.161152
450 0.11551
455 0.244129
460 0.156537
465 0.262435
470 0.138906
475 0.138675
480 0.245323
485 0.370342
490 0.183915
495 0.220785
500 0.210515
505 0.124178
510 0.244593
515 0.0984427
520 0.306779
525 0.22803
530 0.285564
535 0.154671
540 0.189611
545 0.194341
550 0.190582
555 0.288498
560 0.359409
565 0.271221
570 0.374884
575 0.313732
580 0.346453
585 0.340559
590 9.34589
595 221.677
600 445.82
