File format V 1.0
ven. 6. janv. 05:24:20 2017
Operator : 
Comments : 

=============================================
SpectroFluorometer parameters
Mode : 3D measurement
Data : Fluorescence
Phospho. : Ordinary
Spectrum : Fluorescence

Scan speed : 2400 nm/mn
Response : 100 ms
PM Voltage : 700 V
Shutter : On

Lambda Ex. Start : 203
Lambda Ex. End : 603
Lambda Ex. Step : 5
Ex. Slit : 5 nm

Lambda Em. Start : 200
Lambda Em. End : 600
Lambda Em. Step : 5
Em. Slit : 5 nm

Repetition : 1
Decal lambda em : 10
=============================================
DATA
Ex : 203
200 4.78916
205 1.81023
210 1.97297
215 2.35025
220 2.98699
225 4.70637
230 5.5128
235 5.75309
240 4.40968
245 2.5083
250 4.16977
255 3.75904
260 3.0227
265 2.24873
270 3.43843
275 4.62421
280 1.92433
285 2.79857
290 5.97022
295 1.71971
300 1.35958
305 4.40625
310 3.45176
315 3.27439
320 2.34385
325 5.49208
330 3.88907
335 2.82423
340 4.73432
345 2.58809
350 2.90031
355 4.92069
360 4.00961
365 6.96231
370 3.39783
375 6.04148
380 2.50738
385 5.48624
390 2.27967
395 4.50865
400 2.76181
405 3.01216
410 1.73463
415 3.38252
420 3.83438
425 3.65584
430 4.43309
435 3.21885
440 5.37871
445 3.54829
450 7.08957
455 5.26656
460 4.89186
465 3.55366
470 3.28879
475 3.0512
480 5.85242
485 5.38126
490 4.38013
495 6.14731
500 3.46893
505 2.88539
510 4.80953
515 2.02978
520 5.34755
525 5.17166
530 2.31258
535 1.28838
540 4.37809
545 3.08391
550 3.17232
555 2.52609
560 4.27232
565 2.61072
570 3.59446
575 5.36624
580 6.06838
585 1.2851
590 3.04389
595 4.00197
600 0.455409
Ex : 208
200 4.625
205 4.07112
210 4.21726
215 4.31325
220 3.17174
225 1.96613
230 2.93251
235 2.3428
240 1.83081
245 1.91217
250 3.16449
255 5.07283
260 1.83092
265 3.75941
270 4.34372
275 2.44506
280 6.02735
285 6.7067
290 3.47166
295 5.52791
300 1.7393
305 2.37721
310 2.22778
315 4.05073
320 2.05939
325 3.23584
330 5.13792
335 2.34601
340 4.94448
345 3.16589
350 4.65452
355 3.19389
360 5.07463
365 2.25436
370 4.05928
375 3.62929
380 3.91117
385 4.50076
390 2.11631
395 2.74435
400 6.66442
405 4.10309
410 4.34199
415 1.69888
420 5.27706
425 5.13483
430 3.33596
435 5.30877
440 3.24029
445 7.51591
450 7.86286
455 3.49393
460 2.06222
465 7.58368
470 3.08397
475 4.8859
480 4.88658
485 3.58632
490 4.18614
495 2.93047
500 6.38546
505 2.88534
510 3.60572
515 3.43415
520 3.09371
525 4.15846
530 2.17033
535 2.60271
540 5.14225
545 3.61721
550 1.65887
555 2.18841
560 3.41844
565 2.48417
570 1.52891
575 2.38351
580 5.54151
585 2.5327
590 6.32731
595 4.29959
600 0.489277
Ex : 213
200 1.5
205 8.15789
210 3.32799
215 2.17235
220 5.36156
225 6.51996
230 4.41336
235 7.72595
240 3.51061
245 4.8099
250 4.33644
255 1.7964
260 2.88426
265 5.82376
270 3.15646
275 3.06296
280 3.48479
285 3.74321
290 2.03187
295 3.95865
300 3.08872
305 1.45142
310 7.31769
315 3.23405
320 2.80657
325 3.8537
330 2.7715
335 2.24096
340 4.1879
345 2.43664
350 5.99023
355 3.68112
360 2.37072
365 3.93813
370 3.24987
375 2.57238
380 4.39075
385 4.97612
390 5.16202
395 2.91641
400 3.68035
405 4.49535
410 6.10321
415 6.30367
420 2.76404
425 6.07486
430 4.58209
435 4.02432
440 3.85228
445 5.83292
450 2.80699
455 2.92367
460 3.90328
465 2.65969
470 4.94046
475 3.31749
480 3.93845
485 3.95997
490 4.88733
495 3.41967
500 6.23918
505 1.64895
510 2.12885
515 2.90087
520 3.35658
525 2.73157
530 7.49894
535 6.91994
540 7.18712
545 6.89618
550 3.97729
555 6.09107
560 2.9029
565 3.26967
570 5.57641
575 1.97194
580 3.46863
585 7.51544
590 5.20893
595 2.50844
600 0.285451
Ex : 218
200 1.17284
205 7.42249
210 4.81306
215 3.19068
220 0.820301
225 2.66888
230 5.37323
235 2.71115
240 2.58311
245 4.8474
250 2.66017
255 5.16156
260 2.27115
265 3.16023
270 3.62576
275 2.9081
280 2.3558
285 1.89755
290 1.56228
295 5.26382
300 3.64959
305 1.51331
310 3.05376
315 3.21792
320 4.92218
325 2.71154
330 3.32506
335 11.058
340 4.53177
345 1.93032
350 3.48013
355 4.51171
360 3.38429
365 1.37746
370 5.13131
375 3.55562
380 4.02846
385 7.55396
390 8.23283
395 2.68068
400 1.70547
405 6.5826
410 5.38891
415 5.57375
420 2.10963
425 6.05819
430 5.39525
435 2.15863
440 5.10224
445 5.67101
450 7.8274
455 6.01039
460 6.28191
465 3.72581
470 5.31946
475 1.32943
480 3.29731
485 2.25121
490 5.53648
495 4.49135
500 4.96499
505 5.41724
510 3.2978
515 9.36169
520 4.18365
525 3.53752
530 5.50083
535 4.39361
540 2.44646
545 3.90106
550 4.7578
555 3.98034
560 4.38548
565 3.44251
570 2.94446
575 3.03197
580 0.930037
585 4.52003
590 3.1674
595 2.55912
600 0.291218
Ex : 223
200 2.84358
205 2.18663
210 4.88513
215 2.0168
220 1.57502
225 3.75042
230 2.19355
235 3.75898
240 2.04085
245 1.91026
250 5.92513
255 2.27812
260 3.30692
265 1.87405
270 4.37505
275 1.17016
280 2.00052
285 2.45727
290 2.60923
295 1.65991
300 5.03884
305 2.75442
310 4.39723
315 2.09882
320 4.60777
325 2.72403
330 4.91517
335 2.94654
340 3.67009
345 2.15931
350 6.59157
355 2.98977
360 3.96233
365 2.15039
370 3.76234
375 3.43617
380 3.47632
385 2.98837
390 4.44597
395 3.43426
400 6.55546
405 7.99083
410 4.42792
415 5.41298
420 4.14418
425 3.22151
430 4.47302
435 4.18119
440 6.1721
445 4.73284
450 4.51569
455 3.76328
460 1.91891
465 4.74916
470 2.59504
475 5.52912
480 3.41516
485 7.19445
490 3.62673
495 4.69324
500 4.30864
505 3.05816
510 2.87923
515 4.51342
520 4.39075
525 2.16464
530 3.17465
535 6.53682
540 4.86147
545 2.97987
550 6.09653
555 4.47043
560 2.31083
565 4.55156
570 4.05189
575 2.21175
580 3.72479
585 2.34054
590 2.77039
595 2.92956
600 0.333373
Ex : 228
200 4.52514
205 5.95877
210 2.66078
215 2.65581
220 6.59076
225 3.89333
230 2.21045
235 8.0877
240 3.50641
245 2.11201
250 2.95136
255 2.23349
260 1.606
265 5.7857
270 6.77267
275 4.50647
280 3.56943
285 3.72696
290 1.69012
295 3.58778
300 4.50001
305 3.94612
310 6.44961
315 3.82613
320 1.63177
325 6.14652
330 2.06674
335 3.80085
340 3.25591
345 2.66448
350 4.50662
355 2.31971
360 4.03409
365 4.3042
370 4.0439
375 5.05359
380 3.31235
385 3.21387
390 3.28346
395 4.29057
400 2.76776
405 3.96048
410 2.53706
415 3.79981
420 3.95866
425 1.82007
430 1.83675
435 3.61284
440 4.07445
445 4.04521
450 3.94184
455 3.42621
460 4.88219
465 4.32976
470 3.27498
475 3.85531
480 2.06505
485 3.39301
490 3.42729
495 4.01585
500 1.9748
505 2.64668
510 2.43881
515 2.56731
520 5.52178
525 4.15256
530 2.50813
535 3.71272
540 3.78347
545 3.88674
550 2.08453
555 2.21872
560 2.62268
565 4.37499
570 2.99767
575 2.74147
580 2.69464
585 2.64253
590 2.35709
595 2.7905
600 0.317548
Ex : 233
200 2.75789
205 1.70192
210 2.97333
215 2.34003
220 2.30411
225 1.96537
230 5.73414
235 5.41761
240 6.3846
245 3.12169
250 3.78004
255 3.82105
260 3.36105
265 2.7054
270 4.54898
275 2.73788
280 1.8865
285 1.46422
290 3.28571
295 1.75585
300 1.58304
305 1.35266
310 3.32583
315 2.01095
320 1.36429
325 4.07859
330 7.06778
335 6.68708
340 2.28595
345 2.47327
350 6.15141
355 2.89077
360 4.23352
365 6.40033
370 2.55885
375 3.9061
380 3.95296
385 2.62631
390 7.3745
395 5.0144
400 3.49462
405 6.38541
410 3.20516
415 4.76984
420 5.85058
425 5.3411
430 4.02114
435 3.04803
440 5.57176
445 3.81589
450 2.85076
455 4.21461
460 3.50857
465 1.91915
470 2.45374
475 3.07872
480 2.77855
485 3.09418
490 3.39118
495 3.29772
500 1.3361
505 6.40903
510 7.43062
515 3.74332
520 4.22399
525 2.01049
530 1.56271
535 1.91937
540 6.73906
545 5.60656
550 3.3579
555 3.8523
560 3.77137
565 2.21994
570 2.60674
575 6.21521
580 8.51694
585 3.06967
590 3.35231
595 2.66645
600 0.303432
Ex : 238
200 2.90045
205 1.49237
210 2.66583
215 4.66053
220 2.64487
225 2.73386
230 2.43047
235 1.73341
240 3.34913
245 2.28987
250 6.36689
255 3.57389
260 3.95151
265 1.66672
270 1.64321
275 2.33347
280 4.21239
285 2.29223
290 1.97737
295 1.9739
300 5.27598
305 2.95094
310 2.19932
315 1.78177
320 2.07502
325 2.19489
330 2.01792
335 3.36226
340 3.61465
345 1.92039
350 2.79895
355 2.49898
360 3.38406
365 2.78281
370 1.71745
375 6.50704
380 2.82852
385 3.65235
390 2.36527
395 2.67623
400 3.2238
405 2.09535
410 2.24471
415 2.05697
420 3.07562
425 2.73723
430 2.83977
435 2.68637
440 2.89291
445 2.32421
450 4.69953
455 3.56126
460 2.81412
465 2.26307
470 3.09682
475 3.50335
480 4.11828
485 2.92088
490 5.92464
495 2.7016
500 2.40571
505 2.49569
510 2.30032
515 5.32394
520 3.55848
525 2.24343
530 1.6811
535 4.83877
540 1.99783
545 2.04116
550 3.39069
555 1.67124
560 2.7337
565 1.12005
570 1.26686
575 1.22557
580 2.67762
585 1.62783
590 1.60317
595 4.15314
600 4.90363
Ex : 243
200 1.26357
205 4.08324
210 2.94882
215 3.93946
220 1.09604
225 1.88312
230 1.65903
235 2.78256
240 4.21664
245 1.04792
250 0.939422
255 1.43621
260 3.1306
265 1.81364
270 0.79248
275 1.3118
280 1.76157
285 2.1824
290 3.7447
295 1.76607
300 1.63146
305 2.61069
310 2.29628
315 2.00787
320 2.02892
325 4.0561
330 1.28769
335 2.63669
340 2.09489
345 3.62314
350 2.04155
355 2.07203
360 2.21826
365 2.9218
370 3.62196
375 1.68902
380 1.43945
385 1.93989
390 1.74954
395 4.5924
400 3.2366
405 2.70235
410 2.29433
415 1.79111
420 2.51365
425 2.36535
430 4.33156
435 2.34695
440 2.50455
445 2.45898
450 2.19751
455 4.59669
460 3.75552
465 2.34404
470 3.05348
475 2.40902
480 5.24652
485 3.14487
490 2.95242
495 2.35536
500 1.99203
505 1.79643
510 3.82248
515 1.35222
520 1.76969
525 2.84919
530 3.03732
535 3.09079
540 2.03621
545 3.07919
550 1.79893
555 4.22586
560 4.24908
565 1.73682
570 4.0873
575 2.00508
580 1.40069
585 2.73224
590 1.60154
595 1.46315
600 0.166501
Ex : 248
200 4.21754
205 1.89372
210 1.7735
215 2.05507
220 3.60568
225 3.13348
230 1.74652
235 2.27465
240 1.20878
245 2.26791
250 1.75048
255 1.48317
260 1.4633
265 1.65407
270 1.77665
275 5.20417
280 1.4722
285 1.81719
290 0.670991
295 1.24834
300 1.12414
305 1.24623
310 1.58532
315 1.67473
320 1.95097
325 1.98198
330 2.24232
335 2.13983
340 0.867674
345 2.3604
350 1.18842
355 2.76653
360 1.20749
365 2.91846
370 3.02427
375 1.82219
380 0.874264
385 2.56624
390 3.16222
395 1.44299
400 2.00642
405 1.8388
410 1.90703
415 2.18289
420 1.22047
425 1.18931
430 2.60405
435 1.49128
440 4.23913
445 1.97526
450 2.20466
455 1.53663
460 3.45236
465 3.96782
470 1.45305
475 1.53196
480 1.35594
485 3.21629
490 2.7838
495 2.79816
500 3.78938
505 3.21686
510 2.14141
515 2.40246
520 2.34913
525 2.17266
530 1.6082
535 0.923416
540 2.2145
545 2.99515
550 3.58711
555 2.12444
560 2.75368
565 1.80883
570 0.841718
575 2.57773
580 3.07347
585 3.04256
590 1.17944
595 0.507842
600 0.0577905
Ex : 253
200 1.6547
205 1.9067
210 1.78203
215 1.62273
220 0.764007
225 1.97409
230 1.5223
235 1.21478
240 1.1157
245 1.55909
250 2.01858
255 2.02957
260 1.93421
265 1.17448
270 0.874211
275 3.36013
280 1.58254
285 1.52822
290 0.734263
295 1.43994
300 4.10117
305 1.59393
310 1.0701
315 1.84146
320 1.13022
325 1.45669
330 3.97123
335 2.98837
340 1.00782
345 1.57059
350 1.25573
355 1.53941
360 2.23378
365 1.88614
370 1.42801
375 0.991612
380 2.06904
385 1.22997
390 1.86945
395 3.13771
400 2.03045
405 1.48304
410 1.96848
415 1.7898
420 1.58868
425 0.749769
430 1.67219
435 1.68622
440 2.45746
445 1.4638
450 2.18155
455 1.87896
460 1.65299
465 1.98752
470 1.84611
475 1.32024
480 1.65502
485 2.25941
490 2.13392
495 1.86253
500 1.51271
505 1.17567
510 1.78819
515 2.40406
520 2.89772
525 2.6256
530 1.7707
535 1.11708
540 1.07143
545 2.52447
550 1.3216
555 3.1215
560 1.99357
565 1.77835
570 2.15687
575 1.60153
580 1.35417
585 1.26185
590 0.965821
595 2.40655
600 0.273856
Ex : 258
200 1.94235
205 0.904509
210 2.13668
215 0.86811
220 1.78568
225 1.62668
230 0.776568
235 1.41377
240 2.61938
245 1.43804
250 0.665825
255 0.671697
260 1.5291
265 1.2355
270 0.801825
275 0.655366
280 1.79339
285 1.63414
290 2.37438
295 2.37713
300 1.34812
305 1.31875
310 0.870608
315 1.12086
320 0.922211
325 1.22292
330 1.3626
335 0.968234
340 1.42513
345 0.621101
350 1.49597
355 1.42375
360 1.41619
365 1.48079
370 1.326
375 2.94902
380 2.82355
385 1.66609
390 2.07577
395 1.43024
400 1.20454
405 0.541475
410 2.05074
415 1.34461
420 1.89067
425 1.97984
430 1.0766
435 2.16257
440 2.96955
445 1.16274
450 1.87147
455 1.7594
460 1.29403
465 0.997693
470 2.26491
475 2.23435
480 1.55403
485 1.61959
490 1.45479
495 0.579904
500 1.88192
505 1.03706
510 1.63441
515 1.75078
520 1.7565
525 0.964716
530 0.823115
535 1.01298
540 1.38858
545 0.989442
550 1.06871
555 1.13809
560 1.14721
565 1.68836
570 1.65922
575 2.06795
580 0.659161
585 0.615378
590 1.08061
595 1.45425
600 0.165488
Ex : 263
200 0.691652
205 0.508058
210 1.60489
215 1.21069
220 0.358561
225 0.745531
230 0.787472
235 1.31356
240 0.719181
245 1.12354
250 1.58785
255 1.00153
260 0.462666
265 0.38036
270 0.924966
275 1.41987
280 0.688049
285 0.796428
290 1.37525
295 1.44096
300 1.90021
305 0.805026
310 1.91509
315 1.05717
320 0.944964
325 2.48958
330 1.00354
335 0.632311
340 0.579241
345 1.03171
350 0.8504
355 1.26467
360 1.51542
365 2.21535
370 1.8117
375 0.819345
380 2.74408
385 1.63076
390 1.11447
395 1.27521
400 0.761738
405 1.6364
410 1.05598
415 1.11126
420 1.35005
425 1.47231
430 1.86764
435 2.19831
440 1.61367
445 1.02085
450 2.37726
455 0.99674
460 0.874748
465 0.561516
470 1.52199
475 1.32315
480 0.975444
485 0.967114
490 1.32538
495 0.907412
500 1.2823
505 0.647602
510 1.19994
515 1.5906
520 1.76866
525 0.754761
530 1.3627
535 1.89252
540 0.823959
545 0.548424
550 1.11402
555 0.97113
560 1.01736
565 0.711641
570 1.01366
575 1.56909
580 0.773406
585 1.33751
590 1.24339
595 0.503209
600 0.0572633
Ex : 268
200 0.595206
205 0.925783
210 0.455042
215 0.723406
220 0.991622
225 0.979988
230 0.737868
235 0.430065
240 1.06344
245 0.447818
250 1.06514
255 0.982566
260 0.714808
265 1.90899
270 0.585184
275 1.65792
280 0.868608
285 0.65018
290 0.778193
295 0.608138
300 0.715344
305 1.04146
310 0.482085
315 1.15212
320 0.643481
325 0.947438
330 1.26253
335 1.07626
340 1.07233
345 0.475794
350 1.65314
355 1.521
360 1.05808
365 0.832035
370 1.13201
375 1.37401
380 0.790743
385 1.35002
390 0.868537
395 0.698362
400 1.8652
405 1.9717
410 0.996305
415 1.20289
420 0.540573
425 1.5566
430 0.661704
435 1.02931
440 0.675332
445 1.11195
450 0.869258
455 1.32741
460 0.44968
465 0.761094
470 1.1195
475 1.41685
480 0.451437
485 0.969522
490 0.650433
495 1.43222
500 0.761048
505 0.716687
510 0.997944
515 0.576504
520 1.00676
525 0.488149
530 0.918782
535 1.17304
540 0.727907
545 0.542611
550 0.965914
555 0.607959
560 0.775949
565 0.952742
570 0.892828
575 1.00707
580 1.37625
585 0.725097
590 0.407294
595 0.694144
600 1.71847
Ex : 273
200 0.649198
205 0.291557
210 0.75154
215 0.386442
220 0.423364
225 0.3125
230 0.887186
235 0.609323
240 0.654
245 0.442317
250 0.312102
255 1.70383
260 0.514823
265 0.486609
270 1.069
275 0.517981
280 0.418577
285 0.649673
290 0.32351
295 0.427444
300 0.845262
305 0.347572
310 0.70372
315 0.45327
320 1.1674
325 1.37811
330 0.865392
335 0.32315
340 0.521641
345 0.622601
350 0.693162
355 0.795323
360 0.720433
365 1.12825
370 0.989549
375 1.37016
380 0.979031
385 0.846545
390 0.574922
395 0.682167
400 1.05109
405 1.09415
410 0.982809
415 0.505602
420 1.23594
425 0.762151
430 1.15772
435 0.937471
440 1.27596
445 1.4447
450 0.736905
455 0.90821
460 0.561303
465 0.76785
470 0.737196
475 1.14714
480 0.91277
485 0.883652
490 0.653479
495 0.480222
500 0.649337
505 0.471523
510 0.514522
515 1.32553
520 0.785103
525 0.612698
530 0.694313
535 0.463225
540 1.14275
545 0.832389
550 1.07929
555 0.482631
560 0.420794
565 0.210854
570 1.0783
575 0.455155
580 0.698925
585 0.339334
590 0.357456
595 0.515604
600 0.0586738
Ex : 278
200 0.276801
205 0.883587
210 0.674115
215 0.318548
220 0.755112
225 0.441831
230 0.355482
235 0.737431
240 0.273648
245 0.387048
250 0.276127
255 0.222969
260 0.273574
265 0.553458
270 0.906266
275 0.425243
280 0.387906
285 0.158184
290 0.382303
295 0.248074
300 0.675901
305 0.698204
310 0.286525
315 0.952742
320 1.21279
325 0.988287
330 0.401529
335 0.374294
340 0.587157
345 0.550783
350 0.49579
355 1.11466
360 0.713718
365 0.672547
370 1.07263
375 0.539516
380 0.910608
385 0.809904
390 0.702608
395 0.527389
400 1.15134
405 0.778175
410 0.969199
415 0.625638
420 0.760817
425 0.807925
430 0.834456
435 0.911053
440 1.0095
445 0.636779
450 0.535276
455 0.809561
460 0.914401
465 0.878301
470 0.504689
475 0.553642
480 0.806192
485 0.315459
490 0.652525
495 0.671359
500 0.316928
505 0.906486
510 0.832599
515 0.888327
520 0.853885
525 0.351166
530 0.699664
535 0.701914
540 0.606529
545 0.541402
550 0.903503
555 1.00246
560 0.943747
565 0.503626
570 0.447558
575 0.191107
580 1.11838
585 0.875126
590 0.280837
595 0.491996
600 0.285744
Ex : 283
200 0.511983
205 0.290923
210 0.391261
215 0.329469
220 0.283121
225 0.712869
230 0.345926
235 0.423907
240 0.839005
245 0.24643
250 0.544778
255 0.598036
260 0.253523
265 0.580784
270 0.328428
275 0.319998
280 0.270691
285 0.263335
290 0.304611
295 0.727878
300 0.568875
305 0.514431
310 0.322253
315 0.176088
320 0.417325
325 0.351109
330 0.532364
335 0.371462
340 0.375241
345 0.602922
350 0.463853
355 0.338572
360 0.833056
365 0.544179
370 0.945515
375 0.397354
380 0.37894
385 0.800704
390 1.08712
395 0.822833
400 0.431361
405 0.516299
410 0.469369
415 0.505691
420 0.698964
425 0.587152
430 0.408414
435 0.665578
440 0.921281
445 0.808226
450 0.56911
455 0.669375
460 0.62834
465 0.746799
470 0.374966
475 0.497818
480 0.532936
485 0.408012
490 0.392831
495 0.743263
500 0.252329
505 0.291949
510 0.342032
515 0.578436
520 0.496527
525 0.540421
530 0.416505
535 0.579899
540 0.668373
545 0.234378
550 0.999016
555 0.475838
560 0.375161
565 0.734061
570 0.662425
575 0.134505
580 0.481524
585 0.545036
590 0.217716
595 0.345262
600 0.0392895
Ex : 288
200 0.195983
205 0.522324
210 0.373598
215 0.320263
220 0.28825
225 0.186026
230 0.406665
235 0.457168
240 0.2217
245 0.157669
250 0.316068
255 0.619793
260 0.4942
265 0.451806
270 0.603058
275 0.262364
280 0.55604
285 0.3066
290 0.263466
295 0.497745
300 0.200629
305 0.231189
310 0.389739
315 0.184507
320 0.586716
325 0.451025
330 0.406795
335 0.420698
340 0.23416
345 0.216314
350 0.326395
355 0.431011
360 0.563056
365 0.494717
370 0.543874
375 0.446203
380 0.789369
385 0.672827
390 0.554721
395 0.889524
400 0.607783
405 0.390972
410 0.534293
415 0.506924
420 0.862095
425 0.620136
430 0.513399
435 0.393259
440 0.714967
445 0.967564
450 0.552933
455 0.509262
460 0.407013
465 0.757891
470 0.592569
475 0.244019
480 0.420293
485 0.643161
490 0.580135
495 0.406698
500 0.640353
505 0.447865
510 0.305349
515 0.421978
520 0.23402
525 0.323484
530 0.299189
535 0.253145
540 0.545212
545 0.186394
550 0.358295
555 0.496025
560 0.304078
565 0.515265
570 0.361281
575 0.733596
580 0.298647
585 0.203718
590 0.194758
595 0.172959
600 0.0196821
Ex : 293
200 0.372165
205 0.244833
210 0.345224
215 0.149713
220 0.191311
225 0.170085
230 0.294046
235 0.312581
240 0.394743
245 0.183245
250 0.331442
255 0.613126
260 0.362099
265 0.191684
270 0.203503
275 0.355829
280 0.333106
285 0.327869
290 0.166683
295 0.335535
300 0.192705
305 0.571506
310 0.376417
315 0.398973
320 0.333244
325 0.326529
330 0.287221
335 0.370352
340 0.385445
345 0.316611
350 0.667774
355 0.688192
360 0.575758
365 0.67985
370 0.773867
375 0.398025
380 0.426088
385 0.903305
390 0.920008
395 0.561764
400 0.506332
405 0.611783
410 0.55967
415 0.426543
420 0.545399
425 0.385365
430 0.83504
435 0.531444
440 0.69592
445 0.515203
450 0.415597
455 0.267471
460 0.325993
465 0.576647
470 0.420471
475 0.74244
480 0.620873
485 0.568685
490 0.317648
495 0.471677
500 0.334421
505 0.376776
510 0.539076
515 0.439557
520 0.512448
525 0.411215
530 0.192791
535 0.311668
540 0.30063
545 0.316373
550 0.302281
555 0.432361
560 0.569414
565 0.426361
570 0.378473
575 0.270359
580 0.3103
585 0.363002
590 0.204071
595 0.299055
600 0.0340313
Ex : 298
200 0.132399
205 0.246775
210 0.108285
215 0.173161
220 0.184964
225 0.552045
230 0.222482
235 0.32844
240 0.34869
245 0.337367
250 0.425047
255 0.371393
260 0.142422
265 0.36413
270 0.101375
275 0.209729
280 0.265486
285 0.25847
290 0.280218
295 0.329569
300 0.175502
305 0.236706
310 0.267357
315 0.357172
320 0.368094
325 0.212839
330 0.356144
335 0.378263
340 0.474888
345 0.211632
350 0.353037
355 0.416891
360 0.571471
365 0.445806
370 0.400707
375 0.513174
380 0.320887
385 0.428638
390 0.54534
395 0.49893
400 0.509118
405 0.643852
410 0.32687
415 0.571098
420 0.680109
425 0.779721
430 0.351204
435 0.566048
440 0.55366
445 0.411099
450 0.425669
455 0.203625
460 0.290408
465 0.354316
470 0.405018
475 0.341357
480 0.425706
485 0.485541
490 0.367725
495 0.27181
500 0.189511
505 0.268001
510 0.212963
515 0.239364
520 0.203123
525 0.460049
530 0.239981
535 0.28418
540 0.315476
545 0.277335
550 0.401807
555 0.433013
560 0.334991
565 0.260169
570 0.215333
575 0.202789
580 0.31901
585 0.537754
590 0.297249
595 0.337758
600 0.239086
Ex : 303
200 0.158485
205 0.250883
210 0.093554
215 0.125295
220 0.12512
225 0.322392
230 0.429432
235 0.327782
240 0.488521
245 0.232417
250 0.307678
255 0.264718
260 0.101241
265 0.176646
270 0.276278
275 0.154369
280 0.111343
285 0.516266
290 0.244377
295 0.161498
300 0.296641
305 0.237946
310 0.131255
315 0.104836
320 0.14313
325 0.22586
330 0.205805
335 0.378598
340 0.244273
345 0.60266
350 0.340248
355 0.418074
360 0.421857
365 0.233716
370 0.49111
375 0.474189
380 0.600931
385 0.728052
390 0.469701
395 0.490496
400 0.428064
405 0.597743
410 0.403809
415 0.606937
420 0.352861
425 0.530848
430 0.424721
435 0.770231
440 0.536925
445 0.42803
450 0.343877
455 0.356321
460 0.336525
465 0.287443
470 0.412708
475 0.331791
480 0.221993
485 0.317799
490 0.278894
495 0.345493
500 0.309196
505 0.229042
510 0.642569
515 0.37071
520 0.213376
525 0.480507
530 0.182274
535 0.39697
540 0.126616
545 0.180464
550 0.210041
555 0.29703
560 0.226333
565 0.103425
570 0.221387
575 0.199121
580 0.445091
585 0.193976
590 0.281417
595 0.395018
600 0.579487
Ex : 308
200 0.130184
205 0.341743
210 0.193025
215 0.226801
220 0.272196
225 0.153116
230 0.333618
235 0.236154
240 0.186232
245 0.222768
250 0.222487
255 0.173273
260 0.161256
265 0.0988315
270 0.31514
275 0.207522
280 0.128379
285 0.118601
290 0.180602
295 0.209568
300 0.175786
305 0.251491
310 0.0980771
315 0.179633
320 0.433157
325 0.274562
330 0.329879
335 0.349335
340 0.268137
345 0.419563
350 0.374112
355 0.28553
360 0.302062
365 0.428444
370 0.443358
375 0.33837
380 0.33451
385 0.375567
390 0.368898
395 0.618825
400 0.637385
405 0.699543
410 0.563707
415 0.43101
420 0.389895
425 0.539609
430 0.544232
435 0.414898
440 0.342817
445 0.284351
450 0.346241
455 0.291388
460 0.455982
465 0.350842
470 0.340666
475 0.371396
480 0.443563
485 0.433437
490 0.215487
495 0.238537
500 0.140077
505 0.23346
510 0.249723
515 0.182447
520 0.354263
525 0.274942
530 0.225058
535 0.20931
540 0.317598
545 0.337693
550 0.221874
555 0.14164
560 0.366711
565 0.232109
570 0.129748
575 0.0932815
580 0.222758
585 0.0917992
590 0.242344
595 0.18236
600 0.232942
Ex : 313
200 0.0848665
205 0.163018
210 0.0972773
215 0.126639
220 0.237688
225 0.0626332
230 0.214953
235 0.339609
240 0.235198
245 0.171018
250 0.156615
255 0.125233
260 0.164392
265 0.0591342
270 0.11962
275 0.233641
280 0.258929
285 0.0625424
290 0.0860857
295 0.163285
300 0.112588
305 0.149625
310 0.320594
315 0.173472
320 0.293425
325 0.168363
330 0.320585
335 0.442281
340 0.45603
345 0.472036
350 0.430359
355 0.423997
360 0.376208
365 0.514032
370 0.893877
375 0.644825
380 0.79632
385 0.809783
390 0.81498
395 0.884781
400 1.01863
405 0.881912
410 0.932804
415 1.05924
420 0.999837
425 0.767179
430 0.878356
435 0.744633
440 0.567616
445 0.640996
450 0.612613
455 0.861184
460 0.806325
465 0.468321
470 0.590298
475 0.480806
480 0.459481
485 0.265391
490 0.306675
495 0.433901
500 0.299026
505 0.382986
510 0.32067
515 0.269312
520 0.162979
525 0.138482
530 0.203951
535 0.305013
540 0.240549
545 0.27937
550 0.317305
555 0.144454
560 0.244243
565 0.181963
570 0.252331
575 0.119898
580 0.205149
585 0.179703
590 0.11254
595 0.0802409
600 0.00913111
Ex : 318
200 0.0988663
205 0.0817334
210 0.14791
215 0.088948
220 0.198661
225 0.182616
230 0.206771
235 0.162959
240 0.11866
245 0.157594
250 0.171501
255 0.184452
260 0.0992748
265 0.0987825
270 0.0887427
275 0.0944316
280 0.143072
285 0.16988
290 0.267072
295 0.221354
300 0.213365
305 0.110877
310 0.237489
315 1.4931
320 1.04527
325 0.600494
330 0.449801
335 0.720326
340 1.05449
345 1.50865
350 2.14511
355 2.98332
360 3.42458
365 4.25185
370 5.47094
375 6.4813
380 7.20321
385 7.72771
390 9.05077
395 9.24477
400 9.59385
405 9.95168
410 10.2971
415 10.1651
420 9.16214
425 9.35552
430 8.29136
435 8.70308
440 7.77918
445 7.59149
450 6.93842
455 6.96701
460 6.4354
465 5.58417
470 5.13907
475 4.41629
480 4.48623
485 3.79535
490 2.99573
495 2.98239
500 2.50949
505 2.05419
510 1.81919
515 1.65848
520 1.48144
525 1.19043
530 0.853585
535 0.767737
540 0.833085
545 0.723171
550 0.541676
555 0.39812
560 0.328075
565 0.319631
570 0.348916
575 0.185635
580 0.191839
585 0.137463
590 0.105272
595 0.17381
600 0.647092
Ex : 323
200 0.118652
205 0.0750851
210 0.123368
215 0.12638
220 0.125734
225 0.198487
230 0.115379
235 0.122445
240 0.126322
245 0.0542185
250 0.103701
255 0.118506
260 0.188499
265 0.127837
270 0.0915265
275 0.247002
280 0.0919897
285 0.145417
290 0.201366
295 0.179205
300 0.0887079
305 0.262367
310 0.215351
315 13.5561
320 63.6773
325 26.1648
330 5.20942
335 3.28023
340 4.53038
345 5.99642
350 9.12139
355 11.9835
360 14.6812
365 17.2465
370 20.3001
375 24.0823
380 27.3084
385 30.4996
390 34.2009
395 35.2372
400 37.6153
405 37.6012
410 37.9486
415 37.2345
420 37
425 35.1868
430 33.4569
435 32.7034
440 31.32
445 30.3491
450 28.1399
455 25.4378
460 23.7221
465 21.8839
470 20.9505
475 18.8588
480 16.7588
485 14.9525
490 13.363
495 11.9662
500 10.5953
505 9.30441
510 8.3444
515 7.09622
520 6.05799
525 5.08948
530 4.78189
535 3.26762
540 3.01793
545 2.39726
550 2.42896
555 1.65252
560 1.31516
565 1.06618
570 1.18882
575 0.629364
580 0.448387
585 0.487711
590 0.347047
595 0.190986
600 0.0217335
Ex : 328
200 0.128487
205 0.0698794
210 0.167548
215 0.21535
220 0.209038
225 0.195704
230 0.215717
235 0.114209
240 0.158984
245 0.173758
250 0.152704
255 0.0878363
260 0.0643069
265 0.149027
270 0.0859004
275 0.0740994
280 0.127322
285 0.154957
290 0.210139
295 0.144699
300 0.113418
305 0.203822
310 0.247871
315 3.47536
320 147.059
325 347.572
330 103.384
335 15.7935
340 7.19342
345 7.10254
350 9.53772
355 12.9655
360 17.4316
365 19.9589
370 23.6492
375 25.3863
380 28.6952
385 32.3543
390 34.8082
395 36.4964
400 37.8144
405 39.4467
410 40.3189
415 39.3409
420 37.9151
425 36.2763
430 34.7354
435 33.0073
440 31.3065
445 30.3019
450 27.9551
455 26.9267
460 24.1595
465 22.8361
470 20.9504
475 18.9675
480 17.1264
485 16.0921
490 13.7001
495 12.0649
500 11.3901
505 9.95376
510 8.51918
515 7.36814
520 6.10978
525 5.11256
530 4.65856
535 4.13458
540 3.61498
545 2.82848
550 2.47311
555 1.86805
560 1.85695
565 1.41478
570 1.0696
575 0.824405
580 0.587415
585 0.54509
590 0.429745
595 0.399369
600 0.516492
Ex : 333
200 0.264944
205 0.135764
210 0.155901
215 0.0892591
220 0.104864
225 0.124057
230 0.0803318
235 0.132283
240 0.087972
245 0.0659255
250 0.124013
255 0.0996412
260 0.109003
265 0.0917708
270 0.148934
275 0.13712
280 0.196772
285 0.174735
290 0.142545
295 0.235972
300 0.210912
305 0.218567
310 0.232182
315 0.272522
320 20.0402
325 401.756
330 683.447
335 175.258
340 24.7534
345 7.76348
350 5.89934
355 7.0921
360 9.81725
365 14.331
370 15.5006
375 14.5421
380 15.7908
385 19.1519
390 21.3428
395 23.0624
400 22.7803
405 23.3214
410 23.8127
415 23.3312
420 23.2698
425 20.736
430 20.1286
435 19.2703
440 17.4637
445 16.8342
450 15.9459
455 14.689
460 13.6565
465 12.648
470 11.8045
475 10.4615
480 9.30698
485 8.64764
490 7.95623
495 7.18384
500 6.06559
505 5.3423
510 4.96566
515 4.31696
520 3.97028
525 3.36693
530 2.74236
535 2.37902
540 1.80656
545 1.55652
550 1.42611
555 1.23078
560 1.02127
565 0.889244
570 0.693992
575 0.707003
580 0.566337
585 0.452215
590 0.46469
595 0.294774
600 0.386585
Ex : 338
200 0.177848
205 0.119607
210 0.104703
215 0.0514053
220 0.0497783
225 0.118971
230 0.0839392
235 0.0919031
240 0.08943
245 0.0573618
250 0.0809238
255 0.157195
260 0.0986632
265 0.0878265
270 0.135796
275 0.23366
280 0.138631
285 0.107671
290 0.127108
295 0.30835
300 0.129675
305 0.161414
310 0.326335
315 0.283939
320 0.440737
325 35.4034
330 590.504
335 879.678
340 214.35
345 28.1877
350 7.1199
355 4.68402
360 4.22338
365 5.7585
370 10.2705
375 10.7562
380 10.1001
385 10.1646
390 12.7739
395 13.3889
400 13.4422
405 13.1908
410 14.0025
415 14.5521
420 14.834
425 13.0804
430 12.4019
435 11.9405
440 11.5294
445 10.5593
450 9.77715
455 9.17471
460 8.06572
465 7.19544
470 7.21263
475 6.48551
480 5.83129
485 5.11089
490 4.25326
495 4.33983
500 3.79677
505 3.32406
510 2.82396
515 2.48756
520 2.43858
525 2.21336
530 1.61193
535 1.70744
540 1.43949
545 1.14908
550 1.05053
555 1.06809
560 0.877388
565 0.799478
570 0.598363
575 0.58203
580 0.636695
585 0.548303
590 0.365767
595 0.394039
600 0.0448401
Ex : 343
200 0.190416
205 0.110303
210 0.0573344
215 0.113233
220 0.108329
225 0.140393
230 0.187147
235 0.102303
240 0.180638
245 0.152513
250 0.166153
255 0.24578
260 0.136238
265 0.169125
270 0.14431
275 0.149545
280 0.134377
285 0.104871
290 0.123878
295 0.174019
300 0.181619
305 0.115664
310 0.164643
315 0.201818
320 0.376425
325 0.701004
330 42.48
335 673.569
340 981.084
345 235.373
350 30.154
355 6.34113
360 3.48669
365 2.64921
370 3.80423
375 7.65326
380 9.20567
385 9.28777
390 10.5303
395 10.8092
400 9.77795
405 10.6598
410 12.1942
415 12.5957
420 11.7696
425 10.6848
430 10.3638
435 9.86672
440 9.48347
445 9.27604
450 8.29438
455 7.50563
460 6.92616
465 6.41327
470 5.57396
475 5.15435
480 5.21818
485 4.65493
490 4.58221
495 4.00712
500 3.37417
505 3.16867
510 2.67418
515 2.33992
520 1.79995
525 1.72636
530 1.71383
535 1.34702
540 1.14155
545 1.08274
550 1.10458
555 0.956113
560 0.770858
565 0.753476
570 0.636553
575 0.538215
580 0.424167
585 0.439996
590 0.445399
595 0.300094
600 0.0341496
Ex : 348
200 0.126259
205 0.0854264
210 0.102095
215 0.0654699
220 0.114426
225 0.0645646
230 0.0903459
235 0.138255
240 0.108543
245 0.104905
250 0.0800567
255 0.0540978
260 0.0759886
265 0.114997
270 0.0621581
275 0.104941
280 0.0807644
285 0.11588
290 0.0806309
295 0.111192
300 0.116441
305 0.164608
310 0.144957
315 0.154051
320 0.223298
325 0.42175
330 0.938313
335 42.9299
340 680.176
345 1030.43
350 260.33
355 32.8091
360 6.33548
365 3.08246
370 2.1738
375 2.61093
380 7.35963
385 12.5732
390 13.8769
395 13.0952
400 11.8132
405 11.7927
410 14.1132
415 15.9415
420 14.3501
425 12.6282
430 11.8656
435 11.2407
440 11.5116
445 10.5314
450 9.26595
455 8.37946
460 7.61668
465 7.27981
470 6.87338
475 6.55596
480 5.5754
485 5.08854
490 4.64023
495 4.27466
500 4.07251
505 3.48201
510 3.12102
515 2.71872
520 2.40874
525 2.27795
530 1.89412
535 1.54498
540 1.53044
545 1.3193
550 1.17991
555 1.13405
560 0.943774
565 0.692202
570 0.568649
575 0.503164
580 0.478773
585 0.368946
590 0.399738
595 0.346814
600 0.333021
Ex : 353
200 0.0788003
205 0.103371
210 0.0780305
215 0.0874193
220 0.148112
225 0.111606
230 0.0646149
235 0.0824179
240 0.127572
245 0.101711
250 0.11682
255 0.11355
260 0.0675224
265 0.124748
270 0.100762
275 0.17288
280 0.102504
285 0.145661
290 0.0614191
295 0.0862472
300 0.0999803
305 0.142027
310 0.183626
315 0.234765
320 0.336929
325 0.290071
330 0.500891
335 1.02821
340 45.146
345 708.804
350 1026.27
355 251.358
360 31.6219
365 6.26637
370 3.06465
375 2.32561
380 3.47385
385 8.3913
390 15.6477
395 16.5282
400 13.963
405 13.0688
410 15.4459
415 17.212
420 16.569
425 13.9346
430 12.5247
435 12.3865
440 12.011
445 12.1216
450 10.6034
455 9.50097
460 8.84667
465 7.90148
470 7.44017
475 6.7329
480 6.23072
485 5.89324
490 5.20451
495 4.74585
500 4.10275
505 3.66141
510 3.3138
515 2.86275
520 2.49134
525 2.25204
530 2.04492
535 1.71981
540 1.36476
545 1.35304
550 1.26587
555 1.08503
560 0.883698
565 0.820125
570 0.777446
575 0.647762
580 0.443385
585 0.472018
590 0.320328
595 0.299013
600 0.145435
Ex : 358
200 0.122264
205 0.0920048
210 0.097556
215 0.161384
220 0.0892113
225 0.0775524
230 0.119573
235 0.0826234
240 0.0607616
245 0.0813406
250 0.0852648
255 0.176057
260 0.0730031
265 0.058487
270 0.0951745
275 0.137656
280 0.06404
285 0.0888982
290 0.098714
295 0.115911
300 0.155938
305 0.108335
310 0.174776
315 0.164283
320 0.191851
325 0.191939
330 0.327109
335 0.478188
340 1.06939
345 42.9088
350 675.748
355 1035.11
360 258.323
365 32.0782
370 6.09088
375 3.21252
380 3.5549
385 5.77141
390 11.2512
395 16.4313
400 14.827
405 14.0888
410 14.8316
415 16.3698
420 15.7548
425 13.6118
430 12.2464
435 12.1082
440 12.0519
445 11.3967
450 10.7077
455 9.47817
460 8.70063
465 7.61181
470 7.56644
475 7.0053
480 6.34262
485 5.53519
490 5.23298
495 5.10791
500 4.25263
505 4.10961
510 3.69218
515 3.16977
520 2.7683
525 2.4523
530 2.23868
535 1.72429
540 1.60568
545 1.43541
550 1.29097
555 1.07195
560 1.10294
565 0.853696
570 0.64797
575 0.539874
580 0.452888
585 0.408425
590 0.363518
595 0.296666
600 0.0337595
Ex : 363
200 0.0382933
205 0.0472232
210 0.102135
215 0.0859049
220 0.0617945
225 0.0535472
230 0.10033
235 0.0945452
240 0.0736678
245 0.0794259
250 0.0676277
255 0.0947873
260 0.14833
265 0.105786
270 0.102678
275 0.0949829
280 0.103516
285 0.0884714
290 0.0906413
295 0.173886
300 0.115114
305 0.122349
310 0.128489
315 0.102632
320 0.119466
325 0.116218
330 0.151018
335 0.292381
340 0.504164
345 1.10426
350 39.6898
355 658.386
360 1032.33
365 264.552
370 32.8024
375 6.18694
380 4.95335
385 8.12749
390 11.2106
395 13.3888
400 15.7602
405 17.3147
410 17.9715
415 18.5275
420 16.9091
425 14.8596
430 13.8746
435 13.7029
440 13.5543
445 12.929
450 11.604
455 10.2973
460 9.07303
465 8.74408
470 8.57111
475 7.60558
480 6.92295
485 6.3599
490 5.90365
495 5.27499
500 4.69032
505 4.66741
510 3.72499
515 3.15215
520 3.04629
525 2.51313
530 2.25342
535 1.94399
540 1.90431
545 1.66295
550 1.57989
555 1.32318
560 1.07472
565 0.82993
570 0.780743
575 0.536425
580 0.502186
585 0.391689
590 0.314196
595 0.282801
600 0.42605
Ex : 368
200 0.0669174
205 0.0909206
210 0.0835986
215 0.122658
220 0.0983209
225 0.116258
230 0.0811932
235 0.0656082
240 0.104556
245 0.121359
250 0.12888
255 0.0582837
260 0.114473
265 0.0855547
270 0.149005
275 0.0961447
280 0.109671
285 0.11195
290 0.077819
295 0.14837
300 0.0980174
305 0.0774215
310 0.0531205
315 0.0888622
320 0.105087
325 0.16482
330 0.233786
335 0.177437
340 0.388834
345 0.595431
350 1.08778
355 31.8907
360 632.663
365 1056.71
370 280.008
375 34.8532
380 8.06791
385 9.78681
390 14.9534
395 16.4172
400 15.1884
405 18.309
410 23.2785
415 24.7156
420 22.3028
425 18.8338
430 16.9003
435 16.8502
440 16.9645
445 16.1888
450 14.679
455 13.1724
460 11.2276
465 10.8102
470 10.3699
475 9.37617
480 8.46527
485 7.3229
490 6.64696
495 6.14714
500 5.37268
505 5.05486
510 4.56049
515 3.71718
520 3.50129
525 2.96813
530 2.59987
535 2.21497
540 2.00289
545 1.80141
550 1.40836
555 1.48849
560 1.22757
565 1.00136
570 0.800994
575 0.653611
580 0.441855
585 0.31
590 0.377279
595 0.358837
600 0.794107
Ex : 373
200 0.0559064
205 0.0822061
210 0.0601781
215 0.0498273
220 0.130437
225 0.163436
230 0.0640113
235 0.148339
240 0.0886
245 0.0716204
250 0.159453
255 0.134272
260 0.157076
265 0.10965
270 0.0854983
275 0.0718965
280 0.0778788
285 0.0630912
290 0.0714657
295 0.0471507
300 0.0864434
305 0.0712717
310 0.0923114
315 0.178045
320 0.0929731
325 0.115654
330 0.148102
335 0.2315
340 0.270502
345 0.386393
350 0.595644
355 1.18038
360 37.7353
365 645.132
370 1043.27
375 276.035
380 35.4576
385 10.8216
390 14.1678
395 17.6657
400 15.7181
405 15.3957
410 19.775
415 25.4317
420 24.367
425 20.307
430 16.63
435 16.2996
440 16.6314
445 16.3484
450 14.788
455 12.7293
460 11.0833
465 10.3859
470 9.80189
475 9.07714
480 8.36895
485 7.45812
490 6.98716
495 6.13119
500 5.67333
505 5.22295
510 4.79652
515 3.93837
520 3.38613
525 2.98551
530 2.68976
535 2.37349
540 2.22215
545 2.0016
550 1.59425
555 1.30158
560 1.25942
565 0.943241
570 0.873542
575 0.643559
580 0.550407
585 0.380497
590 0.389418
595 0.253941
600 0.575455
Ex : 378
200 0.0642483
205 0.0633078
210 0.0865409
215 0.0903481
220 0.0520221
225 0.112486
230 0.0612904
235 0.0943048
240 0.0921922
245 0.0786674
250 0.0615682
255 0.0728751
260 0.0638718
265 0.0643976
270 0.0697984
275 0.118091
280 0.0594223
285 0.0429872
290 0.0748713
295 0.0590255
300 0.132224
305 0.107209
310 0.0695555
315 0.0684513
320 0.084824
325 0.156361
330 0.176183
335 0.153396
340 0.128802
345 0.225303
350 0.320488
355 0.543987
360 1.03359
365 34.9526
370 642.123
375 1065.39
380 287.374
385 39.3277
390 14.065
395 13.4549
400 11.7294
405 11.1633
410 13.573
415 17.4832
420 20.2808
425 17.1833
430 14.5699
435 13.1238
440 13.3045
445 12.625
450 11.7664
455 10.4731
460 9.8332
465 9.12814
470 8.50381
475 8.1553
480 7.60903
485 6.74608
490 6.04496
495 5.52771
500 5.08345
505 4.77278
510 4.1395
515 3.76881
520 3.38902
525 2.9337
530 2.51351
535 2.43086
540 2.05852
545 1.9319
550 1.42546
555 1.34569
560 1.23643
565 0.995433
570 0.774589
575 0.657823
580 0.42948
585 0.392246
590 0.364103
595 0.279433
600 0.149469
Ex : 383
200 0.096584
205 0.0467479
210 0.0575727
215 0.0739556
220 0.0444255
225 0.0674207
230 0.0487696
235 0.0501523
240 0.101729
245 0.0786572
250 0.0713479
255 0.0714373
260 0.0690122
265 0.095655
270 0.0560835
275 0.101564
280 0.0952881
285 0.0638513
290 0.088156
295 0.0977748
300 0.0797742
305 0.0881074
310 0.0781057
315 0.0849081
320 0.0871769
325 0.101015
330 0.0818234
335 0.205372
340 0.148273
345 0.192804
350 0.251977
355 0.370219
360 0.585359
365 1.15034
370 32.5305
375 635.577
380 1094.75
385 300.314
390 45.0248
395 15.2746
400 11.3173
405 12.0672
410 14.4748
415 15.9578
420 16.5781
425 16.8148
430 15.7866
435 14.4484
440 14.2498
445 13.0438
450 11.5288
455 10.3902
460 9.81468
465 9.08312
470 8.48535
475 8.3815
480 7.59025
485 6.72328
490 6.11048
495 5.66141
500 5.26841
505 5.21051
510 4.38995
515 3.99284
520 3.38608
525 3.01397
530 2.70714
535 2.32265
540 2.18188
545 1.9561
550 1.62726
555 1.37826
560 1.35993
565 1.15992
570 0.732039
575 0.653582
580 0.557553
585 0.405725
590 0.347319
595 0.258148
600 0.529821
Ex : 388
200 0.0655045
205 0.0885844
210 0.111363
215 0.0812384
220 0.0683088
225 0.0565411
230 0.0616175
235 0.0495845
240 0.0501746
245 0.111404
250 0.0739226
255 0.0825735
260 0.0954766
265 0.07237
270 0.0833415
275 0.0638751
280 0.0680565
285 0.0737428
290 0.0728075
295 0.0793263
300 0.0716358
305 0.0574527
310 0.066577
315 0.112352
320 0.0963833
325 0.107095
330 0.0813644
335 0.148382
340 0.167768
345 0.160242
350 0.230917
355 0.263876
360 0.408573
365 0.532086
370 1.09452
375 35.2063
380 656.105
385 1099.6
390 305.088
395 48.3588
400 17.4716
405 14.7183
410 17.6028
415 20.2386
420 18.8958
425 16.8844
430 17.1618
435 18.2464
440 17.5313
445 16.3968
450 14.225
455 11.826
460 10.7556
465 10.3814
470 9.97028
475 8.93702
480 8.5676
485 7.47129
490 6.69427
495 5.95405
500 5.49415
505 4.86605
510 4.4157
515 4.09194
520 3.45358
525 3.11262
530 2.73874
535 2.41926
540 2.0854
545 1.81353
550 1.6252
555 1.4204
560 1.2381
565 1.05518
570 0.927904
575 0.71643
580 0.538845
585 0.438295
590 0.310776
595 0.258534
600 0.14826
Ex : 393
200 0.0983242
205 0.101161
210 0.0513189
215 0.0968757
220 0.0758813
225 0.047056
230 0.059268
235 0.0394822
240 0.0544972
245 0.081441
250 0.0636891
255 0.0665423
260 0.0997228
265 0.076715
270 0.0484652
275 0.120497
280 0.1027
285 0.075172
290 0.0237442
295 0.0405315
300 0.0570025
305 0.115747
310 0.0644781
315 0.0678278
320 0.159917
325 0.117385
330 0.102117
335 0.115857
340 0.138363
345 0.135309
350 0.154706
355 0.182606
360 0.188049
365 0.355176
370 0.632158
375 1.12062
380 31.5631
385 646.971
390 1117.5
395 315.292
400 49.4445
405 17.2577
410 16.5429
415 20.4288
420 20.7505
425 17.1605
430 14.6951
435 14.9769
440 17.9163
445 16.7121
450 14.6513
455 11.8034
460 10.301
465 9.67682
470 9.20363
475 8.92307
480 7.72021
485 7.29978
490 6.57693
495 5.67248
500 5.34465
505 4.89353
510 4.27334
515 3.77498
520 3.51847
525 3.13971
530 2.90738
535 2.46964
540 2.23992
545 1.94078
550 1.73477
555 1.49454
560 1.30591
565 1.02917
570 0.865967
575 0.697963
580 0.485149
585 0.378076
590 0.34026
595 0.329253
600 0.063062
Ex : 398
200 0.152318
205 0.133417
210 0.0955356
215 0.0433822
220 0.0783222
225 0.0562389
230 0.0670706
235 0.0733977
240 0.052464
245 0.0387685
250 0.0757586
255 0.0589093
260 0.0458255
265 0.0686497
270 0.0442146
275 0.0680998
280 0.0798428
285 0.0889082
290 0.112612
295 0.0679052
300 0.071715
305 0.14344
310 0.0585093
315 0.0787379
320 0.0799749
325 0.0958661
330 0.0834579
335 0.0973467
340 0.0660569
345 0.0962815
350 0.154077
355 0.15591
360 0.188556
365 0.242068
370 0.340923
375 0.643571
380 1.40413
385 33.009
390 662.599
395 1137.33
400 309.799
405 43.9663
410 13.9499
415 13.2431
420 13.4676
425 11.2222
430 9.52367
435 8.98188
440 10.4106
445 12.8396
450 11.6438
455 9.29753
460 7.99564
465 7.33227
470 7.00453
475 6.99849
480 6.53681
485 5.80551
490 5.19739
495 4.805
500 4.52091
505 3.99764
510 3.75662
515 3.72645
520 3.25574
525 2.74734
530 2.50466
535 2.34323
540 2.16237
545 1.81668
550 1.5947
555 1.41344
560 1.2399
565 0.991623
570 0.834806
575 0.760158
580 0.55825
585 0.367615
590 0.266225
595 0.232009
600 0.0264018
Ex : 403
200 0.0896072
205 0.0729345
210 0.0513164
215 0.139406
220 0.0552572
225 0.0619179
230 0.0852534
235 0.0701245
240 0.0825375
245 0.0603597
250 0.0608185
255 0.0534136
260 0.0620713
265 0.0684468
270 0.0823821
275 0.148489
280 0.0543775
285 0.0998559
290 0.0727516
295 0.0756528
300 0.0761098
305 0.0583158
310 0.0631206
315 0.0958325
320 0.0626998
325 0.0927342
330 0.112878
335 0.129742
340 0.106022
345 0.148775
350 0.154501
355 0.127865
360 0.221281
365 0.215906
370 0.224475
375 0.427628
380 0.71139
385 1.47125
390 37.0538
395 672.983
400 1119.4
405 304.602
410 40.2156
415 10.8616
420 7.59835
425 6.63035
430 6.01112
435 5.91148
440 6.40559
445 7.21594
450 8.79472
455 8.84344
460 7.16245
465 6.53443
470 5.74018
475 5.68394
480 5.47034
485 5.05112
490 4.77503
495 4.30813
500 4.06039
505 3.86841
510 3.42862
515 3.11542
520 2.87582
525 2.69942
530 2.56334
535 2.12029
540 1.94256
545 1.64541
550 1.51181
555 1.2274
560 1.23337
565 0.945516
570 0.770775
575 0.66395
580 0.466607
585 0.406367
590 0.314369
595 0.290154
600 0.0782329
Ex : 408
200 0.0460425
205 0.0491008
210 0.0944478
215 0.0633791
220 0.0554767
225 0.0689936
230 0.0813416
235 0.110126
240 0.0415866
245 0.0773362
250 0.0694497
255 0.054572
260 0.119472
265 0.145727
270 0.0386475
275 0.0446039
280 0.0788236
285 0.0419526
290 0.0481455
295 0.074868
300 0.0683355
305 0.068744
310 0.0863042
315 0.0860194
320 0.0764507
325 0.0992756
330 0.131072
335 0.128597
340 0.0932259
345 0.0923611
350 0.108768
355 0.097995
360 0.113758
365 0.182752
370 0.234047
375 0.288904
380 0.342953
385 0.589024
390 1.37672
395 34.2624
400 680.674
405 1134.97
410 300.054
415 40.2796
420 10.2876
425 6.52226
430 5.87344
435 5.88805
440 6.21329
445 6.35678
450 6.74044
455 7.41504
460 8.65936
465 7.15511
470 6.61484
475 6.05646
480 5.44787
485 5.08737
490 4.69271
495 4.50041
500 4.16143
505 3.814
510 3.46785
515 3.22108
520 2.86444
525 2.5321
530 2.41839
535 2.15352
540 1.94719
545 1.75472
550 1.6693
555 1.41373
560 1.15075
565 1.04723
570 0.766832
575 0.595215
580 0.475664
585 0.407226
590 0.342728
595 0.219034
600 0.421464
Ex : 413
200 0.0467378
205 0.0851095
210 0.050323
215 0.0528923
220 0.0366169
225 0.0654833
230 0.100421
235 0.0584468
240 0.043351
245 0.022117
250 0.0480902
255 0.0999877
260 0.0567443
265 0.0734984
270 0.04061
275 0.0363144
280 0.0577409
285 0.113097
290 0.0573721
295 0.0484893
300 0.0311466
305 0.0346504
310 0.0678506
315 0.105006
320 0.118384
325 0.0518734
330 0.11692
335 0.111068
340 0.100239
345 0.0849551
350 0.12871
355 0.123766
360 0.120943
365 0.234815
370 0.173891
375 0.204355
380 0.244505
385 0.439524
390 0.688673
395 1.25489
400 38.3759
405 696.029
410 1128.43
415 292.694
420 39.0308
425 9.26796
430 5.67966
435 5.45895
440 6.00774
445 5.89526
450 5.56148
455 5.35129
460 6.08638
465 7.77926
470 6.94427
475 5.99495
480 5.50554
485 4.9599
490 4.49535
495 4.09395
500 4.15239
505 3.63352
510 3.50166
515 3.15822
520 2.76808
525 2.55472
530 2.2103
535 2.03029
540 1.84931
545 1.52628
550 1.27657
555 1.21332
560 1.06562
565 0.960272
570 0.759351
575 0.693221
580 0.485509
585 0.393861
590 0.257962
595 0.233983
600 0.10242
Ex : 418
200 0.0698656
205 0.0816082
210 0.0677625
215 0.0434599
220 0.0546248
225 0.0800781
230 0.0912786
235 0.0800712
240 0.0591139
245 0.0581681
250 0.080966
255 0.0615291
260 0.0596851
265 0.0942527
270 0.0694355
275 0.0789296
280 0.049995
285 0.0326927
290 0.0442036
295 0.119325
300 0.0499037
305 0.03393
310 0.0609273
315 0.0774499
320 0.0445113
325 0.0694057
330 0.0977261
335 0.0719553
340 0.0544024
345 0.0822892
350 0.104839
355 0.101385
360 0.121044
365 0.13928
370 0.145123
375 0.192271
380 0.190841
385 0.317258
390 0.440759
395 0.6243
400 1.24717
405 37.0413
410 686.793
415 1124.75
420 299.081
425 38.1037
430 7.53642
435 3.93684
440 4.12741
445 4.14704
450 3.6636
455 3.46619
460 3.47963
465 3.97724
470 5.71489
475 5.98347
480 4.69501
485 4.2499
490 3.73736
495 3.44186
500 3.33676
505 3.00648
510 2.91167
515 2.63666
520 2.42802
525 2.24693
530 2.11682
535 1.84012
540 1.67293
545 1.45771
550 1.35664
555 1.22286
560 1.13485
565 0.931708
570 0.783084
575 0.582119
580 0.455243
585 0.370611
590 0.278318
595 0.275458
600 0.0547442
Ex : 423
200 0.0514751
205 0.0644394
210 0.0309937
215 0.0440351
220 0.0494606
225 0.0573045
230 0.0558278
235 0.0795666
240 0.06459
245 0.0787732
250 0.0574986
255 0.0283786
260 0.0526784
265 0.0823675
270 0.0517159
275 0.0435076
280 0.0802123
285 0.0497545
290 0.0753672
295 0.114539
300 0.0576696
305 0.073417
310 0.0616388
315 0.0854183
320 0.0899747
325 0.0838591
330 0.062399
335 0.0917394
340 0.0673098
345 0.06924
350 0.0841364
355 0.0831586
360 0.0700138
365 0.156737
370 0.147682
375 0.163781
380 0.184194
385 0.196175
390 0.257241
395 0.441622
400 0.676124
405 1.40276
410 37.835
415 707.502
420 1123.43
425 286.949
430 35.6516
435 6.25435
440 2.79522
445 2.6946
450 2.28509
455 2.08609
460 2.12154
465 2.37038
470 2.79004
475 4.6572
480 5.20133
485 4.0106
490 3.40627
495 3.14282
500 2.80752
505 2.70977
510 2.48833
515 2.40566
520 2.1201
525 2.06071
530 1.77907
535 1.73886
540 1.59415
545 1.41341
550 1.30394
555 1.1621
560 0.933027
565 0.916017
570 0.731539
575 0.544864
580 0.449297
585 0.316657
590 0.260308
595 0.204626
600 0.262213
Ex : 428
200 0.0631164
205 0.0687883
210 0.0520214
215 0.0581702
220 0.0338241
225 0.0708812
230 0.0759615
235 0.0418493
240 0.0646295
245 0.0305551
250 0.10779
255 0.0804519
260 0.0672273
265 0.103314
270 0.0449411
275 0.0552076
280 0.0717682
285 0.0501241
290 0.0543691
295 0.0589758
300 0.0550791
305 0.0536065
310 0.0924834
315 0.0816472
320 0.0795584
325 0.0805856
330 0.0928029
335 0.07055
340 0.0821897
345 0.081041
350 0.109355
355 0.148369
360 0.0827933
365 0.14202
370 0.121816
375 0.14156
380 0.119936
385 0.218287
390 0.223391
395 0.278207
400 0.418182
405 0.698038
410 1.23184
415 41.3057
420 705.553
425 1120.07
430 292.697
435 35.7507
440 5.60625
445 2.22824
450 1.98747
455 2.0076
460 1.73629
465 1.81758
470 1.8293
475 2.24143
480 3.47557
485 4.85636
490 3.76882
495 3.09046
500 2.83755
505 2.58761
510 2.30482
515 2.14905
520 2.05514
525 1.93409
530 1.70211
535 1.60783
540 1.39092
545 1.31731
550 1.18333
555 1.03855
560 0.913978
565 0.80444
570 0.690621
575 0.513366
580 0.409923
585 0.285284
590 0.273384
595 0.255619
600 0.0290884
Ex : 433
200 0.0578704
205 0.0810635
210 0.0959665
215 0.062201
220 0.0650967
225 0.0565112
230 0.0598597
235 0.0336405
240 0.0619212
245 0.051478
250 0.030562
255 0.0485729
260 0.0609864
265 0.0500484
270 0.0641326
275 0.112746
280 0.0893056
285 0.123711
290 0.0471803
295 0.0571916
300 0.0954135
305 0.065331
310 0.0474643
315 0.0752688
320 0.0573315
325 0.0523843
330 0.0633697
335 0.0690344
340 0.0884913
345 0.0766245
350 0.0853769
355 0.100479
360 0.0711292
365 0.152994
370 0.149465
375 0.117063
380 0.207729
385 0.178953
390 0.155547
395 0.215126
400 0.344194
405 0.458415
410 0.653914
415 1.27962
420 44.7326
425 752.76
430 1140.52
435 286.013
440 34.744
445 5.56157
450 2.05215
455 1.84623
460 2.02986
465 1.80189
470 1.70748
475 1.65124
480 1.73265
485 2.70971
490 4.60256
495 3.80558
500 2.9227
505 2.59226
510 2.56701
515 1.97043
520 1.79926
525 1.69283
530 1.63595
535 1.51636
540 1.30054
545 1.29284
550 1.12044
555 1.06927
560 0.925622
565 0.743834
570 0.749209
575 0.528217
580 0.428648
585 0.37928
590 0.311657
595 0.253501
600 0.253352
Ex : 438
200 0.0784035
205 0.0663821
210 0.041364
215 0.0240399
220 0.0408709
225 0.0516343
230 0.0679229
235 0.0559172
240 0.0540889
245 0.0758026
250 0.121918
255 0.0963261
260 0.0475272
265 0.0583953
270 0.0568514
275 0.0792013
280 0.0747256
285 0.0522195
290 0.0864486
295 0.0586356
300 0.0344874
305 0.0620817
310 0.0532454
315 0.0474265
320 0.0405381
325 0.0503531
330 0.0882174
335 0.0328273
340 0.0745135
345 0.0705773
350 0.0918625
355 0.0628571
360 0.143448
365 0.0892546
370 0.139416
375 0.0981926
380 0.0935951
385 0.131638
390 0.123447
395 0.198342
400 0.251795
405 0.290327
410 0.362843
415 0.700673
420 1.12457
425 42.5475
430 742.052
435 1197.13
440 300.999
445 36.6259
450 5.87538
455 2.06036
460 1.82394
465 2.09154
470 1.837
475 1.58889
480 1.61617
485 1.46281
490 2.20192
495 3.68413
500 4.03402
505 2.78272
510 2.26042
515 2.30428
520 1.83962
525 1.6844
530 1.65555
535 1.42578
540 1.25866
545 1.07997
550 1.17554
555 1.00463
560 0.884076
565 0.822067
570 0.618607
575 0.486808
580 0.401699
585 0.351654
590 0.299638
595 0.259281
600 0.328819
Ex : 443
200 0.0346835
205 0.0742135
210 0.0808842
215 0.050367
220 0.0412758
225 0.0397002
230 0.0627429
235 0.055477
240 0.122376
245 0.0688551
250 0.0588726
255 0.0562224
260 0.0965094
265 0.10562
270 0.0638427
275 0.0399792
280 0.0558936
285 0.0691708
290 0.0577744
295 0.0456936
300 0.0519286
305 0.0553336
310 0.0374079
315 0.0565831
320 0.0665338
325 0.0961917
330 0.0813888
335 0.079308
340 0.0865049
345 0.0788932
350 0.115551
355 0.0928891
360 0.0982536
365 0.0906508
370 0.130534
375 0.0837623
380 0.115659
385 0.138609
390 0.119599
395 0.157242
400 0.185341
405 0.203776
410 0.294136
415 0.433001
420 0.7195
425 1.2961
430 46.6356
435 791.814
440 1213.18
445 300.847
450 36.5561
455 5.89656
460 2.09297
465 1.76703
470 1.84314
475 1.64272
480 1.44845
485 1.60662
490 1.70723
495 1.81641
500 3.06908
505 3.83912
510 2.83365
515 2.31139
520 2.02234
525 1.75858
530 1.45475
535 1.46381
540 1.29719
545 1.19393
550 0.918521
555 0.973004
560 0.942122
565 0.746226
570 0.690099
575 0.468054
580 0.416005
585 0.344234
590 0.282128
595 0.255854
600 0.0646819
Ex : 448
200 0.0554361
205 0.120774
210 0.0574902
215 0.0510336
220 0.0933355
225 0.0459585
230 0.0303138
235 0.0662464
240 0.0512072
245 0.0644192
250 0.0411281
255 0.0444553
260 0.0561135
265 0.103171
270 0.0483933
275 0.0647009
280 0.0810292
285 0.0832012
290 0.051827
295 0.0512101
300 0.051689
305 0.0510325
310 0.036876
315 0.104366
320 0.0604541
325 0.121494
330 0.0834866
335 0.111998
340 0.115663
345 0.0695652
350 0.0617057
355 0.0604094
360 0.0746133
365 0.104791
370 0.0840527
375 0.0452008
380 0.14439
385 0.118639
390 0.116102
395 0.140086
400 0.15017
405 0.177221
410 0.238416
415 0.314621
420 0.371087
425 0.713265
430 1.21005
435 48.307
440 838
445 1270.03
450 316.819
455 38.6138
460 6.25093
465 2.27133
470 1.83916
475 1.80273
480 1.57476
485 1.59011
490 1.53074
495 1.44653
500 1.55136
505 2.28935
510 3.566
515 3.05949
520 2.21455
525 2.08863
530 1.66952
535 1.35208
540 1.11352
545 0.99895
550 0.917337
555 0.848454
560 0.815824
565 0.736027
570 0.65397
575 0.495272
580 0.421704
585 0.33958
590 0.307764
595 0.249223
600 0.506911
Ex : 453
200 0.0366875
205 0.0561273
210 0.0483202
215 0.064834
220 0.070846
225 0.0370519
230 0.0946879
235 0.0737602
240 0.087343
245 0.0450971
250 0.0599022
255 0.0454497
260 0.0888973
265 0.0706452
270 0.0510424
275 0.0642004
280 0.0445187
285 0.0678478
290 0.0889696
295 0.0423622
300 0.0332178
305 0.0370395
310 0.0602359
315 0.0845237
320 0.10352
325 0.110076
330 0.112494
335 0.0712954
340 0.102999
345 0.117409
350 0.0731834
355 0.091152
360 0.107521
365 0.108108
370 0.0807817
375 0.108375
380 0.11824
385 0.132243
390 0.0948713
395 0.117509
400 0.123721
405 0.187557
410 0.239831
415 0.202301
420 0.321017
425 0.389612
430 0.675536
435 1.25969
440 50.6666
445 906.374
450 1312.1
455 308.542
460 37.5968
465 6.21262
470 2.20518
475 1.77373
480 1.85039
485 1.62902
490 1.49504
495 1.36945
500 1.38261
505 1.48141
510 1.80553
515 3.16434
520 3.2098
525 2.06739
530 1.78329
535 1.71268
540 1.25304
545 1.28268
550 1.00301
555 0.947182
560 0.819827
565 0.765826
570 0.676809
575 0.5169
580 0.426688
585 0.417377
590 0.308484
595 0.226469
600 0.312733
Ex : 458
200 0.0689601
205 0.0572119
210 0.0952968
215 0.036754
220 0.037679
225 0.0766238
230 0.0500766
235 0.134258
240 0.0648037
245 0.028593
250 0.067178
255 0.0376065
260 0.0573489
265 0.0564443
270 0.0620714
275 0.1065
280 0.0547505
285 0.0777972
290 0.0365881
295 0.0547522
300 0.035692
305 0.0892163
310 0.0768255
315 0.108395
320 0.0570239
325 0.0553951
330 0.0980929
335 0.11207
340 0.0605192
345 0.0688232
350 0.0703406
355 0.0781666
360 0.0906857
365 0.135103
370 0.125681
375 0.109769
380 0.130314
385 0.107283
390 0.149203
395 0.107079
400 0.151672
405 0.146103
410 0.124457
415 0.214772
420 0.256044
425 0.280487
430 0.417556
435 0.68433
440 1.40107
445 56.4388
450 924.943
455 1385.77
460 335.612
465 40.8975
470 6.50224
475 2.23135
480 1.6043
485 1.81536
490 1.5199
495 1.38925
500 1.34076
505 1.16844
510 1.22298
515 1.49299
520 2.49684
525 3.27601
530 2.35775
535 1.89085
540 1.69153
545 1.36142
550 0.972234
555 0.817034
560 0.811225
565 0.722295
570 0.662844
575 0.635512
580 0.415167
585 0.351942
590 0.328092
595 0.229233
600 0.259905
Ex : 463
200 0.0348003
205 0.0595755
210 0.0379688
215 0.0638327
220 0.0930612
225 0.0976736
230 0.089413
235 0.0932219
240 0.0577544
245 0.0494541
250 0.0756699
255 0.0839607
260 0.0678401
265 0.0543999
270 0.0530002
275 0.0818147
280 0.065043
285 0.0644397
290 0.0829481
295 0.0631505
300 0.0955983
305 0.0585422
310 0.0681687
315 0.04668
320 0.082893
325 0.0652706
330 0.0886389
335 0.057228
340 0.0591626
345 0.0983551
350 0.108084
355 0.0584763
360 0.0876595
365 0.0941468
370 0.0941531
375 0.0796881
380 0.107766
385 0.0845219
390 0.115627
395 0.138146
400 0.0959895
405 0.128132
410 0.164203
415 0.148578
420 0.191176
425 0.272604
430 0.283848
435 0.368685
440 0.674469
445 1.41762
450 55.0308
455 968.848
460 1478.05
465 359.716
470 43.6979
475 6.70421
480 2.12488
485 1.55416
490 1.61522
495 1.54713
500 1.41295
505 1.26175
510 1.11233
515 1.17936
520 1.29911
525 2.10217
530 2.78578
535 2.36224
540 1.69212
545 1.48245
550 1.29105
555 1.05667
560 0.857601
565 0.762782
570 0.655192
575 0.557789
580 0.515014
585 0.398252
590 0.303519
595 0.287267
600 0.3407
Ex : 468
200 0.0278409
205 0.0466959
210 0.0427915
215 0.0515944
220 0.0661168
225 0.0594697
230 0.0766351
235 0.0561824
240 0.0530815
245 0.037907
250 0.0362186
255 0.0409864
260 0.0536726
265 0.071703
270 0.0543292
275 0.0744099
280 0.0664403
285 0.0795654
290 0.054264
295 0.0574828
300 0.0543126
305 0.0355351
310 0.0330693
315 0.0661637
320 0.0869506
325 0.0813095
330 0.0808803
335 0.113989
340 0.0926362
345 0.0593538
350 0.0927766
355 0.0857207
360 0.0821287
365 0.0743261
370 0.150515
375 0.0934023
380 0.112293
385 0.0706211
390 0.118659
395 0.091757
400 0.117839
405 0.145395
410 0.166887
415 0.175926
420 0.184063
425 0.244419
430 0.16937
435 0.329802
440 0.425941
445 0.736597
450 1.3585
455 60.2213
460 985.411
465 1561.06
470 376.419
475 45.2415
480 7.01631
485 2.0489
490 1.46607
495 1.6139
500 1.53361
505 1.26771
510 1.21393
515 1.13183
520 1.25558
525 1.09092
530 1.49379
535 2.48334
540 2.62226
545 1.71531
550 1.43427
555 1.2774
560 1.08996
565 0.794629
570 0.683726
575 0.544338
580 0.4506
585 0.431185
590 0.328491
595 0.313985
600 0.387784
Ex : 473
200 0.036713
205 0.0677449
210 0.0560821
215 0.0551915
220 0.0607613
225 0.0469353
230 0.0712897
235 0.0304069
240 0.0727592
245 0.0887307
250 0.0598715
255 0.0627515
260 0.0690218
265 0.0972575
270 0.0595821
275 0.0543847
280 0.0492626
285 0.0803549
290 0.0919743
295 0.0327349
300 0.0437552
305 0.0343683
310 0.0497555
315 0.0472497
320 0.0539804
325 0.0426161
330 0.0590582
335 0.0698276
340 0.0846588
345 0.104317
350 0.0838615
355 0.0481489
360 0.062419
365 0.077424
370 0.0799257
375 0.102092
380 0.0765715
385 0.0943362
390 0.107469
395 0.104711
400 0.132136
405 0.0974584
410 0.137161
415 0.167455
420 0.164564
425 0.214482
430 0.176635
435 0.256656
440 0.303632
445 0.520926
450 0.854196
455 1.49493
460 70.5121
465 1089.94
470 1537.6
475 357.526
480 42.9993
485 6.52693
490 2.06199
495 1.38711
500 1.55095
505 1.56464
510 1.31495
515 1.28456
520 1.24425
525 1.13641
530 1.17979
535 1.3389
540 2.00084
545 2.63048
550 1.92807
555 1.37545
560 1.27703
565 0.979338
570 0.672752
575 0.55618
580 0.431865
585 0.435664
590 0.331375
595 0.274108
600 0.0642977
Ex : 478
200 0.0646177
205 0.103677
210 0.0651147
215 0.0811046
220 0.0630423
225 0.0507309
230 0.129949
235 0.0760515
240 0.0754369
245 0.111418
250 0.0657584
255 0.0779435
260 0.0480294
265 0.135844
270 0.0660395
275 0.0503538
280 0.0784274
285 0.0549817
290 0.0877029
295 0.0550138
300 0.0882473
305 0.0535561
310 0.0714885
315 0.109826
320 0.0626096
325 0.0708085
330 0.039218
335 0.0610338
340 0.110475
345 0.114503
350 0.0938656
355 0.0874998
360 0.117256
365 0.063099
370 0.0839353
375 0.0905494
380 0.100932
385 0.096028
390 0.0884063
395 0.132697
400 0.177291
405 0.14017
410 0.129218
415 0.132022
420 0.105733
425 0.16418
430 0.210207
435 0.158639
440 0.273674
445 0.350188
450 0.468292
455 0.952183
460 1.84354
465 78.6493
470 1136.05
475 1583.59
480 384.408
485 46.3244
490 6.84346
495 1.99197
500 1.34139
505 1.49961
510 1.39337
515 1.21155
520 1.19995
525 1.17225
530 1.12261
535 1.02559
540 1.25949
545 1.64014
550 2.41732
555 1.9167
560 1.22703
565 1.05402
570 0.89772
575 0.550492
580 0.452166
585 0.438772
590 0.365713
595 0.296772
600 0.615196
Ex : 483
200 0.0729201
205 0.0943509
210 0.0511831
215 0.0903755
220 0.0674043
225 0.0602511
230 0.0650573
235 0.0757202
240 0.125527
245 0.0623116
250 0.0781704
255 0.0688391
260 0.0510217
265 0.0488085
270 0.0845792
275 0.0565819
280 0.0480973
285 0.0633351
290 0.0890607
295 0.0419084
300 0.0997564
305 0.0916002
310 0.088813
315 0.0925613
320 0.0469525
325 0.0905279
330 0.0851712
335 0.180481
340 0.0997147
345 0.0673482
350 0.0492266
355 0.0715918
360 0.0787026
365 0.0580752
370 0.132234
375 0.108259
380 0.0824831
385 0.111107
390 0.0886144
395 0.130763
400 0.0929861
405 0.116852
410 0.139265
415 0.16685
420 0.172013
425 0.195135
430 0.186551
435 0.186945
440 0.251036
445 0.279964
450 0.35509
455 0.580917
460 0.97257
465 1.93765
470 62.248
475 1121.43
480 1709.89
485 413.21
490 49.444
495 7.19059
500 2.11594
505 1.20527
510 1.19248
515 1.53001
520 1.27282
525 1.13764
530 1.05758
535 1.15785
540 1.09452
545 1.06636
550 1.18092
555 1.98287
560 2.11616
565 1.479
570 0.916985
575 0.878096
580 0.714505
585 0.465116
590 0.3119
595 0.28383
600 0.0876865
Ex : 488
200 0.104115
205 0.096089
210 0.101896
215 0.0502361
220 0.0468183
225 0.0962519
230 0.103986
235 0.113088
240 0.04564
245 0.0765669
250 0.0532726
255 0.0827725
260 0.0759212
265 0.0854363
270 0.101964
275 0.122849
280 0.0944698
285 0.0401739
290 0.0702644
295 0.072659
300 0.07662
305 0.0682056
310 0.179444
315 0.103613
320 0.116708
325 0.120403
330 0.0884494
335 0.102371
340 0.0852352
345 0.0810474
350 0.0643351
355 0.0941432
360 0.0900917
365 0.107998
370 0.105342
375 0.104748
380 0.132281
385 0.134318
390 0.082012
395 0.118335
400 0.122227
405 0.111686
410 0.17527
415 0.175169
420 0.14358
425 0.206041
430 0.226137
435 0.187506
440 0.158107
445 0.206348
450 0.289736
455 0.483725
460 0.555362
465 1.06886
470 1.87687
475 76.6665
480 1228.12
485 1723.75
490 406.421
495 48.5977
500 7.16296
505 2.00393
510 1.24685
515 1.29075
520 1.31582
525 1.33857
530 1.07908
535 0.983675
540 0.88377
545 0.818078
550 0.868461
555 0.936674
560 1.51899
565 1.94795
570 1.35493
575 0.767762
580 0.581358
585 0.650462
590 0.391498
595 0.25812
600 0.30546
Ex : 493
200 0.0398922
205 0.070101
210 0.0792476
215 0.0656597
220 0.0820326
225 0.0818323
230 0.086854
235 0.096519
240 0.0895242
245 0.180586
250 0.0749351
255 0.0808083
260 0.0661123
265 0.0611471
270 0.0512202
275 0.085991
280 0.0570068
285 0.0978301
290 0.0808623
295 0.0645191
300 0.0662722
305 0.0615538
310 0.104765
315 0.146408
320 0.0980682
325 0.128684
330 0.0389077
335 0.0595183
340 0.0886444
345 0.0859904
350 0.0689994
355 0.0629472
360 0.107391
365 0.094871
370 0.0869453
375 0.127581
380 0.111738
385 0.103935
390 0.135516
395 0.115783
400 0.0823588
405 0.150966
410 0.138263
415 0.179296
420 0.130887
425 0.153815
430 0.132177
435 0.227987
440 0.196359
445 0.184362
450 0.233043
455 0.322751
460 0.45765
465 0.695405
470 1.16452
475 1.78657
480 70.1738
485 1219.47
490 1818.73
495 421.094
500 50.2153
505 7.16122
510 2.03846
515 1.40737
520 1.33627
525 1.44615
530 1.28126
535 1.15357
540 1.01039
545 0.83909
550 0.932931
555 0.846173
560 0.704117
565 1.05919
570 1.55903
575 1.45236
580 0.764301
585 0.577282
590 0.447264
595 0.36102
600 0.169127
Ex : 498
200 0.0454545
205 0.0382379
210 0.0591891
215 0.120893
220 0.0735162
225 0.0654973
230 0.121299
235 0.0415832
240 0.113643
245 0.0694738
250 0.0881126
255 0.086224
260 0.0513555
265 0.127487
270 0.0873425
275 0.0976866
280 0.0709313
285 0.0668917
290 0.0914721
295 0.0410998
300 0.0483455
305 0.0738278
310 0.0617475
315 0.0747228
320 0.103612
325 0.168952
330 0.148496
335 0.10674
340 0.113877
345 0.0966099
350 0.164272
355 0.0869042
360 0.0740325
365 0.0940751
370 0.0850889
375 0.11509
380 0.0633483
385 0.0824868
390 0.0995571
395 0.0963381
400 0.0834204
405 0.146668
410 0.144039
415 0.150034
420 0.125478
425 0.143286
430 0.135082
435 0.151212
440 0.167487
445 0.272018
450 0.246192
455 0.311069
460 0.298901
465 0.537985
470 0.699924
475 1.09457
480 2.06351
485 87.3404
490 1308.54
495 1789.26
500 415.775
505 49.7267
510 7.26444
515 2.31554
520 1.442
525 1.32943
530 1.3131
535 1.20579
540 1.11125
545 0.94228
550 0.820728
555 0.91907
560 0.627909
565 0.604261
570 0.792745
575 1.1498
580 1.16719
585 0.720983
590 0.444764
595 0.409714
600 0.21648
Ex : 503
200 0.152071
205 0.0540853
210 0.0971171
215 0.0725844
220 0.0916101
225 0.119009
230 0.0846205
235 0.0906134
240 0.0754556
245 0.050925
250 0.0431188
255 0.147958
260 0.069812
265 0.0645546
270 0.0641276
275 0.103717
280 0.100658
285 0.0698227
290 0.0977483
295 0.0515467
300 0.126626
305 0.0900772
310 0.0855782
315 0.146997
320 0.0766765
325 0.0854343
330 0.114583
335 0.0997667
340 0.200198
345 0.129994
350 0.0842325
355 0.105389
360 0.0816816
365 0.0608447
370 0.180423
375 0.160592
380 0.107176
385 0.121221
390 0.118453
395 0.123293
400 0.113111
405 0.148942
410 0.163899
415 0.125347
420 0.136978
425 0.152259
430 0.156432
435 0.176876
440 0.171009
445 0.192578
450 0.294817
455 0.223343
460 0.341422
465 0.374348
470 0.51603
475 0.670406
480 1.09977
485 1.89774
490 79.8005
495 1318.47
500 1852.22
505 428.663
510 51.4462
515 7.54199
520 2.25311
525 1.27449
530 1.30098
535 1.23038
540 1.24569
545 0.983385
550 0.913257
555 0.725251
560 0.645695
565 0.497518
570 0.592455
575 0.645796
580 0.809351
585 1.04842
590 0.655046
595 0.489944
600 0.0557537
Ex : 508
200 0.0392753
205 0.132057
210 0.105836
215 0.0968497
220 0.0998741
225 0.145191
230 0.109002
235 0.0831837
240 0.0644093
245 0.107631
250 0.14602
255 0.0658447
260 0.0677703
265 0.101695
270 0.0741177
275 0.0741294
280 0.0783608
285 0.0723771
290 0.0864961
295 0.120873
300 0.0963054
305 0.0948796
310 0.0655416
315 0.0831408
320 0.123343
325 0.111318
330 0.0633217
335 0.0964456
340 0.0893495
345 0.112029
350 0.122856
355 0.0843695
360 0.0730737
365 0.0527564
370 0.0856469
375 0.0634115
380 0.130926
385 0.0952602
390 0.0976469
395 0.172593
400 0.124902
405 0.113698
410 0.219315
415 0.156455
420 0.168378
425 0.124246
430 0.214768
435 0.211675
440 0.223998
445 0.175053
450 0.252434
455 0.300546
460 0.256649
465 0.332493
470 0.444243
475 0.486762
480 0.715571
485 1.01855
490 1.99339
495 86.784
500 1328.55
505 1864.96
510 450.298
515 54.0279
520 7.80916
525 2.41688
530 1.35312
535 1.22536
540 1.07964
545 1.09647
550 0.928335
555 0.714459
560 0.622397
565 0.683777
570 0.604329
575 0.443004
580 0.480976
585 0.472407
590 0.834896
595 0.708122
600 0.458641
Ex : 513
200 0.113174
205 0.0678914
210 0.061926
215 0.204912
220 0.105499
225 0.0542434
230 0.0738926
235 0.112169
240 0.0784864
245 0.102954
250 0.0677023
255 0.07176
260 0.0586668
265 0.0502386
270 0.0999452
275 0.0796964
280 0.149766
285 0.134844
290 0.0688638
295 0.13002
300 0.0773923
305 0.0948394
310 0.128126
315 0.130029
320 0.128743
325 0.104827
330 0.107553
335 0.105213
340 0.0849837
345 0.0683664
350 0.136736
355 0.103353
360 0.108953
365 0.0810347
370 0.139865
375 0.0960803
380 0.0836549
385 0.154789
390 0.107442
395 0.0889624
400 0.099607
405 0.132561
410 0.18518
415 0.147459
420 0.215868
425 0.143722
430 0.146584
435 0.130834
440 0.173818
445 0.222999
450 0.170491
455 0.248137
460 0.203524
465 0.25623
470 0.379305
475 0.436822
480 0.469006
485 0.739346
490 0.996096
495 1.76976
500 79.3565
505 1312.56
510 1906.06
515 469.522
520 56.426
525 8.13436
530 2.39618
535 1.35472
540 1.05886
545 0.871562
550 0.966395
555 0.940863
560 0.699796
565 0.589716
570 0.556271
575 0.506752
580 0.395581
585 0.365985
590 0.39573
595 0.585985
600 0.528507
Ex : 518
200 0.0802377
205 0.111479
210 0.0743998
215 0.074172
220 0.146563
225 0.134593
230 0.210252
235 0.0908957
240 0.0690082
245 0.0749632
250 0.117856
255 0.143245
260 0.153268
265 0.0796239
270 0.0553012
275 0.0882866
280 0.0687357
285 0.044841
290 0.081066
295 0.0990485
300 0.076233
305 0.0656116
310 0.0631992
315 0.105852
320 0.153752
325 0.0901428
330 0.0829196
335 0.0609035
340 0.114182
345 0.122902
350 0.152325
355 0.0622309
360 0.167336
365 0.119808
370 0.178924
375 0.143825
380 0.154266
385 0.0910791
390 0.185257
395 0.117618
400 0.151924
405 0.112582
410 0.170754
415 0.197617
420 0.171111
425 0.111423
430 0.148756
435 0.125791
440 0.139787
445 0.148566
450 0.142629
455 0.181625
460 0.215729
465 0.255742
470 0.27482
475 0.355104
480 0.265062
485 0.572401
490 0.586186
495 1.0382
500 1.93803
505 81.866
510 1286.25
515 1910.01
520 470.397
525 56.299
530 7.96841
535 2.29827
540 1.23503
545 0.91674
550 0.734261
555 0.760301
560 0.824001
565 0.739111
570 0.58411
575 0.453251
580 0.409547
585 0.257012
590 0.25286
595 0.362446
600 0.561782
Ex : 523
200 0.0895646
205 0.0984535
210 0.113801
215 0.168044
220 0.0814735
225 0.082126
230 0.20609
235 0.12372
240 0.0984292
245 0.126875
250 0.103895
255 0.137804
260 0.095421
265 0.0511836
270 0.0603326
275 0.114493
280 0.0623916
285 0.086293
290 0.0799662
295 0.10955
300 0.0942097
305 0.143752
310 0.0435076
315 0.12
320 0.137741
325 0.125634
330 0.0830658
335 0.135525
340 0.068991
345 0.109666
350 0.0962187
355 0.107689
360 0.171156
365 0.104547
370 0.113784
375 0.106144
380 0.145674
385 0.110884
390 0.0685589
395 0.136658
400 0.135959
405 0.106135
410 0.152027
415 0.174335
420 0.207446
425 0.198629
430 0.171567
435 0.153314
440 0.193548
445 0.190481
450 0.177312
455 0.176175
460 0.174963
465 0.188836
470 0.200415
475 0.204502
480 0.25826
485 0.34629
490 0.4793
495 0.617676
500 1.01985
505 1.96199
510 73.7505
515 1238.8
520 1891.93
525 486.224
530 57.9894
535 8.16782
540 2.04542
545 1.04726
550 0.872226
555 0.844295
560 0.720955
565 0.671301
570 0.543542
575 0.582149
580 0.404209
585 0.359778
590 0.44462
595 0.28634
600 0.588634
Ex : 528
200 0.0588523
205 0.0492245
210 0.0783926
215 0.0996062
220 0.10607
225 0.0570315
230 0.0653296
235 0.084859
240 0.137897
245 0.161699
250 0.0986976
255 0.115581
260 0.078398
265 0.110538
270 0.123395
275 0.103186
280 0.116826
285 0.0895857
290 0.114063
295 0.111786
300 0.168584
305 0.13299
310 0.142838
315 0.165499
320 0.0898036
325 0.0773576
330 0.0797476
335 0.111471
340 0.118764
345 0.170635
350 0.123299
355 0.124262
360 0.124659
365 0.0969821
370 0.160066
375 0.0967973
380 0.0896775
385 0.134071
390 0.0732704
395 0.0995664
400 0.121178
405 0.139676
410 0.109248
415 0.127272
420 0.199578
425 0.137014
430 0.209127
435 0.139934
440 0.31645
445 0.183639
450 0.154672
455 0.141424
460 0.226405
465 0.17775
470 0.211408
475 0.268053
480 0.215598
485 0.251177
490 0.417111
495 0.446662
500 0.608954
505 1.30796
510 1.78204
515 69.8762
520 1240.72
525 1890.74
530 477.792
535 57.2596
540 7.68699
545 1.95802
550 1.09911
555 0.785102
560 0.653813
565 0.785125
570 0.693465
575 0.460512
580 0.455867
585 0.303412
590 0.397337
595 0.37848
600 0.266905
Ex : 533
200 0.0678858
205 0.139384
210 0.0850978
215 0.096044
220 0.0632976
225 0.124748
230 0.15666
235 0.110904
240 0.123086
245 0.107498
250 0.0698776
255 0.0678198
260 0.108151
265 0.118872
270 0.149092
275 0.118785
280 0.148492
285 0.0940031
290 0.123145
295 0.105794
300 0.0906403
305 0.0871008
310 0.0910804
315 0.0948024
320 0.0885825
325 0.0942675
330 0.0611441
335 0.0975312
340 0.0663949
345 0.0775604
350 0.090645
355 0.127056
360 0.138073
365 0.0941553
370 0.0612585
375 0.152439
380 0.108873
385 0.0803521
390 0.154434
395 0.0943806
400 0.156537
405 0.0786488
410 0.139188
415 0.108649
420 0.105087
425 0.161647
430 0.117577
435 0.119518
440 0.174515
445 0.141974
450 0.165183
455 0.13645
460 0.252911
465 0.271648
470 0.200367
475 0.2345
480 0.260009
485 0.26668
490 0.312439
495 0.329415
500 0.506375
505 0.682218
510 1.0419
515 1.84492
520 69.1604
525 1198.12
530 1865.06
535 486.933
540 57.7951
545 7.80476
550 1.73654
555 1.0579
560 0.690925
565 0.516429
570 0.684847
575 0.491771
580 0.51364
585 0.469316
590 0.35718
595 0.311471
600 1.1362
Ex : 538
200 0.0430304
205 0.0924974
210 0.0895644
215 0.129633
220 0.123245
225 0.151186
230 0.102183
235 0.152565
240 0.0554602
245 0.0565807
250 0.171947
255 0.103901
260 0.0970287
265 0.153734
270 0.0962166
275 0.0695949
280 0.0904491
285 0.0974812
290 0.0709088
295 0.0782681
300 0.0784151
305 0.093274
310 0.167663
315 0.163208
320 0.131194
325 0.119345
330 0.0930837
335 0.16747
340 0.110499
345 0.0961303
350 0.129517
355 0.212379
360 0.179158
365 0.135687
370 0.178881
375 0.218777
380 0.197317
385 0.106744
390 0.129561
395 0.120144
400 0.122227
405 0.0785751
410 0.102055
415 0.136787
420 0.131651
425 0.15011
430 0.131954
435 0.165169
440 0.147431
445 0.172708
450 0.188211
455 0.117105
460 0.19389
465 0.189248
470 0.201548
475 0.230625
480 0.282679
485 0.195033
490 0.251963
495 0.245752
500 0.295704
505 0.494369
510 0.509858
515 1.08622
520 1.69504
525 59.2727
530 1139.31
535 1855.94
540 501.77
545 59.795
550 8.01428
555 1.83221
560 0.897277
565 0.690278
570 0.557804
575 0.444732
580 0.459323
585 0.288606
590 0.306273
595 0.393874
600 0.161045
Ex : 543
200 0.0992739
205 0.139238
210 0.0767705
215 0.0654741
220 0.104095
225 0.129643
230 0.0958808
235 0.107693
240 0.253334
245 0.11438
250 0.217815
255 0.149327
260 0.0795638
265 0.169838
270 0.118388
275 0.0920907
280 0.102594
285 0.116814
290 0.114431
295 0.133127
300 0.110753
305 0.0554975
310 0.129875
315 0.114842
320 0.0996749
325 0.0719732
330 0.118636
335 0.0716843
340 0.147307
345 0.206043
350 0.112638
355 0.137912
360 0.160985
365 0.134469
370 0.149392
375 0.080411
380 0.114348
385 0.111098
390 0.149947
395 0.182914
400 0.150836
405 0.163681
410 0.139289
415 0.136599
420 0.188205
425 0.163257
430 0.15239
435 0.168888
440 0.118201
445 0.210411
450 0.182577
455 0.18781
460 0.206917
465 0.175677
470 0.210503
475 0.21058
480 0.24614
485 0.278239
490 0.228623
495 0.189694
500 0.204992
505 0.320198
510 0.443599
515 0.610294
520 0.872312
525 1.62016
530 55.0712
535 1097.24
540 1848.61
545 508.121
550 60.4512
555 8.03744
560 1.74399
565 0.860505
570 0.512643
575 0.46859
580 0.432972
585 0.341183
590 0.3798
595 0.35622
600 1.95652
Ex : 548
200 0.0625086
205 0.107694
210 0.109667
215 0.0668871
220 0.101592
225 0.0839064
230 0.0867535
235 0.0614239
240 0.0770498
245 0.10409
250 0.162418
255 0.100344
260 0.076459
265 0.0721055
270 0.12287
275 0.105768
280 0.064712
285 0.0783868
290 0.0970529
295 0.0602302
300 0.0972029
305 0.0483611
310 0.13733
315 0.0941365
320 0.130066
325 0.088049
330 0.110182
335 0.0911962
340 0.0858123
345 0.070595
350 0.119359
355 0.139071
360 0.170197
365 0.182018
370 0.119221
375 0.0992459
380 0.0676786
385 0.119637
390 0.116712
395 0.179829
400 0.125625
405 0.122639
410 0.113562
415 0.122933
420 0.163848
425 0.246808
430 0.241336
435 0.186936
440 0.178404
445 0.161091
450 0.110266
455 0.243801
460 0.15996
465 0.141293
470 0.178614
475 0.272528
480 0.194939
485 0.184024
490 0.23259
495 0.293373
500 0.226405
505 0.353216
510 0.420573
515 0.449836
520 0.456991
525 0.797973
530 1.67749
535 59.7163
540 1096.5
545 1803.09
550 500.047
555 59.5599
560 7.78746
565 1.68652
570 0.893569
575 0.413439
580 0.464522
585 0.332541
590 0.277189
595 0.273378
600 0.358954
Ex : 553
200 0.0867304
205 0.111592
210 0.0988539
215 0.0621414
220 0.105245
225 0.15109
230 0.118077
235 0.123102
240 0.103485
245 0.0987871
250 0.0658758
255 0.0495523
260 0.107263
265 0.104961
270 0.217452
275 0.143851
280 0.106683
285 0.229646
290 0.140348
295 0.0817366
300 0.104054
305 0.122648
310 0.112743
315 0.146931
320 0.054632
325 0.169633
330 0.117954
335 0.100675
340 0.132703
345 0.131584
350 0.207393
355 0.140589
360 0.0824733
365 0.116321
370 0.184468
375 0.0816083
380 0.149683
385 0.185924
390 0.167774
395 0.14304
400 0.0685924
405 0.114361
410 0.139399
415 0.30938
420 0.0957863
425 0.130057
430 0.100875
435 0.151129
440 0.106359
445 0.146933
450 0.0952703
455 0.157289
460 0.12844
465 0.207919
470 0.241157
475 0.249056
480 0.196718
485 0.187357
490 0.178991
495 0.274469
500 0.217776
505 0.36592
510 0.288574
515 0.361369
520 0.459164
525 0.496991
530 0.753571
535 1.62853
540 51.5718
545 1046.54
550 1788.88
555 504.303
560 59.9158
565 7.73757
570 1.47599
575 0.763371
580 0.409021
585 0.427983
590 0.383583
595 0.293862
600 0.204462
Ex : 558
200 0.151379
205 0.111051
210 0.193251
215 0.11974
220 0.0940962
225 0.142406
230 0.0722492
235 0.0634635
240 0.0917764
245 0.0684391
250 0.162023
255 0.147927
260 0.161898
265 0.115867
270 0.140341
275 0.0752403
280 0.114969
285 0.171519
290 0.0661742
295 0.132092
300 0.141983
305 0.0905057
310 0.0977099
315 0.103831
320 0.114896
325 0.0983888
330 0.14638
335 0.198893
340 0.183089
345 0.139591
350 0.0939994
355 0.114338
360 0.105772
365 0.098794
370 0.134456
375 0.119348
380 0.0582541
385 0.161582
390 0.222157
395 0.096177
400 0.0729051
405 0.114682
410 0.0891066
415 0.136095
420 0.12706
425 0.167913
430 0.220245
435 0.179949
440 0.147078
445 0.10938
450 0.143665
455 0.1562
460 0.139701
465 0.140833
470 0.143109
475 0.194327
480 0.179931
485 0.20501
490 0.193594
495 0.16401
500 0.222235
505 0.245486
510 0.325153
515 0.327142
520 0.490802
525 0.471968
530 0.626602
535 0.895609
540 1.54086
545 49.481
550 993.563
555 1755.83
560 499.11
565 59.4279
570 7.77943
575 1.45221
580 0.636913
585 0.486888
590 0.429785
595 0.315002
600 0.264193
Ex : 563
200 0.179238
205 0.104975
210 0.150582
215 0.176826
220 0.0701584
225 0.101649
230 0.138187
235 0.154745
240 0.104374
245 0.157095
250 0.0722952
255 0.0829429
260 0.0564747
265 0.0980798
270 0.143294
275 0.0570158
280 0.153385
285 0.14635
290 0.151695
295 0.133433
300 0.0687798
305 0.0793895
310 0.0914904
315 0.121304
320 0.124045
325 0.157705
330 0.134192
335 0.0706916
340 0.115945
345 0.208698
350 0.160428
355 0.142223
360 0.15841
365 0.208318
370 0.144594
375 0.296103
380 0.134816
385 0.147358
390 0.189693
395 0.116756
400 0.188255
405 0.103103
410 0.122843
415 0.127034
420 0.158619
425 0.0802564
430 0.32574
435 0.134659
440 0.188105
445 0.192465
450 0.129389
455 0.0752048
460 0.191624
465 0.210289
470 0.149652
475 0.205207
480 0.121774
485 0.142485
490 0.226673
495 0.296297
500 0.248429
505 0.245563
510 0.249595
515 0.238798
520 0.30555
525 0.305334
530 0.319366
535 0.516929
540 0.988248
545 1.48657
550 47.8033
555 964.358
560 1682.84
565 483.868
570 57.5216
575 7.11141
580 1.25934
585 0.619937
590 0.507646
595 0.389844
600 0.210526
Ex : 568
200 0.0874788
205 0.0724523
210 0.110621
215 0.119229
220 0.0714057
225 0.0852769
230 0.108724
235 0.0927362
240 0.148634
245 0.101387
250 0.042429
255 0.102424
260 0.0947499
265 0.127724
270 0.119579
275 0.0978497
280 0.11939
285 0.185021
290 0.150525
295 0.186506
300 0.0839809
305 0.138918
310 0.0577086
315 0.178873
320 0.134496
325 0.191443
330 0.106192
335 0.132781
340 0.267878
345 0.169345
350 0.0882115
355 0.0870151
360 0.137757
365 0.130768
370 0.0742193
375 0.115739
380 0.107738
385 0.234121
390 0.123334
395 0.188492
400 0.146595
405 0.128334
410 0.126343
415 0.157788
420 0.109632
425 0.0906984
430 0.1546
435 0.0787864
440 0.0833429
445 0.202227
450 0.16191
455 0.171033
460 0.266338
465 0.151185
470 0.151561
475 0.133196
480 0.166783
485 0.199956
490 0.331591
495 0.235536
500 0.265513
505 0.283317
510 0.162917
515 0.229743
520 0.181147
525 0.258483
530 0.266892
535 0.455937
540 0.468225
545 0.847041
550 1.15934
555 35.5721
560 866.828
565 1635.04
570 494.14
575 59.0776
580 7.49178
585 1.33185
590 0.487406
595 0.263147
600 0.284801
Ex : 573
200 0.140518
205 0.140648
210 0.0478024
215 0.159926
220 0.0950375
225 0.0649505
230 0.150043
235 0.133272
240 0.178376
245 0.0950914
250 0.140098
255 0.123567
260 0.191954
265 0.159167
270 0.128147
275 0.133391
280 0.194633
285 0.0935684
290 0.150277
295 0.12273
300 0.147003
305 0.192696
310 0.201184
315 0.141367
320 0.099151
325 0.151746
330 0.104066
335 0.143785
340 0.180196
345 0.124982
350 0.205451
355 0.119517
360 0.141317
365 0.110021
370 0.131
375 0.18426
380 0.160064
385 0.154499
390 0.172036
395 0.263155
400 0.166688
405 0.240058
410 0.14121
415 0.121738
420 0.108058
425 0.221391
430 0.178975
435 0.171292
440 0.118102
445 0.137528
450 0.132587
455 0.229165
460 0.181788
465 0.103471
470 0.237081
475 0.217383
480 0.161577
485 0.153915
490 0.161293
495 0.174952
500 0.149838
505 0.283666
510 0.185612
515 0.207035
520 0.189563
525 0.18974
530 0.27524
535 0.341647
540 0.327907
545 0.432034
550 0.639117
555 1.13844
560 31.1545
565 756.865
570 1504.45
575 465.109
580 55.6284
585 6.95979
590 1.19525
595 0.463538
600 1.03939
Ex : 578
200 0.109403
205 0.164854
210 0.0748948
215 0.187663
220 0.222699
225 0.163135
230 0.179212
235 0.101592
240 0.111597
245 0.118563
250 0.117433
255 0.123064
260 0.127991
265 0.103695
270 0.0634066
275 0.131957
280 0.0945716
285 0.205198
290 0.111767
295 0.256687
300 0.0991008
305 0.146698
310 0.0989684
315 0.183966
320 0.101964
325 0.1557
330 0.0675295
335 0.168256
340 0.159166
345 0.123173
350 0.121294
355 0.110754
360 0.154326
365 0.150244
370 0.102934
375 0.158513
380 0.107769
385 0.137715
390 0.229683
395 0.145428
400 0.158803
405 0.110475
410 0.114277
415 0.116815
420 0.157657
425 0.237926
430 0.117366
435 0.168656
440 0.138413
445 0.132094
450 0.194355
455 0.16316
460 0.0846149
465 0.155726
470 0.149802
475 0.131739
480 0.117856
485 0.0914091
490 0.17896
495 0.203381
500 0.274512
505 0.225931
510 0.285673
515 0.216148
520 0.166466
525 0.236881
530 0.222316
535 0.211583
540 0.231409
545 0.362986
550 0.443138
555 0.740071
560 1.22691
565 27.2385
570 675.243
575 1318.55
580 401.632
585 47.7269
590 6.04177
595 1.16207
600 0.431633
Ex : 583
200 0.074895
205 0.124349
210 0.104683
215 0.0984588
220 0.0628147
225 0.159591
230 0.169962
235 0.0845452
240 0.148175
245 0.133606
250 0.0675364
255 0.0912332
260 0.0943113
265 0.127279
270 0.0773786
275 0.153681
280 0.0803258
285 0.108077
290 0.136352
295 0.0664304
300 0.113496
305 0.113559
310 0.201617
315 0.185822
320 0.178115
325 0.202178
330 0.118225
335 0.118907
340 0.123916
345 0.126084
350 0.0791589
355 0.114189
360 0.296
365 0.214511
370 0.115446
375 0.0986362
380 0.145489
385 0.094777
390 0.0843372
395 0.173593
400 0.122397
405 0.115986
410 0.11968
415 0.173082
420 0.131658
425 0.17087
430 0.129153
435 0.17313
440 0.108097
445 0.196144
450 0.205091
455 0.201687
460 0.1469
465 0.159416
470 0.145321
475 0.248649
480 0.142321
485 0.136802
490 0.268619
495 0.143777
500 0.172477
505 0.156647
510 0.158075
515 0.293033
520 0.11691
525 0.211889
530 0.178058
535 0.198578
540 0.314855
545 0.404184
550 0.422559
555 0.313992
560 0.64265
565 0.995232
570 22.4551
575 600.902
580 1145.27
585 332.273
590 39.8419
595 5.02035
600 0.614677
Ex : 588
200 0.0767357
205 0.0533201
210 0.06885
215 0.122547
220 0.141253
225 0.0939173
230 0.176129
235 0.11109
240 0.141474
245 0.146273
250 0.0849453
255 0.137796
260 0.147922
265 0.125945
270 0.119485
275 0.219125
280 0.0709902
285 0.0706814
290 0.123622
295 0.108836
300 0.117652
305 0.0728682
310 0.105675
315 0.121216
320 0.1441
325 0.172241
330 0.062596
335 0.074479
340 0.089912
345 0.113784
350 0.215952
355 0.124545
360 0.125375
365 0.116916
370 0.170348
375 0.187408
380 0.155515
385 0.102363
390 0.079842
395 0.159099
400 0.119368
405 0.109147
410 0.0806376
415 0.142478
420 0.104058
425 0.149289
430 0.274827
435 0.100562
440 0.14575
445 0.201483
450 0.149462
455 0.178571
460 0.135068
465 0.237386
470 0.248991
475 0.235895
480 0.150403
485 0.230415
490 0.188303
495 0.133308
500 0.156305
505 0.219204
510 0.179436
515 0.149795
520 0.159787
525 0.232452
530 0.160181
535 0.184546
540 0.184472
545 0.271169
550 0.433621
555 0.377545
560 0.358703
565 0.578982
570 0.79652
575 20.6738
580 501.883
585 980.584
590 290.639
595 34.746
600 4.68604
Ex : 593
200 0.0938343
205 0.0579808
210 0.0532744
215 0.0777989
220 0.0741947
225 0.279277
230 0.190037
235 0.0602822
240 0.172811
245 0.0767877
250 0.0905886
255 0.192301
260 0.096744
265 0.112032
270 0.154638
275 0.138179
280 0.0422457
285 0.0506678
290 0.0823931
295 0.0861986
300 0.0422548
305 0.184209
310 0.0853488
315 0.269534
320 0.187478
325 0.142894
330 0.111773
335 0.111401
340 0.130838
345 0.152912
350 0.0914124
355 0.104877
360 0.0942596
365 0.0745823
370 0.175894
375 0.0819117
380 0.158497
385 0.139992
390 0.174308
395 0.190962
400 0.096093
405 0.100524
410 0.130631
415 0.10931
420 0.153903
425 0.222283
430 0.133099
435 0.158702
440 0.177877
445 0.276102
450 0.123157
455 0.157976
460 0.130526
465 0.149249
470 0.148009
475 0.142264
480 0.224546
485 0.145314
490 0.122296
495 0.145613
500 0.210336
505 0.167732
510 0.163103
515 0.142179
520 0.12205
525 0.195044
530 0.20521
535 0.232725
540 0.256432
545 0.362356
550 0.226373
555 0.251266
560 0.247411
565 0.292336
570 0.442408
575 0.65968
580 17.494
585 444.175
590 837.808
595 252.924
600 34.475
Ex : 598
200 0.0661626
205 0.109103
210 0.139621
215 0.156289
220 0.180771
225 0.124781
230 0.095415
235 0.118302
240 0.193443
245 0.131364
250 0.101722
255 0.0917879
260 0.109663
265 0.135195
270 0.112071
275 0.102032
280 0.0685665
285 0.113263
290 0.0892507
295 0.13683
300 0.0894068
305 0.136992
310 0.263373
315 0.235433
320 0.0713717
325 0.128148
330 0.0752886
335 0.104099
340 0.114289
345 0.0953767
350 0.160496
355 0.116918
360 0.139202
365 0.0994736
370 0.140379
375 0.101144
380 0.115322
385 0.158812
390 0.125583
395 0.165874
400 0.193853
405 0.093017
410 0.151607
415 0.0861396
420 0.218081
425 0.157275
430 0.0748675
435 0.181537
440 0.105727
445 0.150871
450 0.205079
455 0.126499
460 0.111543
465 0.110481
470 0.100956
475 0.197818
480 0.165962
485 0.216819
490 0.14075
495 0.13102
500 0.215706
505 0.223114
510 0.126602
515 0.25031
520 0.318734
525 0.162094
530 0.161266
535 0.123739
540 0.161895
545 0.200652
550 0.307405
555 0.272025
560 0.362311
565 0.307209
570 0.243638
575 0.423436
580 0.512091
585 16.7663
590 399
595 736.738
600 488.51
Ex : 603
200 0.143957
205 0.120538
210 0.125068
215 0.193343
220 0.118505
225 0.10532
230 0.169957
235 0.149639
240 0.0505268
245 0.0837681
250 0.0819117
255 0.144657
260 0.211942
265 0.101641
270 0.159296
275 0.096674
280 0.148898
285 0.157011
290 0.0888483
295 0.0886573
300 0.209779
305 0.144839
310 0.232616
315 0.122587
320 0.114867
325 0.0758053
330 0.161095
335 0.113503
340 0.0912664
345 0.0842508
350 0.183471
355 0.282097
360 0.265322
365 0.149907
370 0.0772811
375 0.195782
380 0.124894
385 0.174476
390 0.116764
395 0.15722
400 0.13192
405 0.0733636
410 0.128053
415 0.120177
420 0.144315
425 0.221392
430 0.123404
435 0.134039
440 0.243124
445 0.245522
450 0.200419
455 0.15658
460 0.120391
465 0.0815433
470 0.10178
475 0.17359
480 0.183482
485 0.29917
490 0.239704
495 0.17271
500 0.220294
505 0.245339
510 0.163553
515 0.144757
520 0.236386
525 0.168191
530 0.195071
535 0.132164
540 0.189881
545 0.199061
550 0.173023
555 0.177801
560 0.174922
565 0.16422
570 0.22272
575 0.279075
580 0.392471
585 0.570862
590 14.3605
595 341.828
600 655.35
