File format V 1.0
jeu. 5. janv. 18:21:52 2017
Operator : 
Comments : 

=============================================
SpectroFluorometer parameters
Mode : 3D measurement
Data : Fluorescence
Phospho. : Ordinary
Spectrum : Fluorescence

Scan speed : 2400 nm/mn
Response : 100 ms
PM Voltage : 700 V
Shutter : On

Lambda Ex. Start : 203
Lambda Ex. End : 603
Lambda Ex. Step : 5
Ex. Slit : 5 nm

Lambda Em. Start : 200
Lambda Em. End : 600
Lambda Em. Step : 5
Em. Slit : 5 nm

Repetition : 1
Decal lambda em : 10
=============================================
DATA
Ex : 203
200 5.57062
205 8.68983
210 5.36543
215 3.76986
220 4.02564
225 5.5813
230 3.71457
235 3.78067
240 6.28232
245 3.43463
250 4.2075
255 3.23293
260 5.81699
265 4.91362
270 4.34376
275 3.14785
280 5.82229
285 5.14928
290 5.09895
295 5.15483
300 4.0861
305 4.93293
310 3.53305
315 5.25641
320 4.66574
325 4.61254
330 4.98039
335 3.92694
340 6.77766
345 4.74166
350 6.18225
355 5.33812
360 5.62602
365 6.39801
370 3.77155
375 4.41448
380 4.39038
385 4.81415
390 5.21852
395 8.45007
400 4.57299
405 4.30052
410 4.17267
415 4.90058
420 4.56864
425 3.93229
430 3.93986
435 3.74958
440 5.31099
445 12.0693
450 4.60316
455 4.87476
460 4.90158
465 4.93443
470 5.68845
475 9.09361
480 5.03079
485 7.61369
490 5.92635
495 5.16584
500 5.24042
505 2.90794
510 2.98952
515 8.09579
520 5.57511
525 5.54742
530 4.7813
535 3.77414
540 6.17435
545 5.00859
550 4.51433
555 8.2091
560 5.34945
565 10.6358
570 5.75422
575 3.75405
580 5.50273
585 4.9652
590 7.0162
595 4.63863
600 0.527859
Ex : 208
200 4.76023
205 5.21485
210 4.38781
215 3.47256
220 6.30142
225 6.72947
230 3.82855
235 2.21329
240 2.10705
245 5.19949
250 3.91119
255 2.23201
260 4.50298
265 3.38392
270 3.75066
275 5.5637
280 3.98329
285 6.69745
290 3.91252
295 3.76849
300 5.57657
305 5.12229
310 3.21633
315 3.18718
320 5.38614
325 6.10632
330 5.13082
335 2.90439
340 3.77228
345 3.55675
350 7.57257
355 2.77785
360 3.97807
365 3.50255
370 7.80398
375 4.13748
380 5.66358
385 5.68134
390 7.34775
395 6.4633
400 2.70193
405 3.50192
410 5.23854
415 4.95162
420 4.38458
425 3.42342
430 6.41039
435 3.35663
440 3.13791
445 7.4672
450 4.53813
455 5.10353
460 5.87688
465 6.16632
470 5.54595
475 6.77809
480 3.72871
485 4.10664
490 4.69261
495 7.6737
500 2.80863
505 2.85311
510 5.29606
515 2.63356
520 6.34064
525 5.43108
530 5.64811
535 6.97121
540 5.28474
545 6.08021
550 2.54675
555 4.5221
560 7.12547
565 4.57342
570 3.29393
575 3.89296
580 4.93383
585 7.11071
590 5.92273
595 3.24158
600 7.01541
Ex : 213
200 4.84393
205 2.95589
210 4.38832
215 8.90488
220 6.51823
225 2.94515
230 3.51474
235 4.82568
240 4.5666
245 3.76908
250 2.84912
255 8.04842
260 4.94762
265 3.56436
270 3.98508
275 4.8742
280 6.2652
285 5.6255
290 6.12546
295 4.92398
300 3.80974
305 4.47462
310 3.47179
315 4.37531
320 2.72371
325 3.00571
330 2.93838
335 5.0743
340 7.92172
345 6.82767
350 4.04192
355 6.82127
360 6.03711
365 5.55585
370 4.69011
375 4.90903
380 2.9524
385 4.46991
390 3.66928
395 3.70111
400 4.20956
405 4.59206
410 3.92906
415 4.40389
420 4.81176
425 5.22799
430 5.64178
435 3.86505
440 7.44889
445 6.79636
450 4.09418
455 6.22882
460 8.37246
465 4.16592
470 3.2686
475 2.57978
480 4.52432
485 5.45674
490 5.22922
495 4.29377
500 4.19681
505 2.73384
510 6.89803
515 5.00652
520 4.60068
525 4.24878
530 5.98534
535 5.15484
540 4.33852
545 3.20267
550 3.19426
555 4.25664
560 5.81734
565 5.22568
570 3.24233
575 4.72402
580 5.11102
585 7.99219
590 4.66504
595 4.16177
600 7.85862
Ex : 218
200 3.60465
205 6.9942
210 2.52781
215 3.03489
220 4.39381
225 2.52182
230 2.74921
235 4.41282
240 4.16372
245 3.0345
250 5.90755
255 3.10075
260 4.66147
265 5.39662
270 4.32509
275 3.16616
280 2.54433
285 4.90089
290 2.61532
295 3.51699
300 3.62449
305 5.38615
310 4.30544
315 4.13815
320 2.96979
325 5.8262
330 5.2171
335 3.32494
340 5.55281
345 4.84499
350 2.77162
355 4.58799
360 7.51789
365 3.41877
370 4.71492
375 4.98241
380 3.92471
385 5.23868
390 4.6248
395 4.23315
400 6.20796
405 5.99461
410 5.02255
415 5.06439
420 5.35116
425 5.31904
430 6.19315
435 6.93425
440 6.06693
445 6.81186
450 6.34493
455 6.97581
460 6.87214
465 6.9116
470 4.62999
475 4.02738
480 2.65454
485 3.71685
490 4.18933
495 4.39251
500 6.21587
505 4.80663
510 3.11408
515 2.96429
520 3.67137
525 2.88506
530 2.75597
535 4.45877
540 5.65534
545 6.68176
550 3.52436
555 3.34623
560 6.75464
565 5.62024
570 4.22398
575 4.23
580 4.14068
585 3.2244
590 5.28976
595 2.81249
600 2.21906
Ex : 223
200 6.38122
205 4.28016
210 5.21692
215 2.98299
220 3.45889
225 3.21469
230 3.49707
235 4.20427
240 4.10741
245 3.47864
250 3.3749
255 3.62892
260 3.61653
265 3.63733
270 3.07253
275 4.11212
280 2.78872
285 3.93109
290 2.75333
295 4.1099
300 2.23543
305 3.56418
310 5.82128
315 5.16277
320 4.08128
325 6.6134
330 3.30465
335 6.28564
340 4.50269
345 3.6753
350 3.3138
355 4.29203
360 5.46593
365 5.02474
370 3.75228
375 4.4703
380 2.81186
385 2.63096
390 4.11761
395 5.57139
400 4.76435
405 4.55858
410 6.53774
415 6.28401
420 3.67073
425 4.12629
430 3.54638
435 6.96931
440 3.5184
445 7.31378
450 5.40687
455 5.56669
460 4.23577
465 6.76732
470 6.01518
475 6.87324
480 3.43046
485 4.77633
490 3.84665
495 4.18005
500 5.01923
505 6.45882
510 5.49958
515 3.88017
520 3.86661
525 4.54657
530 5.12265
535 4.67612
540 6.09891
545 6.03117
550 5.14182
555 4.98961
560 2.79597
565 5.7274
570 4.35645
575 2.99448
580 3.90131
585 3.76722
590 6.58806
595 4.57789
600 0.520946
Ex : 228
200 3.86772
205 3.79766
210 4.06606
215 3.00068
220 3.65429
225 4.03156
230 5.54227
235 4.72524
240 6.35254
245 4.5202
250 3.71053
255 3.35494
260 3.12227
265 4.85375
270 2.29971
275 5.57892
280 2.76358
285 3.92667
290 3.4665
295 4.48883
300 2.31693
305 4.70396
310 3.1286
315 2.85675
320 3.81451
325 3.35563
330 4.3877
335 6.04413
340 4.05537
345 4.57067
350 3.5923
355 6.7316
360 4.48713
365 4.18589
370 3.89124
375 4.27627
380 4.03598
385 4.36663
390 4.11065
395 5.66941
400 3.9438
405 4.24477
410 4.08604
415 2.83247
420 3.97053
425 5.53461
430 6.79832
435 5.51006
440 3.45329
445 4.41533
450 5.09091
455 4.5335
460 4.67154
465 6.93097
470 5.07775
475 3.68426
480 2.79465
485 3.96844
490 5.0849
495 3.92363
500 2.80509
505 3.33509
510 3.36874
515 6.18848
520 4.18269
525 3.87381
530 4.04281
535 3.98414
540 5.14021
545 3.40468
550 4.19032
555 3.65984
560 5.17928
565 4.63938
570 4.04011
575 5.73649
580 3.34833
585 3.87969
590 2.66623
595 3.05108
600 3.89202
Ex : 233
200 2.40488
205 2.85985
210 5.28051
215 2.93766
220 4.88695
225 4.65535
230 3.51346
235 3.45375
240 4.09897
245 4.29159
250 2.57567
255 2.96085
260 3.67032
265 4.1186
270 4.45221
275 3.28371
280 3.99023
285 2.71784
290 3.97226
295 4.07504
300 6.24195
305 3.36464
310 5.93168
315 4.54322
320 5.73282
325 3.01082
330 2.8173
335 2.5258
340 5.38086
345 3.69905
350 2.0831
355 3.05376
360 4.87993
365 4.26045
370 3.25151
375 5.03324
380 5.73734
385 3.86273
390 4.91066
395 4.43871
400 4.00118
405 3.59077
410 5.67968
415 4.59981
420 4.14211
425 4.32766
430 5.52544
435 6.59762
440 3.19653
445 4.71535
450 5.45302
455 6.31569
460 3.74476
465 5.8394
470 5.81778
475 7.4176
480 3.87867
485 6.16254
490 3.7762
495 2.78865
500 4.93515
505 2.53919
510 4.07668
515 3.13555
520 4.58602
525 5.15218
530 3.07591
535 3.25802
540 3.82613
545 3.35724
550 3.68358
555 4.64042
560 3.6596
565 3.26555
570 5.78973
575 7.33119
580 3.82946
585 4.43058
590 4.87488
595 3.36674
600 0.383122
Ex : 238
200 5.39726
205 3.65371
210 3.5278
215 3.29387
220 3.01733
225 4.01126
230 3.31467
235 4.08769
240 4.31544
245 3.53885
250 6.90774
255 2.696
260 4.40599
265 3.75206
270 4.96056
275 3.56183
280 2.63123
285 3.64643
290 4.36974
295 4.05353
300 3.66462
305 5.00465
310 2.13711
315 4.62278
320 2.51509
325 2.73542
330 3.16171
335 2.53538
340 1.95339
345 4.93051
350 2.94062
355 3.04437
360 3.67481
365 4.35551
370 4.6271
375 3.87318
380 3.24515
385 5.52083
390 3.81703
395 7.74554
400 4.95063
405 4.08516
410 4.02135
415 6.9527
420 3.47713
425 3.05043
430 4.05605
435 3.52448
440 2.69364
445 3.21725
450 2.29931
455 4.56918
460 3.515
465 4.7028
470 4.08742
475 2.35873
480 3.2129
485 4.46077
490 4.26972
495 4.51301
500 4.29201
505 5.81348
510 2.96648
515 4.22295
520 2.53015
525 2.7629
530 2.58405
535 3.93425
540 1.87437
545 3.22402
550 2.99921
555 5.50261
560 6.0728
565 3.32695
570 2.5878
575 3.39029
580 1.79164
585 3.00718
590 4.9325
595 3.15766
600 0.359329
Ex : 243
200 2.91892
205 3.50773
210 3.31295
215 1.89234
220 2.50355
225 3.08632
230 2.84235
235 2.1241
240 2.60137
245 2.13421
250 3.35853
255 2.04425
260 3.85831
265 3.09424
270 3.66372
275 3.34554
280 3.54139
285 3.74859
290 2.1956
295 3.18168
300 2.63642
305 2.45478
310 3.99347
315 4.23103
320 2.35317
325 3.45313
330 2.95556
335 3.32277
340 2.03839
345 2.85942
350 2.79292
355 3.55767
360 2.34834
365 2.23287
370 3.2115
375 3.04492
380 6.61224
385 3.6694
390 2.80763
395 2.69492
400 3.69431
405 3.04833
410 5.10213
415 4.63669
420 4.04784
425 5.28708
430 3.58125
435 3.4578
440 3.15871
445 4.85324
450 2.72435
455 3.6993
460 3.70871
465 3.76719
470 2.94437
475 3.95251
480 6.34857
485 4.9503
490 4.38575
495 3.60597
500 3.61772
505 3.77315
510 4.21162
515 2.95239
520 4.34315
525 2.429
530 1.98577
535 3.60616
540 2.39284
545 3.0622
550 2.35743
555 3.10193
560 4.10483
565 2.15803
570 3.25081
575 5.11436
580 2.27966
585 2.90744
590 3.46372
595 2.05662
600 2.89265
Ex : 248
200 4.77181
205 3.06008
210 2.11472
215 1.93512
220 2.19478
225 3.36178
230 2.89901
235 2.13136
240 3.99209
245 3.09269
250 2.35165
255 1.99219
260 2.63382
265 1.84762
270 2.14992
275 1.76302
280 3.26712
285 2.05674
290 2.41371
295 3.63047
300 2.15347
305 2.67697
310 2.57912
315 3.81241
320 2.20625
325 2.91572
330 1.99871
335 2.24442
340 3.71714
345 3.30094
350 4.08803
355 3.62808
360 2.99691
365 3.25161
370 4.52836
375 2.63869
380 2.11257
385 4.38985
390 1.99906
395 1.69563
400 2.2324
405 3.96387
410 4.79755
415 1.86582
420 2.50585
425 2.8232
430 1.68847
435 4.073
440 2.64244
445 2.50082
450 3.12513
455 3.87689
460 3.68962
465 4.35726
470 2.66179
475 2.56139
480 3.01982
485 4.41109
490 2.8451
495 2.70525
500 2.24193
505 2.63203
510 3.18721
515 1.92241
520 2.16499
525 2.95947
530 2.27984
535 1.94177
540 2.73778
545 2.41741
550 2.1952
555 4.14852
560 4.79796
565 2.79628
570 2.86452
575 3.23651
580 2.75655
585 2.69939
590 2.52121
595 2.86793
600 0.32636
Ex : 253
200 2.50986
205 1.73869
210 1.57292
215 1.52725
220 2.4619
225 1.80681
230 2.37216
235 2.39973
240 3.32003
245 1.98046
250 1.72453
255 3.55501
260 3.32278
265 2.31009
270 2.11945
275 1.78126
280 1.68375
285 1.76761
290 2.34178
295 2.01455
300 1.67466
305 1.83921
310 1.91661
315 1.75482
320 3.1405
325 1.81771
330 3.66574
335 1.86967
340 1.92933
345 2.5714
350 2.67874
355 2.04978
360 2.61356
365 1.89504
370 1.91803
375 2.93774
380 2.41977
385 1.74821
390 2.18792
395 3.51591
400 2.07512
405 2.29304
410 2.18747
415 2.16049
420 1.63846
425 2.43987
430 3.74303
435 1.90942
440 2.03177
445 2.77328
450 2.60312
455 2.4892
460 2.59174
465 3.38307
470 2.53091
475 1.8286
480 4.46972
485 1.62658
490 3.04468
495 1.84565
500 2.29407
505 4.4032
510 2.08461
515 2.52979
520 2.82476
525 1.99321
530 1.76291
535 1.78541
540 2.32008
545 3.97175
550 2.10995
555 1.81224
560 3.02982
565 2.3609
570 2.8983
575 2.47769
580 1.78551
585 2.29917
590 2.09785
595 2.19084
600 0.249309
Ex : 258
200 1.99355
205 1.83123
210 2.02116
215 1.13942
220 1.55356
225 1.53628
230 2.08284
235 1.49808
240 1.13069
245 1.13173
250 1.43633
255 1.4708
260 1.18212
265 2.9571
270 1.77338
275 2.22546
280 1.86184
285 1.49109
290 2.25982
295 1.48037
300 1.19177
305 1.7304
310 0.892514
315 1.35461
320 1.12057
325 0.92989
330 1.31518
335 2.68086
340 3.18283
345 1.62248
350 2.23649
355 3.33608
360 3.05991
365 2.77606
370 3.39911
375 2.3915
380 1.29911
385 1.45822
390 1.54089
395 2.56948
400 1.96462
405 1.71508
410 1.24826
415 3.79714
420 2.94495
425 2.18459
430 2.29353
435 1.55697
440 2.72157
445 3.02568
450 1.54971
455 2.03497
460 1.95561
465 1.64738
470 2.12712
475 1.69639
480 2.07264
485 3.02583
490 1.94766
495 2.03352
500 2.89394
505 1.93916
510 2.64793
515 2.42051
520 2.31582
525 2.0755
530 2.37833
535 2.10042
540 2.40596
545 1.56517
550 1.3942
555 1.1812
560 1.86221
565 1.7365
570 2.22711
575 1.39812
580 2.01759
585 2.80728
590 2.03857
595 1.12601
600 0.128136
Ex : 263
200 1.16553
205 0.853744
210 1.20604
215 1.46348
220 1.44162
225 0.97346
230 1.01921
235 0.930416
240 2.58786
245 1.04923
250 1.64928
255 0.882867
260 1.05861
265 1.51639
270 0.84217
275 1.11993
280 1.58921
285 2.18225
290 1.42216
295 1.06191
300 0.831635
305 1.33227
310 1.25162
315 1.7317
320 1.60429
325 1.71328
330 2.1056
335 1.85173
340 1.51359
345 1.12685
350 1.49534
355 1.67135
360 1.78351
365 1.47782
370 1.1716
375 2.06531
380 2.3417
385 2.04986
390 0.844496
395 1.92448
400 1.6679
405 2.27124
410 2.63404
415 2.43504
420 2.49261
425 1.55747
430 1.7553
435 2.48122
440 2.95029
445 1.46349
450 1.37458
455 2.21536
460 1.32306
465 1.6168
470 1.97801
475 1.73475
480 1.64159
485 2.58513
490 2.36251
495 1.9438
500 2.01541
505 1.35354
510 1.69001
515 2.68419
520 2.01238
525 2.00602
530 2.29256
535 2.43639
540 1.6958
545 1.87874
550 1.6462
555 0.976885
560 1.09496
565 1.05457
570 0.939706
575 1.8332
580 2.05958
585 1.90488
590 1.45928
595 1.35976
600 0.952318
Ex : 268
200 0.927891
205 1.2746
210 0.754694
215 1.42309
220 1.36985
225 0.683758
230 0.998717
235 0.921407
240 0.921937
245 1.59036
250 1.29863
255 0.641609
260 1.30392
265 0.992444
270 1.21555
275 0.858289
280 1.01176
285 1.16607
290 1.23923
295 1.16715
300 0.842024
305 1.05133
310 1.10337
315 1.1539
320 1.35471
325 1.08449
330 1.31542
335 1.09251
340 0.80807
345 1.44439
350 1.19128
355 1.2702
360 1.53301
365 1.14301
370 1.05806
375 2.10169
380 1.56607
385 1.84813
390 1.82249
395 1.67455
400 1.12552
405 1.17715
410 1.12943
415 1.85788
420 1.4842
425 1.26017
430 1.07404
435 1.16276
440 1.53496
445 2.55788
450 1.17484
455 1.31082
460 1.4401
465 1.21406
470 1.4644
475 2.00252
480 1.12262
485 0.919393
490 1.42039
495 0.876315
500 1.13504
505 1.44197
510 0.757749
515 0.890285
520 1.04182
525 1.34277
530 1.62558
535 1.61215
540 0.862798
545 1.27363
550 1.03725
555 0.972148
560 1.07314
565 1.08721
570 1.27014
575 1.61383
580 1.27048
585 1.05929
590 0.927863
595 1.47394
600 0.167728
Ex : 273
200 0.663311
205 0.468909
210 0.920938
215 0.743576
220 0.704458
225 1.05191
230 0.896866
235 1.29536
240 1.45188
245 1.2179
250 0.916842
255 1.28793
260 1.33051
265 0.975805
270 0.880296
275 0.923787
280 1.13173
285 0.759826
290 0.670919
295 0.413203
300 0.489125
305 1.36752
310 0.999245
315 0.583758
320 0.773024
325 0.949609
330 0.933774
335 1.37993
340 1.32674
345 1.11567
350 1.04763
355 1.00936
360 0.805125
365 0.79839
370 0.976075
375 1.08679
380 1.09522
385 1.16085
390 1.09932
395 0.922584
400 1.25675
405 1.07795
410 1.17899
415 1.43896
420 1.46942
425 1.2508
430 1.04545
435 1.06748
440 1.00366
445 1.05395
450 0.957403
455 1.03381
460 0.887657
465 0.735442
470 1.68406
475 1.35896
480 1.08953
485 1.18861
490 1.1404
495 1.00901
500 1.46888
505 0.808511
510 0.79371
515 0.780585
520 0.740122
525 1.06548
530 0.955206
535 1.02864
540 1.21544
545 1.41149
550 1.09942
555 0.836053
560 0.837055
565 0.925571
570 0.932646
575 1.71122
580 1.19146
585 0.68326
590 0.88168
595 1.28095
600 0.145767
Ex : 278
200 0.699003
205 1.07683
210 0.491655
215 0.645948
220 0.68641
225 0.640509
230 0.518028
235 0.849828
240 0.70822
245 0.618645
250 0.737888
255 0.606829
260 0.941538
265 0.665837
270 0.542493
275 0.578282
280 0.459135
285 0.500591
290 0.7094
295 0.872722
300 0.806321
305 0.707265
310 0.757977
315 0.604156
320 1.15684
325 0.801256
330 0.801458
335 0.786122
340 1.2114
345 0.992932
350 0.924738
355 1.06609
360 0.767084
365 0.590798
370 0.850125
375 1.15346
380 0.933448
385 1.25151
390 0.787734
395 1.16878
400 1.43648
405 0.940302
410 0.815966
415 1.22795
420 1.35573
425 1.11399
430 0.999125
435 1.06738
440 1.22241
445 0.957942
450 1.1486
455 0.810423
460 1.10066
465 1.05609
470 1.23335
475 1.31007
480 0.962304
485 0.779563
490 0.817958
495 1.12297
500 0.720735
505 0.681221
510 0.438893
515 1.13759
520 0.548982
525 1.24408
530 0.756834
535 0.739457
540 1.06583
545 0.749082
550 0.804885
555 0.954022
560 0.897814
565 0.985959
570 0.82519
575 0.696005
580 0.447196
585 0.52176
590 0.730813
595 0.697188
600 0.0793373
Ex : 283
200 0.481287
205 0.406057
210 0.548105
215 0.440841
220 0.501101
225 0.584733
230 0.606942
235 0.440658
240 0.628221
245 0.60629
250 0.438923
255 0.608027
260 0.531935
265 0.42307
270 0.37362
275 0.500152
280 0.557376
285 0.562461
290 0.532418
295 0.63881
300 0.654749
305 0.882281
310 0.685807
315 0.442363
320 0.78039
325 0.703681
330 0.743562
335 0.606348
340 0.730437
345 0.832007
350 0.692917
355 0.649312
360 0.696374
365 1.12981
370 0.926751
375 0.630345
380 0.894828
385 0.932644
390 1.13493
395 1.11125
400 1.28229
405 0.680189
410 0.920133
415 1.05723
420 0.8098
425 0.97033
430 0.874788
435 1.05279
440 1.01074
445 1.13931
450 1.05171
455 0.852788
460 0.742899
465 0.979385
470 0.747118
475 1.023
480 0.928032
485 0.663981
490 0.97248
495 1.00219
500 0.815596
505 0.636466
510 0.665267
515 0.719488
520 0.974089
525 0.509639
530 0.632738
535 0.403326
540 0.964449
545 0.650021
550 0.734305
555 0.427082
560 0.844568
565 0.886525
570 0.603627
575 0.655051
580 0.358181
585 0.493516
590 0.391082
595 0.710661
600 1.35479
Ex : 288
200 0.800627
205 0.737813
210 0.397789
215 0.430718
220 0.516578
225 0.32178
230 0.485385
235 0.570341
240 0.479327
245 0.652594
250 0.420181
255 0.496228
260 0.409289
265 0.657171
270 0.267412
275 0.695225
280 0.526663
285 0.62201
290 0.484231
295 0.527449
300 0.527272
305 0.465251
310 0.549528
315 0.358682
320 0.280713
325 0.67198
330 0.440555
335 0.576898
340 0.528599
345 0.709998
350 1.12326
355 0.670692
360 0.773829
365 0.999982
370 0.892899
375 0.863609
380 0.555796
385 0.704637
390 0.72063
395 1.14366
400 0.746609
405 0.697845
410 0.639149
415 0.838167
420 0.755438
425 0.512802
430 1.15513
435 0.807264
440 0.894864
445 0.826506
450 0.682074
455 0.673842
460 0.801756
465 0.812254
470 0.798018
475 0.807471
480 1.06722
485 0.791283
490 1.00251
495 0.643451
500 0.884219
505 1.05712
510 0.569043
515 0.562516
520 0.482792
525 0.579033
530 0.598288
535 0.559732
540 0.58731
545 0.393271
550 0.305762
555 0.57627
560 0.321517
565 0.78964
570 0.82296
575 0.925631
580 0.708064
585 0.523395
590 0.491992
595 0.425562
600 0.0484273
Ex : 293
200 0.322133
205 0.381796
210 0.304039
215 0.425081
220 0.503091
225 0.530465
230 0.503228
235 0.441129
240 0.458959
245 0.452867
250 0.364647
255 0.3236
260 0.375848
265 0.593435
270 0.40565
275 0.470185
280 0.312461
285 0.524612
290 0.562963
295 0.484221
300 0.458094
305 0.420984
310 0.46385
315 0.498972
320 0.573295
325 0.559504
330 0.71606
335 0.513324
340 0.418598
345 0.485255
350 0.455518
355 0.55232
360 0.459787
365 0.731536
370 0.576587
375 0.592661
380 0.885148
385 0.564176
390 1.13386
395 0.7838
400 0.878885
405 0.758161
410 0.639499
415 1.03427
420 0.815599
425 0.448525
430 0.655008
435 0.574017
440 0.480462
445 0.762968
450 0.484924
455 0.984129
460 0.548479
465 0.736329
470 0.716658
475 0.596107
480 0.442094
485 0.494828
490 0.796946
495 0.68754
500 0.592209
505 0.980077
510 0.482609
515 0.464633
520 0.449081
525 0.502288
530 0.627307
535 0.485042
540 0.340098
545 0.34098
550 0.891214
555 0.478434
560 0.654714
565 0.641693
570 0.556319
575 0.47837
580 0.470069
585 0.650177
590 0.448627
595 0.460069
600 1.57745
Ex : 298
200 0.533674
205 0.520858
210 0.224894
215 0.393676
220 0.369435
225 0.236339
230 0.372385
235 0.392659
240 0.432243
245 0.477929
250 0.349377
255 0.325962
260 0.31532
265 0.395333
270 0.392801
275 0.362802
280 0.356224
285 0.288183
290 0.541863
295 0.333041
300 0.426231
305 0.553084
310 0.342814
315 0.455902
320 0.285289
325 0.525305
330 0.492913
335 0.463968
340 0.581461
345 0.514021
350 0.514338
355 0.706881
360 0.606238
365 0.54418
370 0.554952
375 0.446763
380 0.687068
385 0.757042
390 0.876412
395 0.73826
400 0.80834
405 0.870036
410 0.597858
415 0.737064
420 0.630244
425 0.645724
430 0.57636
435 0.408567
440 0.511367
445 0.564891
450 0.569857
455 0.68243
460 0.629484
465 0.552858
470 0.442774
475 0.541988
480 0.418204
485 0.594027
490 0.518598
495 0.261138
500 0.396152
505 0.551951
510 0.63556
515 0.414419
520 0.368889
525 0.432007
530 0.404563
535 0.451512
540 0.251397
545 0.442309
550 0.534054
555 0.410158
560 0.385844
565 0.640972
570 0.384768
575 0.272269
580 0.355114
585 0.367276
590 0.590672
595 0.647322
600 0.0736628
Ex : 303
200 0.407968
205 0.347152
210 0.370846
215 0.273416
220 0.307919
225 0.488505
230 0.359932
235 0.247775
240 0.292911
245 0.458824
250 0.292545
255 0.231572
260 0.530461
265 0.372468
270 0.343781
275 0.295381
280 0.260084
285 0.287181
290 0.326551
295 0.492526
300 0.696518
305 0.314965
310 0.244717
315 0.449344
320 0.359255
325 0.369531
330 0.440357
335 0.349538
340 0.410167
345 0.532232
350 0.423444
355 0.372686
360 0.380586
365 0.482866
370 0.448896
375 0.521766
380 0.387174
385 0.562404
390 0.888622
395 0.489952
400 1.0966
405 0.704161
410 0.789594
415 0.662903
420 0.431697
425 0.514498
430 0.520337
435 0.592291
440 0.615663
445 0.648922
450 0.613445
455 0.60458
460 0.618771
465 0.620471
470 0.439085
475 0.465765
480 0.429729
485 0.63517
490 0.55869
495 0.528412
500 0.238867
505 0.440386
510 0.330704
515 0.511448
520 0.397621
525 0.254495
530 0.338845
535 0.400691
540 0.278341
545 0.437195
550 0.419449
555 0.402638
560 0.532045
565 0.357614
570 0.303658
575 0.436955
580 0.265915
585 0.188791
590 0.356726
595 0.714538
600 1.24815
Ex : 308
200 0.369134
205 0.178945
210 0.226705
215 0.285801
220 0.281457
225 0.397995
230 0.248609
235 0.343852
240 0.3199
245 0.15494
250 0.210555
255 0.190998
260 0.177719
265 0.246978
270 0.313256
275 0.278383
280 0.228648
285 0.252905
290 0.404565
295 0.331961
300 0.384402
305 0.32414
310 0.418207
315 0.296923
320 0.349291
325 0.386591
330 0.590746
335 0.405975
340 0.523052
345 0.386807
350 0.374514
355 0.460493
360 0.369082
365 0.632074
370 0.517517
375 0.439629
380 0.533018
385 0.569448
390 0.555378
395 0.959679
400 0.6514
405 0.433992
410 0.607574
415 0.461646
420 0.554476
425 0.51737
430 0.565816
435 0.613333
440 0.57205
445 0.664854
450 0.423976
455 0.520641
460 0.329545
465 0.49785
470 0.552427
475 0.569489
480 0.487132
485 0.536049
490 0.475272
495 0.666269
500 0.378896
505 0.41463
510 0.282337
515 0.171282
520 0.232669
525 0.321041
530 0.639601
535 0.418855
540 0.367088
545 0.292709
550 0.28615
555 0.347042
560 0.280136
565 0.459419
570 0.344129
575 0.276648
580 0.202437
585 0.251273
590 0.147873
595 0.214733
600 0.0244358
Ex : 313
200 0.201709
205 0.290492
210 0.251795
215 0.133815
220 0.165353
225 0.18091
230 0.232976
235 0.325195
240 0.167579
245 0.25954
250 0.253461
255 0.207331
260 0.170015
265 0.357236
270 0.202398
275 0.270516
280 0.241953
285 0.297534
290 0.212685
295 0.188608
300 0.250653
305 0.316952
310 0.482052
315 0.259742
320 0.43111
325 0.462895
330 0.436983
335 0.462521
340 0.447047
345 0.599163
350 0.448139
355 0.445926
360 0.554675
365 0.725651
370 0.548052
375 0.559057
380 0.637366
385 0.592872
390 0.765352
395 0.733262
400 0.778248
405 0.643015
410 0.652909
415 0.759513
420 0.691239
425 0.820128
430 0.804475
435 0.640057
440 0.852146
445 0.769301
450 0.634832
455 0.950303
460 0.600476
465 0.955082
470 0.70604
475 0.749352
480 0.684581
485 0.645379
490 0.439536
495 0.38956
500 0.48442
505 0.394192
510 0.429421
515 0.434054
520 0.335213
525 0.440817
530 0.423012
535 0.333904
540 0.279886
545 0.359778
550 0.282957
555 0.315534
560 0.34013
565 0.321964
570 0.204447
575 0.219316
580 0.289561
585 0.27936
590 0.271532
595 0.336205
600 0.0837052
Ex : 318
200 0.146707
205 0.361868
210 0.263575
215 0.314715
220 0.332514
225 0.347547
230 0.399585
235 0.216963
240 0.21617
245 0.244815
250 0.297542
255 0.237254
260 0.389835
265 0.331462
270 0.316937
275 0.271746
280 0.205886
285 0.192964
290 0.113161
295 0.251321
300 0.165234
305 0.132158
310 0.372235
315 0.905343
320 0.414472
325 0.618553
330 0.766709
335 0.868923
340 1.21997
345 1.25207
350 1.808
355 1.92472
360 2.61556
365 3.38787
370 3.95213
375 4.42804
380 4.94768
385 5.9335
390 6.36067
395 6.71469
400 6.95496
405 7.04138
410 6.98053
415 6.75976
420 7.12855
425 6.73671
430 6.40926
435 6.58405
440 6.39315
445 5.90056
450 5.61101
455 5.40328
460 4.56915
465 4.2295
470 4.33958
475 3.52829
480 3.04827
485 2.7809
490 2.47354
495 2.29724
500 1.99181
505 1.72165
510 1.65984
515 1.22837
520 1.15754
525 0.844714
530 0.814231
535 0.843909
540 0.657458
545 0.641753
550 0.723934
555 0.586613
560 0.514088
565 0.441081
570 0.333236
575 0.254204
580 0.396864
585 0.209925
590 0.317433
595 0.395924
600 0.0450546
Ex : 323
200 0.27657
205 0.175948
210 0.108104
215 0.236367
220 0.240735
225 0.17549
230 0.192568
235 0.257555
240 0.200749
245 0.170725
250 0.270936
255 0.15535
260 0.136586
265 0.279943
270 0.172575
275 0.163579
280 0.228128
285 0.149271
290 0.193494
295 0.216211
300 0.258413
305 0.177715
310 0.21126
315 7.35412
320 38.7451
325 16.8063
330 3.95179
335 2.96589
340 3.78648
345 5.65751
350 7.8146
355 10.7219
360 13.3666
365 15.5064
370 18.3994
375 21.6565
380 24.1234
385 27.3865
390 28.8942
395 30.3821
400 33.021
405 33.1976
410 33.3082
415 33.5753
420 32.0584
425 31.5818
430 30.6691
435 30.9316
440 28.6513
445 27.5581
450 25.0285
455 23.5204
460 22.1458
465 20.8601
470 18.9761
475 17.4836
480 15.2231
485 14.1824
490 12.8063
495 11.4577
500 9.97406
505 8.42417
510 7.70711
515 6.07863
520 5.44498
525 4.93983
530 3.89835
535 3.09016
540 3.01284
545 2.70841
550 1.95144
555 1.98228
560 1.48533
565 1.20235
570 0.94014
575 0.720064
580 0.535923
585 0.44211
590 0.56551
595 0.314489
600 2.3873
Ex : 328
200 0.205465
205 0.232935
210 0.186051
215 0.154818
220 0.162941
225 0.156902
230 0.22578
235 0.189378
240 0.173245
245 0.122614
250 0.24696
255 0.202473
260 0.144175
265 0.196048
270 0.132482
275 0.209632
280 0.256752
285 0.203752
290 0.164612
295 0.219888
300 0.172691
305 0.1305
310 0.293954
315 1.99108
320 96.032
325 244.697
330 74.5629
335 12.5865
340 6.28942
345 6.99875
350 8.93624
355 13.5864
360 17.8642
365 20.2012
370 21.7104
375 24.8282
380 29.4726
385 32.5772
390 34.1216
395 36.1649
400 37.3919
405 39.0064
410 39.4845
415 39.2524
420 37.823
425 36.8777
430 35.1761
435 33.9605
440 33.1886
445 31.3678
450 29.4912
455 27.4507
460 25.2411
465 24.0753
470 22.2438
475 19.6149
480 18.19
485 16.145
490 14.4568
495 12.6615
500 11.4684
505 10.275
510 8.89742
515 7.55264
520 6.75396
525 5.79824
530 4.8967
535 4.4234
540 3.73532
545 2.72001
550 2.66622
555 2.19797
560 1.90211
565 1.42754
570 1.52273
575 1.13042
580 0.714276
585 0.670792
590 0.598085
595 0.462593
600 0.640758
Ex : 333
200 0.202616
205 0.162275
210 0.162753
215 0.170231
220 0.269536
225 0.209489
230 0.228714
235 0.20004
240 0.232249
245 0.201423
250 0.161627
255 0.211937
260 0.228869
265 0.277162
270 0.217797
275 0.110331
280 0.137542
285 0.238565
290 0.184629
295 0.210723
300 0.255308
305 0.2739
310 0.344411
315 0.390373
320 14.334
325 286.281
330 492.401
335 130.811
340 19.3235
345 7.15286
350 6.31877
355 7.17421
360 10.0221
365 15.0762
370 15.4532
375 15.3925
380 16.9352
385 19.4855
390 21.9119
395 23.5724
400 24.1507
405 24.4331
410 25.0461
415 24.6025
420 24.1151
425 22.8724
430 21.1762
435 21.66
440 20.1756
445 19.2326
450 17.6929
455 16.1595
460 15.1077
465 14.0427
470 13.0805
475 11.3095
480 10.5514
485 9.70134
490 8.41907
495 7.46649
500 6.68244
505 5.84907
510 5.16015
515 4.60614
520 3.65214
525 3.33988
530 3.10102
535 2.37547
540 2.42375
545 1.98634
550 1.53304
555 1.46826
560 1.28065
565 0.965332
570 0.947395
575 0.695176
580 0.666527
585 0.747507
590 0.55979
595 0.425608
600 0.934636
Ex : 338
200 0.206256
205 0.177538
210 0.186822
215 0.170996
220 0.206529
225 0.115965
230 0.145133
235 0.137598
240 0.144664
245 0.205807
250 0.158526
255 0.128299
260 0.174335
265 0.167248
270 0.225781
275 0.200589
280 0.182222
285 0.164174
290 0.18672
295 0.191255
300 0.165593
305 0.24482
310 0.284889
315 0.244533
320 0.428615
325 25.8988
330 432.116
335 659.537
340 162.808
345 22.1796
350 6.20604
355 4.24181
360 4.47205
365 6.10964
370 10.5161
375 10.4378
380 9.89215
385 10.7773
390 13.337
395 14.0312
400 13.9734
405 13.9831
410 15.4822
415 15.9547
420 15.6847
425 14.1739
430 13.5192
435 12.7254
440 12.5532
445 11.8921
450 10.8226
455 9.25341
460 8.88198
465 8.40179
470 7.59794
475 7.124
480 6.62996
485 5.78264
490 5.3889
495 4.59321
500 4.12876
505 3.46943
510 3.28255
515 2.7626
520 2.51609
525 2.34292
530 1.81323
535 1.74301
540 1.5387
545 1.30375
550 1.23009
555 1.04733
560 1.09529
565 1.04707
570 0.706173
575 0.684719
580 0.565156
585 0.584503
590 0.491323
595 0.288703
600 0.170707
Ex : 343
200 0.112242
205 0.149755
210 0.152837
215 0.144408
220 0.219717
225 0.212105
230 0.154931
235 0.190548
240 0.21119
245 0.177157
250 0.144532
255 0.138464
260 0.215886
265 0.20996
270 0.197624
275 0.15292
280 0.221944
285 0.214074
290 0.234597
295 0.158243
300 0.190285
305 0.154418
310 0.233422
315 0.228995
320 0.293019
325 0.788768
330 30.8624
335 501.548
340 746.547
345 179.788
350 23.6355
355 5.77588
360 3.34419
365 2.72452
370 3.60855
375 7.70115
380 9.95585
385 9.80642
390 10.6971
395 11.1722
400 11.1353
405 12.1261
410 13.1593
415 13.3476
420 13.3344
425 11.8032
430 11.2725
435 10.9486
440 10.588
445 9.87941
450 9.17713
455 8.38937
460 7.56438
465 7.50437
470 6.29091
475 6.21275
480 5.61519
485 5.07619
490 4.48463
495 4.04565
500 3.64835
505 3.44018
510 2.87363
515 2.33619
520 2.3
525 2.12076
530 1.61615
535 1.57557
540 1.44585
545 1.3428
550 1.14648
555 1.02088
560 0.812019
565 0.762
570 0.619731
575 0.562874
580 0.589446
585 0.434031
590 0.414341
595 0.336004
600 0.62301
Ex : 348
200 0.184802
205 0.129351
210 0.129804
215 0.15244
220 0.102405
225 0.147739
230 0.188726
235 0.124646
240 0.223314
245 0.299411
250 0.227295
255 0.108881
260 0.15597
265 0.228712
270 0.142317
275 0.12191
280 0.205831
285 0.112494
290 0.167986
295 0.171773
300 0.172309
305 0.209839
310 0.176568
315 0.258915
320 0.275049
325 0.358983
330 0.67622
335 31.4773
340 512.26
345 790.048
350 201.434
355 25.5945
360 5.56207
365 3.01125
370 2.26069
375 3.23496
380 7.40347
385 12.9123
390 13.5207
395 13.1672
400 12.3053
405 13.2245
410 15.1107
415 16.1889
420 15.4398
425 13.4416
430 12.626
435 12.4806
440 12.4631
445 11.8151
450 10.6404
455 9.59413
460 9.11677
465 8.10067
470 7.6386
475 6.85023
480 6.22498
485 5.64854
490 4.97708
495 4.43199
500 3.89849
505 3.43368
510 3.01757
515 2.73728
520 2.2876
525 2.02343
530 1.82409
535 1.61948
540 1.5314
545 1.25328
550 1.14035
555 1.07165
560 0.853991
565 0.738556
570 0.763165
575 0.597429
580 0.670176
585 0.562318
590 0.357315
595 0.367296
600 0.0417969
Ex : 353
200 0.143913
205 0.128522
210 0.134379
215 0.143636
220 0.134612
225 0.076685
230 0.100699
235 0.192445
240 0.127541
245 0.149058
250 0.126123
255 0.138286
260 0.10448
265 0.138279
270 0.196988
275 0.145241
280 0.0827701
285 0.0958056
290 0.131433
295 0.112578
300 0.122745
305 0.180039
310 0.195382
315 0.186922
320 0.130079
325 0.243275
330 0.474731
335 0.801485
340 32.9509
345 537.848
350 796.017
355 197.264
360 25.0868
365 5.18523
370 2.88296
375 2.3514
380 3.42868
385 9.13251
390 16.4892
395 17.6132
400 14.9622
405 14.1895
410 15.9612
415 18.0659
420 17.4105
425 15.7253
430 13.7734
435 14.163
440 14.0046
445 13.8663
450 12.6409
455 10.7124
460 10.086
465 8.6496
470 7.99972
475 7.73805
480 7.00285
485 6.02027
490 5.54509
495 4.7626
500 4.50846
505 3.82691
510 3.5138
515 2.91015
520 2.41571
525 2.38386
530 1.89874
535 1.83798
540 1.59178
545 1.48398
550 1.32776
555 1.08734
560 0.984255
565 0.864393
570 0.822995
575 0.599372
580 0.605288
585 0.422822
590 0.421908
595 0.314983
600 0.185262
Ex : 358
200 0.0918471
205 0.125575
210 0.12694
215 0.126024
220 0.103496
225 0.115923
230 0.104643
235 0.091867
240 0.0882933
245 0.138962
250 0.110006
255 0.0890571
260 0.0965821
265 0.223629
270 0.178469
275 0.120016
280 0.126234
285 0.126906
290 0.135298
295 0.127083
300 0.153016
305 0.167386
310 0.134486
315 0.196402
320 0.139625
325 0.182506
330 0.26323
335 0.437684
340 0.960976
345 32.1483
350 522.572
355 816.62
360 204.212
365 25.7114
370 5.31166
375 3.06395
380 3.54414
385 6.18846
390 11.3934
395 16.6213
400 15.5309
405 14.4689
410 15.4394
415 17.5789
420 17.2638
425 15.2543
430 13.5382
435 13.6729
440 13.4297
445 13.3308
450 11.9459
455 10.7554
460 9.71945
465 8.7096
470 8.57138
475 7.75698
480 7.35763
485 6.15336
490 5.41935
495 4.95686
500 4.62984
505 4.34752
510 3.60206
515 3.00406
520 2.77647
525 2.30416
530 2.19287
535 2.02742
540 1.61242
545 1.48903
550 1.37165
555 1.13056
560 0.983227
565 0.8656
570 0.855283
575 0.633436
580 0.448406
585 0.48694
590 0.416857
595 0.409752
600 0.546296
Ex : 363
200 0.1205
205 0.133585
210 0.123117
215 0.0870448
220 0.0724084
225 0.116192
230 0.145544
235 0.0849199
240 0.100053
245 0.117973
250 0.154229
255 0.122835
260 0.134468
265 0.160294
270 0.127199
275 0.170513
280 0.134508
285 0.135935
290 0.135267
295 0.140302
300 0.119881
305 0.188106
310 0.237124
315 0.205429
320 0.194862
325 0.228506
330 0.263713
335 0.288136
340 0.560428
345 0.911128
350 30.5845
355 519.934
360 830.844
365 216.711
370 27.2217
375 5.51461
380 4.66752
385 8.45852
390 11.6117
395 13.5831
400 16.7492
405 18.5041
410 19.4265
415 19.9778
420 18.8605
425 16.4632
430 15.4173
435 15.6176
440 15.6755
445 15.5129
450 13.6267
455 11.8171
460 11.336
465 10.1511
470 9.26028
475 8.92425
480 7.86065
485 7.0634
490 5.86825
495 5.78934
500 5.15573
505 4.51513
510 3.91859
515 3.31916
520 2.97881
525 2.63001
530 2.42086
535 2.06664
540 1.8092
545 1.47008
550 1.4077
555 1.19074
560 1.08055
565 0.870534
570 0.959716
575 0.709482
580 0.512774
585 0.420866
590 0.359739
595 0.339363
600 0.0386183
Ex : 368
200 0.153983
205 0.16186
210 0.11235
215 0.142083
220 0.112197
225 0.122062
230 0.145769
235 0.109087
240 0.113246
245 0.143322
250 0.125342
255 0.116066
260 0.0908962
265 0.0913211
270 0.0924204
275 0.0757933
280 0.18942
285 0.167041
290 0.181339
295 0.103591
300 0.130055
305 0.162286
310 0.116109
315 0.106878
320 0.195505
325 0.165046
330 0.232862
335 0.193998
340 0.300841
345 0.44653
350 0.84414
355 24.715
360 505.42
365 857.532
370 230.222
375 29.2402
380 7.65359
385 9.73091
390 15.1435
395 16.6522
400 16.1415
405 19.6205
410 24.8424
415 26.636
420 24.563
425 20.852
430 19.4362
435 18.7096
440 19.0706
445 19.0189
450 15.9918
455 14.5545
460 13.0384
465 12.326
470 10.8712
475 10.1341
480 9.22217
485 8.03664
490 6.97174
495 6.52876
500 5.56947
505 5.14199
510 4.43827
515 3.95561
520 3.27152
525 3.0418
530 2.47854
535 2.34652
540 2.04141
545 1.53351
550 1.33153
555 1.15313
560 1.16499
565 0.917475
570 0.796284
575 0.657399
580 0.558021
585 0.407117
590 0.401304
595 0.228533
600 0.157296
Ex : 373
200 0.136723
205 0.0945885
210 0.0962591
215 0.070969
220 0.0822759
225 0.0940521
230 0.125118
235 0.135478
240 0.0806895
245 0.110985
250 0.0948385
255 0.105115
260 0.124642
265 0.146613
270 0.174402
275 0.093611
280 0.0936231
285 0.121875
290 0.148491
295 0.14128
300 0.162315
305 0.0931221
310 0.141261
315 0.0997322
320 0.133571
325 0.129772
330 0.168702
335 0.209701
340 0.265223
345 0.346191
350 0.571379
355 0.953826
360 29.8292
365 519.059
370 851.506
375 227.496
380 29.9334
385 10.1381
390 14.765
395 17.6511
400 16.5575
405 15.9463
410 20.8719
415 27.3197
420 26.254
425 22.004
430 19.0981
435 17.8021
440 18.3599
445 18.0705
450 16.4826
455 13.5716
460 12.0886
465 11.3815
470 10.6201
475 9.79134
480 8.59891
485 7.56968
490 6.71964
495 6.44861
500 5.64669
505 4.93364
510 4.38011
515 3.80224
520 3.31354
525 3.00985
530 2.49312
535 2.20951
540 1.98609
545 1.65821
550 1.53149
555 1.23857
560 1.1101
565 1.10334
570 0.755698
575 0.709144
580 0.535511
585 0.490118
590 0.501064
595 0.314626
600 0.23792
Ex : 378
200 0.0679055
205 0.0951759
210 0.119081
215 0.111028
220 0.0805378
225 0.151262
230 0.0583407
235 0.104203
240 0.102422
245 0.134971
250 0.12978
255 0.0902595
260 0.111536
265 0.0988768
270 0.143142
275 0.104998
280 0.0671481
285 0.0874666
290 0.111508
295 0.155075
300 0.132744
305 0.129311
310 0.141151
315 0.120047
320 0.145922
325 0.147783
330 0.177767
335 0.175011
340 0.177679
345 0.238711
350 0.328198
355 0.49669
360 0.873533
365 27.3903
370 519.863
375 864.787
380 233.229
385 32.7938
390 13.9514
395 13.3744
400 12.5453
405 12.1602
410 14.427
415 18.712
420 21.034
425 18.5766
430 15.5694
435 14.5729
440 14.4455
445 13.8304
450 12.4618
455 11.5674
460 10.1831
465 9.36972
470 8.84991
475 8.36446
480 7.33075
485 6.84144
490 6.08387
495 5.52688
500 4.87795
505 4.45088
510 4.18903
515 3.79382
520 2.96275
525 2.68551
530 2.38067
535 2.17226
540 1.8392
545 1.66512
550 1.47454
555 1.3139
560 1.13452
565 0.873568
570 0.820975
575 0.622715
580 0.522766
585 0.417078
590 0.361419
595 0.307448
600 0.134271
Ex : 383
200 0.0788413
205 0.0984314
210 0.160005
215 0.158968
220 0.134834
225 0.131463
230 0.113672
235 0.0800032
240 0.0789839
245 0.105867
250 0.126418
255 0.0982545
260 0.118253
265 0.121112
270 0.106507
275 0.103579
280 0.103005
285 0.0973366
290 0.0651011
295 0.0908324
300 0.107882
305 0.137952
310 0.123659
315 0.149365
320 0.165857
325 0.114266
330 0.150938
335 0.200471
340 0.197381
345 0.234321
350 0.360317
355 0.365312
360 0.584766
365 0.92539
370 26.5088
375 519.311
380 905.095
385 253.146
390 39.5735
395 15.2514
400 11.8557
405 12.6601
410 15.2867
415 17.1201
420 17.1268
425 17.4278
430 17.3311
435 15.6844
440 15.2575
445 14.4773
450 12.6885
455 11.6004
460 10.507
465 9.82144
470 9.0048
475 8.47279
480 7.82292
485 7.1885
490 5.89725
495 5.59837
500 4.90597
505 4.68086
510 4.10714
515 3.62454
520 3.07015
525 2.6906
530 2.50488
535 2.06621
540 1.84723
545 1.75061
550 1.45308
555 1.39419
560 1.1965
565 0.97337
570 0.784257
575 0.660192
580 0.425795
585 0.369456
590 0.299933
595 0.312302
600 0.224689
Ex : 388
200 0.0659559
205 0.0962387
210 0.106095
215 0.156994
220 0.0929415
225 0.0916896
230 0.0870225
235 0.109162
240 0.107335
245 0.0680261
250 0.0916488
255 0.128152
260 0.0842591
265 0.0953552
270 0.101589
275 0.125725
280 0.103162
285 0.106537
290 0.0799068
295 0.14105
300 0.098398
305 0.119281
310 0.0761881
315 0.0692879
320 0.0828276
325 0.137849
330 0.146348
335 0.216605
340 0.206962
345 0.182984
350 0.211397
355 0.351734
360 0.395009
365 0.561862
370 0.975879
375 29.1306
380 542.345
385 922.443
390 258.408
395 43.084
400 17.1469
405 15.7334
410 18.5266
415 20.9625
420 20.2229
425 17.7082
430 17.9292
435 19.76
440 18.7007
445 17.4675
450 14.7742
455 12.9475
460 11.6412
465 10.4828
470 10.1371
475 9.53485
480 8.76436
485 7.46862
490 6.5061
495 6.03138
500 5.26834
505 4.76555
510 4.27066
515 3.7083
520 3.20804
525 2.95424
530 2.55561
535 2.20894
540 1.90563
545 1.78872
550 1.47337
555 1.27045
560 1.27738
565 1.00073
570 0.852019
575 0.61313
580 0.489966
585 0.468537
590 0.374363
595 0.304852
600 0.317737
Ex : 393
200 0.0856436
205 0.0990634
210 0.140514
215 0.0735871
220 0.113648
225 0.0666839
230 0.0742736
235 0.134117
240 0.106065
245 0.129832
250 0.0869259
255 0.115563
260 0.100685
265 0.107749
270 0.0934434
275 0.112761
280 0.0963595
285 0.0771985
290 0.0742366
295 0.0767521
300 0.0785744
305 0.127945
310 0.0876051
315 0.0949276
320 0.0670693
325 0.0888625
330 0.109549
335 0.114973
340 0.14305
345 0.201334
350 0.191131
355 0.173101
360 0.246922
365 0.366065
370 0.570897
375 1.15264
380 26.2437
385 544.041
390 950.288
395 269.592
400 44.7638
405 17.3448
410 17.5526
415 21.4281
420 21.5699
425 17.9028
430 15.5765
435 16.4067
440 19.1282
445 18.07
450 15.4862
455 12.8797
460 10.7973
465 10.1617
470 9.66446
475 8.75862
480 8.22861
485 7.11464
490 6.31512
495 5.61792
500 5.14372
505 4.64397
510 4.10077
515 3.74858
520 3.4705
525 2.87222
530 2.31196
535 2.08223
540 1.81148
545 1.73218
550 1.49937
555 1.31132
560 1.1328
565 1.03864
570 0.735965
575 0.534057
580 0.534283
585 0.434437
590 0.346732
595 0.24478
600 0.259729
Ex : 398
200 0.0989206
205 0.0731419
210 0.116451
215 0.108727
220 0.127694
225 0.0555577
230 0.0765741
235 0.0883563
240 0.111119
245 0.119169
250 0.0974368
255 0.110699
260 0.0607792
265 0.0784336
270 0.100746
275 0.10866
280 0.125215
285 0.0932305
290 0.107333
295 0.0939009
300 0.0818596
305 0.12879
310 0.176972
315 0.100131
320 0.127932
325 0.142525
330 0.112007
335 0.126225
340 0.107264
345 0.149698
350 0.113988
355 0.208602
360 0.205396
365 0.295628
370 0.402694
375 0.599297
380 1.21062
385 28.1706
390 559.813
395 968.232
400 265.638
405 38.8865
410 13.8614
415 13.8149
420 14.2613
425 12.5428
430 10.159
435 9.90312
440 11.6146
445 13.7387
450 13.0564
455 10.1877
460 8.6489
465 7.78665
470 7.49888
475 6.90997
480 6.17986
485 5.72933
490 5.38695
495 4.65035
500 4.27044
505 3.98366
510 3.57868
515 3.22195
520 2.96919
525 2.56962
530 2.39869
535 2.12464
540 1.89672
545 1.65643
550 1.4171
555 1.28073
560 1.06389
565 0.909509
570 0.717163
575 0.575902
580 0.532844
585 0.39822
590 0.347834
595 0.318266
600 0.179926
Ex : 403
200 0.0930855
205 0.101037
210 0.102573
215 0.130037
220 0.0823083
225 0.0677199
230 0.11264
235 0.138258
240 0.0851023
245 0.0780102
250 0.105541
255 0.106172
260 0.0777831
265 0.0975739
270 0.085608
275 0.105405
280 0.140879
285 0.110151
290 0.0658617
295 0.0789382
300 0.130908
305 0.0767435
310 0.0847367
315 0.0790092
320 0.112514
325 0.0952344
330 0.131001
335 0.111118
340 0.123863
345 0.166428
350 0.172931
355 0.187152
360 0.202517
365 0.117393
370 0.232191
375 0.405338
380 0.635596
385 1.43649
390 31.131
395 565.008
400 965.675
405 266.488
410 36.3693
415 10.8768
420 8.18681
425 7.6696
430 6.80941
435 6.68872
440 7.64223
445 8.11546
450 9.78389
455 9.27219
460 7.58491
465 6.99381
470 6.20423
475 5.7195
480 5.50248
485 4.97598
490 4.70315
495 4.44477
500 3.87826
505 3.54959
510 3.36378
515 2.91566
520 2.68127
525 2.4716
530 2.08597
535 1.8941
540 1.53158
545 1.46377
550 1.23356
555 1.29196
560 0.923975
565 0.9735
570 0.840347
575 0.624288
580 0.495488
585 0.377368
590 0.332887
595 0.301259
600 0.0462984
Ex : 408
200 0.115833
205 0.105639
210 0.0988018
215 0.0646439
220 0.0872557
225 0.064169
230 0.0745395
235 0.0668326
240 0.0950163
245 0.110189
250 0.0688751
255 0.0844223
260 0.0651787
265 0.0822077
270 0.105269
275 0.111613
280 0.0996851
285 0.0873062
290 0.0849149
295 0.107063
300 0.0884479
305 0.0854712
310 0.100105
315 0.107361
320 0.095258
325 0.0990992
330 0.124169
335 0.123528
340 0.106633
345 0.132438
350 0.166158
355 0.166307
360 0.159645
365 0.183516
370 0.230486
375 0.258967
380 0.321121
385 0.606502
390 1.41306
395 29.9935
400 587.391
405 977.614
410 261.212
415 36.5898
420 10.6532
425 7.19986
430 6.6782
435 6.93707
440 7.06666
445 7.29656
450 7.23569
455 8.80831
460 9.26126
465 7.81669
470 6.75628
475 6.51381
480 5.71865
485 4.97472
490 4.55431
495 4.30026
500 4.14733
505 3.70203
510 3.40851
515 2.79476
520 2.54898
525 2.30144
530 2.09209
535 1.7079
540 1.66787
545 1.52414
550 1.2951
555 1.16729
560 1.04037
565 0.93241
570 0.638375
575 0.597904
580 0.434202
585 0.376635
590 0.352006
595 0.284697
600 0.325782
Ex : 413
200 0.112636
205 0.0790857
210 0.0820388
215 0.0861931
220 0.0760085
225 0.085964
230 0.0842624
235 0.0788401
240 0.122202
245 0.0988846
250 0.0986949
255 0.0720713
260 0.0746258
265 0.0537457
270 0.107555
275 0.116532
280 0.139006
285 0.103355
290 0.12988
295 0.143985
300 0.0887325
305 0.12586
310 0.152592
315 0.0901393
320 0.0990699
325 0.097387
330 0.120136
335 0.141047
340 0.117116
345 0.15662
350 0.139776
355 0.134934
360 0.145514
365 0.158468
370 0.214032
375 0.217964
380 0.287849
385 0.359712
390 0.689895
395 1.21817
400 33.4223
405 602.942
410 996.039
415 260.733
420 35.8425
425 9.18864
430 5.81485
435 6.40125
440 7.11675
445 6.70114
450 6.47146
455 6.0545
460 6.83975
465 8.42545
470 7.36632
475 6.09324
480 5.47222
485 4.84486
490 4.25737
495 3.94682
500 3.70675
505 3.48916
510 3.13945
515 2.74187
520 2.52103
525 2.09015
530 2.01168
535 1.79969
540 1.50188
545 1.48675
550 1.30537
555 1.21499
560 0.939853
565 0.857098
570 0.759107
575 0.603229
580 0.484775
585 0.355742
590 0.393689
595 0.34841
600 0.0396478
Ex : 418
200 0.0964146
205 0.0945784
210 0.0818804
215 0.0687608
220 0.0967391
225 0.0592957
230 0.0872861
235 0.0933493
240 0.0933351
245 0.133365
250 0.0910445
255 0.0996842
260 0.107489
265 0.0823922
270 0.0815039
275 0.0986234
280 0.0737736
285 0.0952213
290 0.0719509
295 0.0793586
300 0.0922676
305 0.0806795
310 0.06008
315 0.0781658
320 0.106663
325 0.117658
330 0.120961
335 0.11889
340 0.0868301
345 0.177958
350 0.140979
355 0.13507
360 0.164761
365 0.143089
370 0.174085
375 0.204383
380 0.181273
385 0.236553
390 0.358378
395 0.627745
400 1.37071
405 32.4009
410 620.215
415 1039.11
420 281.088
425 36.2158
430 7.52114
435 4.29239
440 4.51325
445 4.61069
450 4.06598
455 3.67412
460 3.48445
465 4.28579
470 6.20549
475 6.23176
480 4.82924
485 4.08719
490 3.49908
495 3.14519
500 2.98018
505 2.84441
510 2.59823
515 2.3727
520 1.96033
525 1.86414
530 1.77654
535 1.57187
540 1.51537
545 1.25339
550 1.11354
555 1.08203
560 0.930975
565 0.829234
570 0.701372
575 0.553453
580 0.49169
585 0.374319
590 0.276698
595 0.270787
600 0.484939
Ex : 423
200 0.0569334
205 0.0789484
210 0.0633575
215 0.0616332
220 0.104688
225 0.0729921
230 0.0911684
235 0.093329
240 0.0952199
245 0.124339
250 0.0716734
255 0.053325
260 0.0878064
265 0.0856529
270 0.120401
275 0.0982533
280 0.0870177
285 0.103235
290 0.0650673
295 0.0856905
300 0.143669
305 0.11358
310 0.0736746
315 0.0862322
320 0.0668104
325 0.0838235
330 0.131841
335 0.122958
340 0.16471
345 0.123891
350 0.122407
355 0.137312
360 0.147576
365 0.119774
370 0.164516
375 0.177991
380 0.227831
385 0.234241
390 0.30824
395 0.473127
400 0.593097
405 1.26447
410 34.4876
415 658.637
420 1052.37
425 268.089
430 33.7541
435 6.35005
440 3.12037
445 2.91531
450 2.87438
455 2.43553
460 2.25792
465 2.31411
470 2.66183
475 4.46162
480 5.09535
485 3.63971
490 3.22019
495 2.691
500 2.47197
505 2.19786
510 2.15189
515 2.00443
520 1.82824
525 1.63404
530 1.61021
535 1.45043
540 1.30202
545 1.10677
550 1.09742
555 0.913528
560 0.931624
565 0.779661
570 0.684652
575 0.574207
580 0.432564
585 0.306511
590 0.309529
595 0.243325
600 0.231977
Ex : 428
200 0.0796264
205 0.101445
210 0.100906
215 0.0561035
220 0.086455
225 0.0739379
230 0.0654938
235 0.0644606
240 0.110069
245 0.154166
250 0.131769
255 0.108107
260 0.111226
265 0.08745
270 0.13014
275 0.101325
280 0.104513
285 0.0591802
290 0.0656302
295 0.0597767
300 0.0860157
305 0.0969119
310 0.111082
315 0.0791326
320 0.0749861
325 0.103916
330 0.0987915
335 0.122983
340 0.124832
345 0.103236
350 0.112955
355 0.18066
360 0.123009
365 0.17193
370 0.123505
375 0.13916
380 0.177274
385 0.219819
390 0.252335
395 0.31888
400 0.401362
405 0.742411
410 1.26792
415 37.7955
420 673.915
425 1086.54
430 284.974
435 35.1063
440 5.84158
445 2.3535
450 2.1867
455 2.08918
460 1.82055
465 1.60121
470 1.78687
475 2.02524
480 3.28685
485 4.70234
490 3.50863
495 2.83322
500 2.70929
505 2.16966
510 1.79448
515 1.78032
520 1.81394
525 1.67118
530 1.41953
535 1.41684
540 1.23644
545 1.07378
550 1.01144
555 0.972149
560 0.935921
565 0.771844
570 0.673651
575 0.502593
580 0.425438
585 0.414521
590 0.289376
595 0.219143
600 0.12242
Ex : 433
200 0.0735223
205 0.081967
210 0.0582965
215 0.09201
220 0.0983052
225 0.0945118
230 0.111201
235 0.0623691
240 0.0843635
245 0.1114
250 0.0871316
255 0.0964664
260 0.0949067
265 0.0855144
270 0.0832801
275 0.0937117
280 0.0734805
285 0.0947565
290 0.095515
295 0.0828586
300 0.0807515
305 0.0756883
310 0.0722288
315 0.0827546
320 0.071577
325 0.114549
330 0.0990151
335 0.0703287
340 0.125693
345 0.137822
350 0.145327
355 0.110844
360 0.135412
365 0.210691
370 0.109148
375 0.165904
380 0.212451
385 0.170576
390 0.19631
395 0.276537
400 0.344662
405 0.444292
410 0.721161
415 1.36086
420 42.5721
425 729.777
430 1113.83
435 281.718
440 34.6024
445 5.62658
450 2.31564
455 2.1075
460 2.04017
465 1.82309
470 1.6647
475 1.5368
480 1.76969
485 2.67736
490 4.25848
495 3.78164
500 2.72933
505 2.50255
510 2.01941
515 1.79578
520 1.51632
525 1.51313
530 1.54064
535 1.4169
540 1.09548
545 1.23661
550 1.06316
555 0.903088
560 0.824651
565 0.667121
570 0.533508
575 0.552888
580 0.410543
585 0.353305
590 0.256376
595 0.27108
600 0.393656
Ex : 438
200 0.0710106
205 0.0673444
210 0.0847095
215 0.0613284
220 0.0637187
225 0.0517635
230 0.0933738
235 0.112785
240 0.0888593
245 0.0730492
250 0.0962469
255 0.064591
260 0.0703569
265 0.126332
270 0.0570024
275 0.0898666
280 0.111167
285 0.0716029
290 0.0596503
295 0.112683
300 0.0835269
305 0.092053
310 0.0727953
315 0.0791886
320 0.0821076
325 0.0678071
330 0.0960877
335 0.0943146
340 0.0929989
345 0.115617
350 0.104113
355 0.10663
360 0.128216
365 0.131808
370 0.12059
375 0.153002
380 0.192917
385 0.199419
390 0.199413
395 0.255046
400 0.301864
405 0.289198
410 0.501448
415 0.719574
420 1.27
425 40.5013
430 725.13
435 1185.23
440 302.766
445 36.8736
450 6.02606
455 2.14927
460 1.92673
465 2.05037
470 1.63563
475 1.39717
480 1.46366
485 1.52211
490 2.1893
495 3.69015
500 4.01762
505 2.72531
510 2.16937
515 2.02577
520 1.55546
525 1.57478
530 1.41979
535 1.20039
540 1.348
545 1.16019
550 1.06823
555 0.821002
560 0.791702
565 0.728193
570 0.618741
575 0.451038
580 0.367808
585 0.386075
590 0.291077
595 0.255944
600 0.293226
Ex : 443
200 0.100263
205 0.09319
210 0.106169
215 0.0863947
220 0.0858484
225 0.0656643
230 0.18326
235 0.0946274
240 0.10678
245 0.104665
250 0.0963278
255 0.0878837
260 0.0723985
265 0.0954985
270 0.1196
275 0.0961385
280 0.0834419
285 0.0836892
290 0.079278
295 0.073937
300 0.0944137
305 0.103298
310 0.102591
315 0.132819
320 0.086557
325 0.0856174
330 0.111595
335 0.120167
340 0.112962
345 0.114346
350 0.156031
355 0.144123
360 0.138412
365 0.159947
370 0.158546
375 0.144377
380 0.138586
385 0.179659
390 0.176088
395 0.221119
400 0.234004
405 0.30751
410 0.408222
415 0.54094
420 0.685877
425 1.25323
430 46.3433
435 790.16
440 1228.56
445 307.462
450 37.5834
455 6.2968
460 2.29581
465 1.94155
470 2.18682
475 1.81554
480 1.32476
485 1.32823
490 1.51876
495 1.72927
500 3.01983
505 3.9661
510 2.84734
515 2.2147
520 2.02627
525 1.68289
530 1.25627
535 1.23164
540 1.28832
545 1.11834
550 1.02845
555 0.765006
560 0.815363
565 0.706623
570 0.571252
575 0.487634
580 0.418249
585 0.311044
590 0.281492
595 0.237743
600 0.350119
Ex : 448
200 0.0604582
205 0.0653808
210 0.0813735
215 0.093616
220 0.0661119
225 0.0825447
230 0.0695544
235 0.0989975
240 0.0945887
245 0.0851773
250 0.0930269
255 0.108747
260 0.0937036
265 0.112519
270 0.131402
275 0.149913
280 0.102721
285 0.10245
290 0.0915545
295 0.088684
300 0.118588
305 0.0915829
310 0.0657739
315 0.0776735
320 0.0950392
325 0.13365
330 0.114878
335 0.105307
340 0.0858575
345 0.112578
350 0.105474
355 0.12321
360 0.155782
365 0.151046
370 0.189164
375 0.213124
380 0.165427
385 0.161201
390 0.159656
395 0.21186
400 0.225823
405 0.234312
410 0.248162
415 0.316083
420 0.447269
425 0.802235
430 1.3559
435 48.3308
440 853.374
445 1324.14
450 333.239
455 40.7489
460 6.62424
465 2.33734
470 1.89408
475 2.04572
480 1.80276
485 1.45579
490 1.45674
495 1.48426
500 1.48157
505 2.46515
510 3.74997
515 3.18852
520 2.02241
525 2.00611
530 1.58126
535 1.35504
540 1.14741
545 1.12484
550 0.974663
555 0.839139
560 0.773891
565 0.700857
570 0.593851
575 0.524863
580 0.372007
585 0.354044
590 0.253756
595 0.23841
600 0.606057
Ex : 453
200 0.107879
205 0.104634
210 0.0961731
215 0.109865
220 0.104697
225 0.106579
230 0.113684
235 0.105965
240 0.0953687
245 0.0896039
250 0.069531
255 0.0971535
260 0.0978136
265 0.0774787
270 0.0938606
275 0.0917423
280 0.0883662
285 0.129143
290 0.101271
295 0.0841672
300 0.0772903
305 0.0853041
310 0.0948742
315 0.131746
320 0.0957998
325 0.113975
330 0.120397
335 0.0900363
340 0.0909072
345 0.142481
350 0.127598
355 0.121501
360 0.124535
365 0.157913
370 0.141466
375 0.142843
380 0.121593
385 0.21243
390 0.163608
395 0.164996
400 0.136371
405 0.204483
410 0.249907
415 0.308956
420 0.459617
425 0.470081
430 0.79157
435 1.34425
440 51.8118
445 943.371
450 1393.01
455 328.618
460 39.9611
465 6.72979
470 2.31793
475 1.84123
480 2.10258
485 1.80147
490 1.40714
495 1.3216
500 1.32275
505 1.49858
510 1.78765
515 3.25076
520 3.14258
525 2.08768
530 1.80865
535 1.76599
540 1.37439
545 1.17377
550 0.942082
555 0.896068
560 0.786375
565 0.743444
570 0.687686
575 0.575564
580 0.528228
585 0.387431
590 0.324136
595 0.338344
600 0.0385023
Ex : 458
200 0.133411
205 0.0880928
210 0.072734
215 0.0674589
220 0.0741957
225 0.0866458
230 0.0606659
235 0.132858
240 0.0837088
245 0.0972804
250 0.102431
255 0.111618
260 0.108974
265 0.0869252
270 0.0864234
275 0.101046
280 0.078009
285 0.0814452
290 0.104783
295 0.099088
300 0.118327
305 0.0848466
310 0.067191
315 0.0994756
320 0.0699965
325 0.0797412
330 0.100712
335 0.117255
340 0.0971471
345 0.0873516
350 0.101392
355 0.111609
360 0.162101
365 0.0882992
370 0.0912502
375 0.148764
380 0.151074
385 0.119029
390 0.12287
395 0.194241
400 0.168381
405 0.246969
410 0.201516
415 0.262295
420 0.289693
425 0.380223
430 0.456582
435 0.74455
440 1.45703
445 57.6895
450 973.707
455 1463.81
460 354.338
465 43.3891
470 6.99179
475 2.34467
480 1.77477
485 1.77849
490 1.608
495 1.37862
500 1.29986
505 1.19225
510 1.33766
515 1.47645
520 2.62534
525 3.35707
530 2.45793
535 1.73857
540 1.63437
545 1.38321
550 1.06455
555 0.938547
560 0.852713
565 0.743725
570 0.723067
575 0.588516
580 0.395164
585 0.35236
590 0.406951
595 0.286595
600 0.0499899
Ex : 463
200 0.0685689
205 0.0662774
210 0.0730188
215 0.0813615
220 0.0853783
225 0.100282
230 0.143636
235 0.0870468
240 0.0971484
245 0.0714766
250 0.111606
255 0.0820295
260 0.0969783
265 0.0833155
270 0.0889489
275 0.0900598
280 0.111013
285 0.100937
290 0.0855527
295 0.0874191
300 0.107002
305 0.102131
310 0.144113
315 0.139509
320 0.103988
325 0.0935342
330 0.127251
335 0.122489
340 0.126555
345 0.197374
350 0.134664
355 0.105264
360 0.108987
365 0.110497
370 0.120912
375 0.140878
380 0.167777
385 0.159172
390 0.171712
395 0.197312
400 0.180859
405 0.162779
410 0.169073
415 0.177673
420 0.266426
425 0.298097
430 0.342978
435 0.564944
440 0.819119
445 1.74353
450 57.98
455 1022.87
460 1573.2
465 385.948
470 46.9603
475 7.19681
480 2.38172
485 1.76693
490 1.88674
495 1.74482
500 1.359
505 1.26615
510 1.19916
515 1.42533
520 1.46473
525 2.02329
530 3.20091
535 2.82194
540 1.76951
545 1.46259
550 1.43519
555 1.19576
560 0.832339
565 0.861965
570 0.797069
575 0.559137
580 0.549945
585 0.505716
590 0.36084
595 0.29572
600 0.0336518
Ex : 468
200 0.0690256
205 0.117013
210 0.092133
215 0.0925811
220 0.10696
225 0.10909
230 0.0669048
235 0.0846696
240 0.0927636
245 0.0607175
250 0.0783419
255 0.11248
260 0.100205
265 0.0695736
270 0.0826427
275 0.0419076
280 0.0838746
285 0.0560435
290 0.0772599
295 0.0910489
300 0.0736447
305 0.0937336
310 0.0797627
315 0.0873872
320 0.0646075
325 0.128618
330 0.141237
335 0.0840095
340 0.143309
345 0.124291
350 0.12017
355 0.147243
360 0.111927
365 0.107376
370 0.0846235
375 0.118574
380 0.127152
385 0.167989
390 0.149166
395 0.177872
400 0.154597
405 0.144624
410 0.175151
415 0.199026
420 0.222137
425 0.247075
430 0.241428
435 0.405604
440 0.614602
445 0.859006
450 1.36607
455 63.0107
460 1050.66
465 1681.54
470 405.421
475 48.8389
480 7.19783
485 2.11467
490 1.6388
495 1.88304
500 1.67151
505 1.50254
510 1.21228
515 1.31302
520 1.2489
525 1.40665
530 1.74157
535 2.88662
540 3.08886
545 1.92608
550 1.40192
555 1.43489
560 1.1801
565 0.847855
570 0.785351
575 0.664359
580 0.50415
585 0.398272
590 0.35955
595 0.306759
600 0.034908
Ex : 473
200 0.050865
205 0.0596632
210 0.114836
215 0.0885639
220 0.0615725
225 0.0819644
230 0.109149
235 0.0846382
240 0.0795933
245 0.11328
250 0.102122
255 0.0857899
260 0.104527
265 0.0917772
270 0.0706624
275 0.0944342
280 0.102357
285 0.0958234
290 0.0892069
295 0.0996192
300 0.109947
305 0.0817577
310 0.0973627
315 0.124369
320 0.0970803
325 0.0738487
330 0.102533
335 0.107514
340 0.16744
345 0.163758
350 0.128099
355 0.120645
360 0.138442
365 0.123301
370 0.086771
375 0.103518
380 0.116413
385 0.184205
390 0.157968
395 0.143873
400 0.129629
405 0.138664
410 0.201186
415 0.212589
420 0.166971
425 0.204777
430 0.251527
435 0.269468
440 0.432922
445 0.575905
450 0.968492
455 1.85837
460 75.574
465 1167.8
470 1667.79
475 387.883
480 46.9458
485 7.1891
490 2.40595
495 1.55076
500 1.65672
505 1.58887
510 1.3887
515 1.27991
520 1.29901
525 1.3386
530 1.22375
535 1.43677
540 2.39209
545 3.01437
550 2.01348
555 1.33051
560 1.25135
565 1.02037
570 0.855037
575 0.637465
580 0.527774
585 0.445132
590 0.336918
595 0.29361
600 0.127906
Ex : 478
200 0.154509
205 0.116585
210 0.131462
215 0.165415
220 0.108276
225 0.123983
230 0.131119
235 0.108155
240 0.113582
245 0.123906
250 0.120522
255 0.127593
260 0.11905
265 0.0921935
270 0.122637
275 0.094601
280 0.117621
285 0.101657
290 0.0785202
295 0.119136
300 0.152278
305 0.122516
310 0.113534
315 0.0971596
320 0.155932
325 0.119278
330 0.126623
335 0.124245
340 0.11751
345 0.1689
350 0.137539
355 0.168389
360 0.126513
365 0.133088
370 0.129779
375 0.151663
380 0.151611
385 0.183874
390 0.185623
395 0.130447
400 0.147883
405 0.188993
410 0.199818
415 0.208024
420 0.184204
425 0.20696
430 0.242402
435 0.348587
440 0.450402
445 0.457114
450 0.714118
455 1.06533
460 2.14603
465 82.7315
470 1217.39
475 1714.75
480 413.116
485 49.9319
490 7.7048
495 2.44706
500 1.53005
505 1.65966
510 1.59998
515 1.54584
520 1.34247
525 1.30006
530 1.40268
535 1.37466
540 1.41024
545 1.80715
550 2.57968
555 2.06366
560 1.42296
565 1.13687
570 1.06091
575 0.872609
580 0.519115
585 0.476794
590 0.413748
595 0.359241
600 0.409354
Ex : 483
200 0.086322
205 0.0950364
210 0.116826
215 0.0879873
220 0.0986108
225 0.0936351
230 0.113739
235 0.102413
240 0.0813125
245 0.125425
250 0.0921663
255 0.08013
260 0.0962076
265 0.0828881
270 0.111494
275 0.140568
280 0.0952531
285 0.177601
290 0.100467
295 0.137875
300 0.117424
305 0.105003
310 0.0970404
315 0.142201
320 0.0841877
325 0.118443
330 0.117886
335 0.12488
340 0.0855602
345 0.108556
350 0.162921
355 0.0778506
360 0.0976926
365 0.128909
370 0.187772
375 0.146239
380 0.13467
385 0.188795
390 0.173529
395 0.128033
400 0.170583
405 0.171507
410 0.178982
415 0.174573
420 0.21577
425 0.19675
430 0.266967
435 0.235984
440 0.308645
445 0.350725
450 0.460945
455 0.806172
460 1.12845
465 2.31942
470 65.3454
475 1203.63
480 1844.56
485 442.536
490 53.1594
495 8.03886
500 2.29342
505 1.56434
510 1.50473
515 1.64035
520 1.58087
525 1.50843
530 1.25314
535 1.33509
540 1.28592
545 1.14527
550 1.36359
555 2.22313
560 2.38131
565 1.48946
570 1.02778
575 0.849228
580 0.672487
585 0.464735
590 0.343962
595 0.404454
600 0.174816
Ex : 488
200 0.134011
205 0.0920663
210 0.119887
215 0.101952
220 0.112831
225 0.141606
230 0.114884
235 0.201723
240 0.168074
245 0.147125
250 0.0951369
255 0.0930823
260 0.0842534
265 0.14075
270 0.127761
275 0.0641622
280 0.130437
285 0.141386
290 0.163394
295 0.175566
300 0.134781
305 0.130376
310 0.0863582
315 0.100145
320 0.109845
325 0.107602
330 0.130937
335 0.133093
340 0.126926
345 0.164704
350 0.130763
355 0.139797
360 0.131308
365 0.0938805
370 0.161345
375 0.163365
380 0.162303
385 0.148863
390 0.229779
395 0.19288
400 0.183978
405 0.192807
410 0.196489
415 0.203457
420 0.273905
425 0.223996
430 0.198785
435 0.254697
440 0.310074
445 0.388775
450 0.462068
455 0.495968
460 0.896009
465 1.25585
470 2.35943
475 79.7774
480 1315.74
485 1844.12
490 436.164
495 52.4377
500 7.85027
505 2.40045
510 1.59252
515 1.63098
520 1.53124
525 1.60505
530 1.43516
535 1.21046
540 1.35498
545 1.25396
550 1.08847
555 1.31859
560 1.57757
565 2.13962
570 1.62833
575 0.90421
580 0.745934
585 0.578262
590 0.459572
595 0.421814
600 0.433601
Ex : 493
200 0.100959
205 0.0723865
210 0.140128
215 0.12636
220 0.134143
225 0.112846
230 0.102483
235 0.127261
240 0.157522
245 0.160916
250 0.0777862
255 0.105967
260 0.137591
265 0.124049
270 0.104501
275 0.108687
280 0.122549
285 0.162174
290 0.102502
295 0.110167
300 0.125429
305 0.111837
310 0.104818
315 0.104993
320 0.0990022
325 0.135199
330 0.102986
335 0.125636
340 0.0931063
345 0.120114
350 0.119651
355 0.145765
360 0.215643
365 0.121215
370 0.19286
375 0.133439
380 0.161217
385 0.121049
390 0.170401
395 0.167991
400 0.17305
405 0.185931
410 0.169906
415 0.221135
420 0.261068
425 0.213689
430 0.250613
435 0.244095
440 0.243477
445 0.324528
450 0.335501
455 0.419352
460 0.619304
465 0.946041
470 1.27512
475 2.17355
480 75.0663
485 1315.36
490 1969.71
495 458.559
500 54.9963
505 8.16433
510 2.57626
515 1.54028
520 1.52994
525 1.6417
530 1.72074
535 1.50546
540 1.31785
545 1.23433
550 1.16586
555 1.09961
560 1.06897
565 1.20621
570 1.91554
575 1.54137
580 0.81323
585 0.630894
590 0.532725
595 0.461858
600 0.136162
Ex : 498
200 0.13589
205 0.127853
210 0.125648
215 0.146551
220 0.107233
225 0.113417
230 0.108237
235 0.140319
240 0.117307
245 0.132419
250 0.127868
255 0.135026
260 0.141024
265 0.135141
270 0.103795
275 0.141181
280 0.2025
285 0.0913702
290 0.107136
295 0.103236
300 0.109063
305 0.131956
310 0.139896
315 0.12813
320 0.16661
325 0.133343
330 0.135103
335 0.142835
340 0.12346
345 0.121463
350 0.13023
355 0.135759
360 0.12699
365 0.163573
370 0.179443
375 0.142218
380 0.168825
385 0.182787
390 0.201442
395 0.29171
400 0.171257
405 0.243094
410 0.157484
415 0.191407
420 0.193188
425 0.259438
430 0.244404
435 0.190935
440 0.275132
445 0.316469
450 0.355235
455 0.344164
460 0.598559
465 0.725416
470 1.01008
475 1.41885
480 2.32699
485 93.7196
490 1412.61
495 1944.75
500 453.782
505 54.5615
510 8.19112
515 2.55952
520 1.74127
525 1.54532
530 1.70197
535 1.57495
540 1.40192
545 1.2563
550 1.14774
555 1.03941
560 1.08527
565 1.02062
570 0.945578
575 1.40132
580 1.29873
585 0.816854
590 0.687715
595 0.458023
600 0.0557985
Ex : 503
200 0.277183
205 0.132959
210 0.0932255
215 0.171071
220 0.136708
225 0.0992408
230 0.0918142
235 0.127967
240 0.121602
245 0.150235
250 0.171655
255 0.122048
260 0.133524
265 0.11974
270 0.153508
275 0.170672
280 0.144605
285 0.129804
290 0.148417
295 0.11268
300 0.153076
305 0.141011
310 0.165233
315 0.164035
320 0.100609
325 0.142543
330 0.136219
335 0.145627
340 0.124155
345 0.144198
350 0.172737
355 0.193992
360 0.19567
365 0.183394
370 0.143592
375 0.161828
380 0.191531
385 0.159877
390 0.173597
395 0.171293
400 0.245343
405 0.187588
410 0.171109
415 0.176747
420 0.229554
425 0.230465
430 0.199029
435 0.246007
440 0.300219
445 0.269012
450 0.309964
455 0.449228
460 0.416364
465 0.609819
470 0.75748
475 0.891966
480 1.31148
485 2.32088
490 83.8005
495 1395.94
500 1986.01
505 461.81
510 55.8362
515 8.25481
520 2.75293
525 1.64506
530 1.6358
535 1.62927
540 1.58137
545 1.50155
550 1.17206
555 1.11528
560 0.907609
565 0.945143
570 0.718021
575 0.722742
580 0.917709
585 1.18763
590 0.833284
595 0.570485
600 0.535229
Ex : 508
200 0.118424
205 0.112138
210 0.106463
215 0.0994969
220 0.0849054
225 0.116978
230 0.141226
235 0.173987
240 0.133124
245 0.164812
250 0.0988693
255 0.152757
260 0.168625
265 0.138704
270 0.152354
275 0.113986
280 0.120099
285 0.164702
290 0.117779
295 0.156058
300 0.163411
305 0.157745
310 0.170382
315 0.182094
320 0.117305
325 0.185588
330 0.132676
335 0.126443
340 0.141721
345 0.142382
350 0.192279
355 0.153546
360 0.127934
365 0.149901
370 0.145498
375 0.138892
380 0.164995
385 0.156119
390 0.132588
395 0.186565
400 0.200087
405 0.152888
410 0.275258
415 0.206256
420 0.26045
425 0.247289
430 0.221083
435 0.219243
440 0.226006
445 0.269562
450 0.234752
455 0.305985
460 0.370809
465 0.46157
470 0.56065
475 0.650346
480 0.773188
485 1.45141
490 2.29517
495 90.8848
500 1415.62
505 1998.67
510 485.74
515 58.4103
520 8.85286
525 2.88957
530 1.85981
535 1.55547
540 1.6117
545 1.4957
550 1.27709
555 1.03751
560 1.01076
565 0.971733
570 0.772385
575 0.653208
580 0.677344
585 0.557711
590 0.848609
595 0.695781
600 0.423138
Ex : 513
200 0.0908687
205 0.188867
210 0.120468
215 0.11805
220 0.121352
225 0.150727
230 0.20035
235 0.158716
240 0.188251
245 0.118292
250 0.147974
255 0.139101
260 0.156181
265 0.144245
270 0.140001
275 0.146432
280 0.132623
285 0.109089
290 0.1672
295 0.156781
300 0.171542
305 0.110605
310 0.10407
315 0.123547
320 0.124114
325 0.153473
330 0.130892
335 0.133155
340 0.164413
345 0.126137
350 0.14295
355 0.130923
360 0.124629
365 0.12902
370 0.123282
375 0.14667
380 0.146251
385 0.225953
390 0.208196
395 0.143887
400 0.159685
405 0.13491
410 0.189821
415 0.146987
420 0.191034
425 0.181382
430 0.167476
435 0.292331
440 0.229615
445 0.259774
450 0.245759
455 0.352549
460 0.351968
465 0.435046
470 0.472829
475 0.513866
480 0.717301
485 0.987772
490 1.30925
495 2.15306
500 84.3694
505 1405.46
510 2029.67
515 497.145
520 59.9325
525 8.92203
530 2.79999
535 1.67911
540 1.46545
545 1.32968
550 1.38887
555 1.35369
560 1.01728
565 0.919752
570 0.756734
575 0.624113
580 0.596899
585 0.579916
590 0.54458
595 0.757984
600 0.931048
Ex : 518
200 0.304552
205 0.151263
210 0.109397
215 0.13711
220 0.141329
225 0.130543
230 0.188239
235 0.169546
240 0.162315
245 0.126339
250 0.123573
255 0.0906958
260 0.218785
265 0.0961878
270 0.173051
275 0.121151
280 0.152977
285 0.146222
290 0.130315
295 0.0875873
300 0.109297
305 0.076487
310 0.115504
315 0.118654
320 0.149779
325 0.175971
330 0.137807
335 0.145497
340 0.119384
345 0.126399
350 0.134105
355 0.212172
360 0.156784
365 0.125226
370 0.114741
375 0.142711
380 0.169918
385 0.161467
390 0.169287
395 0.163819
400 0.183633
405 0.107185
410 0.285805
415 0.256425
420 0.172336
425 0.181923
430 0.18734
435 0.213675
440 0.172321
445 0.254748
450 0.275508
455 0.18926
460 0.299065
465 0.425438
470 0.353712
475 0.44661
480 0.54456
485 0.673646
490 1.03619
495 1.41901
500 2.21529
505 86.1283
510 1389.25
515 2076.14
520 515.348
525 62.0483
530 9.3332
535 2.68931
540 1.59921
545 1.45821
550 1.32603
555 1.28253
560 1.12208
565 1.01236
570 0.790766
575 0.672081
580 0.44183
585 0.447374
590 0.367075
595 0.486254
600 0.380703
Ex : 523
200 0.164696
205 0.109179
210 0.162494
215 0.14335
220 0.145762
225 0.140479
230 0.158107
235 0.170768
240 0.143365
245 0.115911
250 0.122682
255 0.225613
260 0.187552
265 0.106784
270 0.154463
275 0.157311
280 0.105705
285 0.116177
290 0.158865
295 0.060606
300 0.109324
305 0.144209
310 0.16025
315 0.165919
320 0.116022
325 0.117419
330 0.178274
335 0.208336
340 0.0978111
345 0.174461
350 0.16668
355 0.156976
360 0.198803
365 0.15222
370 0.157984
375 0.132667
380 0.173992
385 0.171585
390 0.205759
395 0.200572
400 0.227357
405 0.208727
410 0.224565
415 0.231776
420 0.196194
425 0.240407
430 0.242169
435 0.18016
440 0.197301
445 0.247378
450 0.234174
455 0.227466
460 0.306196
465 0.340085
470 0.391127
475 0.325633
480 0.398082
485 0.56643
490 0.697625
495 0.770737
500 1.20755
505 2.20714
510 78.7776
515 1351.16
520 2073.75
525 530.117
530 63.5681
535 9.15831
540 2.57244
545 1.67276
550 1.41528
555 1.28409
560 1.05153
565 1.02713
570 0.909985
575 0.695542
580 0.615016
585 0.551206
590 0.355709
595 0.315558
600 0.204288
Ex : 528
200 0.132809
205 0.159464
210 0.12015
215 0.151493
220 0.178387
225 0.150633
230 0.184881
235 0.145748
240 0.108626
245 0.169119
250 0.166603
255 0.145018
260 0.130229
265 0.112182
270 0.141096
275 0.114872
280 0.1514
285 0.110792
290 0.0922081
295 0.134373
300 0.103631
305 0.173187
310 0.183073
315 0.102869
320 0.133915
325 0.213024
330 0.129794
335 0.147939
340 0.151633
345 0.168359
350 0.153669
355 0.182024
360 0.191266
365 0.125853
370 0.146238
375 0.160546
380 0.14328
385 0.160535
390 0.261705
395 0.203068
400 0.159174
405 0.192203
410 0.189917
415 0.143048
420 0.119935
425 0.164342
430 0.171929
435 0.202022
440 0.218136
445 0.188009
450 0.213082
455 0.223579
460 0.28557
465 0.362683
470 0.364733
475 0.348662
480 0.410937
485 0.401894
490 0.47365
495 0.702415
500 0.8572
505 1.32986
510 2.15578
515 74.338
520 1333.04
525 2051.91
530 521.748
535 62.6089
540 9.1005
545 2.7674
550 1.45788
555 0.975593
560 0.84577
565 0.95179
570 0.785132
575 0.599786
580 0.624596
585 0.490641
590 0.400582
595 0.366422
600 0.155899
Ex : 533
200 0.22405
205 0.119295
210 0.17908
215 0.115083
220 0.14373
225 0.1018
230 0.221413
235 0.162676
240 0.138254
245 0.183679
250 0.140915
255 0.140881
260 0.115345
265 0.114757
270 0.133966
275 0.182578
280 0.139982
285 0.194394
290 0.162153
295 0.143716
300 0.122681
305 0.207233
310 0.17443
315 0.154566
320 0.19837
325 0.119186
330 0.169866
335 0.15964
340 0.157526
345 0.139479
350 0.138388
355 0.143045
360 0.148403
365 0.123576
370 0.205851
375 0.106127
380 0.188939
385 0.245161
390 0.198971
395 0.218821
400 0.201337
405 0.174195
410 0.196975
415 0.154218
420 0.17157
425 0.17444
430 0.203164
435 0.179003
440 0.181226
445 0.273729
450 0.267077
455 0.26129
460 0.201955
465 0.254887
470 0.357609
475 0.326761
480 0.338502
485 0.376879
490 0.484484
495 0.527173
500 0.678638
505 0.800906
510 1.39666
515 2.18711
520 75.8441
525 1290.41
530 2025.21
535 526.677
540 63.3841
545 8.87945
550 2.27282
555 1.34828
560 1.01405
565 0.786977
570 0.944572
575 0.857157
580 0.688826
585 0.558134
590 0.40739
595 0.422517
600 0.770173
Ex : 538
200 0.118538
205 0.110961
210 0.156401
215 0.15054
220 0.14555
225 0.162849
230 0.139541
235 0.131726
240 0.127056
245 0.0982901
250 0.135425
255 0.22399
260 0.252364
265 0.201894
270 0.177346
275 0.153256
280 0.0842063
285 0.133731
290 0.120032
295 0.141737
300 0.133655
305 0.169717
310 0.126795
315 0.0965484
320 0.134984
325 0.203134
330 0.169595
335 0.135055
340 0.154267
345 0.13088
350 0.166018
355 0.160579
360 0.124746
365 0.151828
370 0.160184
375 0.158046
380 0.219793
385 0.135715
390 0.14751
395 0.181363
400 0.181226
405 0.158956
410 0.260344
415 0.262214
420 0.192266
425 0.163824
430 0.245488
435 0.196119
440 0.202442
445 0.202855
450 0.276531
455 0.238096
460 0.355331
465 0.234604
470 0.240038
475 0.257208
480 0.243563
485 0.444235
490 0.385185
495 0.366255
500 0.449782
505 0.536999
510 0.771677
515 1.14221
520 2.13081
525 64.6236
530 1240.49
535 2028.02
540 544.357
545 65.3775
550 9.18676
555 2.34701
560 1.28321
565 0.972322
570 0.704503
575 0.717315
580 0.661306
585 0.618578
590 0.542299
595 0.417338
600 0.433419
Ex : 543
200 0.155272
205 0.180238
210 0.155434
215 0.0969456
220 0.15107
225 0.16893
230 0.143576
235 0.119189
240 0.0896883
245 0.175664
250 0.155625
255 0.117026
260 0.121376
265 0.143343
270 0.286016
275 0.143058
280 0.107931
285 0.127466
290 0.125778
295 0.122825
300 0.158707
305 0.147018
310 0.147576
315 0.144854
320 0.142481
325 0.152598
330 0.177307
335 0.136551
340 0.135192
345 0.190018
350 0.198628
355 0.203888
360 0.180242
365 0.154089
370 0.149685
375 0.135594
380 0.194296
385 0.226055
390 0.202096
395 0.251578
400 0.235413
405 0.127245
410 0.199696
415 0.186331
420 0.257501
425 0.296307
430 0.213219
435 0.244719
440 0.334968
445 0.270427
450 0.222229
455 0.350336
460 0.28955
465 0.203591
470 0.263709
475 0.247862
480 0.304511
485 0.313304
490 0.374836
495 0.415873
500 0.35303
505 0.55968
510 0.599918
515 0.933841
520 1.22463
525 2.20167
530 58.9184
535 1210.88
540 2056.73
545 565.645
550 68.1771
555 9.41382
560 2.28396
565 1.21648
570 0.813087
575 0.694147
580 0.546132
585 0.543075
590 0.398712
595 0.42085
600 1.83499
Ex : 548
200 0.174742
205 0.206995
210 0.202715
215 0.172834
220 0.153992
225 0.173325
230 0.160202
235 0.159259
240 0.170875
245 0.125736
250 0.168342
255 0.185184
260 0.167319
265 0.199187
270 0.227036
275 0.123568
280 0.173794
285 0.143349
290 0.185908
295 0.186828
300 0.17355
305 0.248766
310 0.112038
315 0.139817
320 0.183365
325 0.149167
330 0.162627
335 0.172313
340 0.196269
345 0.214176
350 0.11567
355 0.243196
360 0.196256
365 0.144898
370 0.286918
375 0.158734
380 0.176052
385 0.183921
390 0.172455
395 0.138389
400 0.166309
405 0.199591
410 0.201136
415 0.268982
420 0.309648
425 0.241577
430 0.179593
435 0.233591
440 0.185045
445 0.193833
450 0.351308
455 0.233676
460 0.192921
465 0.328768
470 0.258963
475 0.293465
480 0.316961
485 0.280331
490 0.282496
495 0.280429
500 0.37407
505 0.488684
510 0.470524
515 0.714239
520 0.871542
525 1.22437
530 1.87082
535 66.4664
540 1213.24
545 1995.48
550 551.307
555 65.5801
560 8.85962
565 2.09801
570 1.20919
575 0.701252
580 0.543549
585 0.41095
590 0.360513
595 0.419723
600 0.0477629
Ex : 553
200 0.152488
205 0.258705
210 0.223425
215 0.142299
220 0.161154
225 0.224294
230 0.156353
235 0.122818
240 0.168894
245 0.289399
250 0.117363
255 0.164347
260 0.13853
265 0.150946
270 0.202858
275 0.171263
280 0.109915
285 0.145774
290 0.219937
295 0.179784
300 0.172149
305 0.167291
310 0.171174
315 0.179143
320 0.157032
325 0.133364
330 0.0917696
335 0.158268
340 0.191116
345 0.258794
350 0.143795
355 0.203397
360 0.159408
365 0.13359
370 0.195557
375 0.17966
380 0.275726
385 0.205426
390 0.202889
395 0.241739
400 0.170549
405 0.194205
410 0.182479
415 0.146938
420 0.263518
425 0.142099
430 0.166893
435 0.203242
440 0.191935
445 0.222508
450 0.20614
455 0.236944
460 0.238393
465 0.260412
470 0.222509
475 0.243551
480 0.219005
485 0.23811
490 0.352915
495 0.261059
500 0.359246
505 0.416406
510 0.375719
515 0.429494
520 0.611869
525 0.839926
530 1.22666
535 2.0969
540 56.6469
545 1152.75
550 1998.54
555 568.54
560 67.9252
565 9.20166
570 2.16246
575 1.07205
580 0.527825
585 0.65012
590 0.539457
595 0.460061
600 0.125767
Ex : 558
200 0.208028
205 0.168004
210 0.180945
215 0.194892
220 0.202656
225 0.207928
230 0.248937
235 0.235441
240 0.105278
245 0.197321
250 0.152177
255 0.153873
260 0.188397
265 0.176287
270 0.195214
275 0.149755
280 0.160705
285 0.0996294
290 0.15799
295 0.243324
300 0.0990373
305 0.199928
310 0.151914
315 0.139615
320 0.126502
325 0.119975
330 0.188532
335 0.174084
340 0.205962
345 0.163006
350 0.208432
355 0.10727
360 0.158536
365 0.115029
370 0.167051
375 0.179519
380 0.229691
385 0.209003
390 0.133168
395 0.198366
400 0.257443
405 0.216372
410 0.238786
415 0.306805
420 0.24709
425 0.251921
430 0.23177
435 0.16085
440 0.19946
445 0.187757
450 0.278199
455 0.211953
460 0.297872
465 0.300568
470 0.323686
475 0.295924
480 0.244158
485 0.225545
490 0.324835
495 0.303122
500 0.263552
505 0.396333
510 0.419713
515 0.499095
520 0.730891
525 0.683421
530 0.826086
535 1.03436
540 1.81287
545 52.3879
550 1094.04
555 1965.84
560 567.136
565 67.8017
570 9.06321
575 1.80054
580 0.890955
585 0.704613
590 0.486783
595 0.389281
600 0.533054
Ex : 563
200 0.197191
205 0.144514
210 0.130961
215 0.238069
220 0.167145
225 0.26367
230 0.171509
235 0.148786
240 0.168795
245 0.228633
250 0.180682
255 0.144632
260 0.169746
265 0.173784
270 0.241426
275 0.160795
280 0.217385
285 0.250773
290 0.236307
295 0.173134
300 0.180578
305 0.158523
310 0.119674
315 0.135844
320 0.154925
325 0.173221
330 0.218593
335 0.181668
340 0.141778
345 0.22585
350 0.209758
355 0.180627
360 0.167724
365 0.118655
370 0.146321
375 0.137207
380 0.148172
385 0.191793
390 0.155862
395 0.274722
400 0.242295
405 0.269023
410 0.262468
415 0.252642
420 0.170898
425 0.172691
430 0.258024
435 0.232736
440 0.25899
445 0.24117
450 0.326071
455 0.340389
460 0.333428
465 0.270973
470 0.341232
475 0.29717
480 0.270473
485 0.254681
490 0.261546
495 0.279223
500 0.266198
505 0.317964
510 0.322635
515 0.452958
520 0.392118
525 0.528787
530 0.582748
535 0.700245
540 0.923147
545 1.83509
550 51.9798
555 1077.34
560 1906.67
565 556.87
570 66.3011
575 8.62619
580 1.59244
585 0.713705
590 0.482279
595 0.482909
600 0.209076
Ex : 568
200 0.148035
205 0.278201
210 0.236609
215 0.15189
220 0.182972
225 0.105823
230 0.114482
235 0.193796
240 0.108342
245 0.328665
250 0.197128
255 0.286691
260 0.115582
265 0.179384
270 0.117701
275 0.172747
280 0.148113
285 0.193959
290 0.136319
295 0.120685
300 0.117897
305 0.128699
310 0.222667
315 0.162045
320 0.150964
325 0.197684
330 0.115556
335 0.211159
340 0.20127
345 0.215414
350 0.263453
355 0.204908
360 0.191278
365 0.11823
370 0.152781
375 0.146965
380 0.134603
385 0.184455
390 0.16166
395 0.266162
400 0.170015
405 0.117345
410 0.230652
415 0.208468
420 0.176238
425 0.262526
430 0.232597
435 0.206175
440 0.187933
445 0.28165
450 0.253978
455 0.258897
460 0.324136
465 0.311816
470 0.333287
475 0.430811
480 0.26335
485 0.321549
490 0.266808
495 0.289825
500 0.308498
505 0.288366
510 0.372267
515 0.313825
520 0.355568
525 0.367638
530 0.493583
535 0.585784
540 0.653823
545 1.07242
550 1.72866
555 39.6925
560 983.413
565 1845.53
570 556.699
575 66.7752
580 8.72275
585 1.62143
590 0.737092
595 0.459051
600 0.489659
Ex : 573
200 0.181376
205 0.177795
210 0.164844
215 0.123921
220 0.171902
225 0.120024
230 0.15557
235 0.207164
240 0.172892
245 0.190417
250 0.135043
255 0.187067
260 0.315382
265 0.22397
270 0.240371
275 0.166087
280 0.117991
285 0.133339
290 0.185732
295 0.115305
300 0.12304
305 0.206765
310 0.179139
315 0.172138
320 0.203512
325 0.303079
330 0.199692
335 0.161726
340 0.133455
345 0.183466
350 0.162301
355 0.25646
360 0.189418
365 0.172896
370 0.198178
375 0.192997
380 0.181724
385 0.323327
390 0.192329
395 0.258955
400 0.175069
405 0.151212
410 0.184509
415 0.253121
420 0.165315
425 0.200562
430 0.243771
435 0.202415
440 0.181431
445 0.182589
450 0.221552
455 0.274964
460 0.276971
465 0.210164
470 0.28603
475 0.245835
480 0.297549
485 0.222642
490 0.199497
495 0.230367
500 0.271476
505 0.226646
510 0.298556
515 0.244168
520 0.329406
525 0.338303
530 0.317214
535 0.439927
540 0.537593
545 0.688068
550 0.968693
555 1.63291
560 35.2199
565 871.203
570 1743.62
575 547.194
580 65.6944
585 8.32547
590 1.50989
595 0.547997
600 0.517122
Ex : 578
200 0.113402
205 0.216723
210 0.434928
215 0.22424
220 0.124595
225 0.13335
230 0.200205
235 0.250365
240 0.177397
245 0.17778
250 0.121933
255 0.305552
260 0.210623
265 0.167982
270 0.153525
275 0.147752
280 0.148721
285 0.159295
290 0.22525
295 0.277428
300 0.158398
305 0.135537
310 0.201955
315 0.155303
320 0.200373
325 0.171251
330 0.169942
335 0.188436
340 0.143329
345 0.153622
350 0.194059
355 0.239178
360 0.232349
365 0.180557
370 0.203755
375 0.210433
380 0.17097
385 0.151684
390 0.160448
395 0.167088
400 0.230766
405 0.181038
410 0.238273
415 0.229907
420 0.165413
425 0.196787
430 0.244343
435 0.197269
440 0.258866
445 0.248936
450 0.311861
455 0.246661
460 0.241761
465 0.188362
470 0.200758
475 0.282642
480 0.285406
485 0.236763
490 0.250882
495 0.289648
500 0.300671
505 0.316478
510 0.312054
515 0.270972
520 0.282568
525 0.302065
530 0.251156
535 0.356273
540 0.512536
545 0.487466
550 0.731067
555 0.916662
560 1.24512
565 30.5397
570 786.326
575 1547.11
580 469.833
585 56.0577
590 7.20751
595 1.34575
600 0.412371
Ex : 583
200 0.178689
205 0.176495
210 0.163886
215 0.151073
220 0.246838
225 0.10267
230 0.205156
235 0.145535
240 0.166405
245 0.146473
250 0.132176
255 0.14496
260 0.169161
265 0.0885268
270 0.117266
275 0.189693
280 0.126684
285 0.107896
290 0.166923
295 0.112867
300 0.217822
305 0.147814
310 0.130694
315 0.168761
320 0.197011
325 0.171211
330 0.223716
335 0.195768
340 0.179907
345 0.200924
350 0.154947
355 0.229826
360 0.20052
365 0.164629
370 0.109352
375 0.182393
380 0.247964
385 0.182217
390 0.221019
395 0.229056
400 0.153747
405 0.193727
410 0.26767
415 0.200402
420 0.184783
425 0.211542
430 0.175896
435 0.273937
440 0.35921
445 0.260982
450 0.251733
455 0.193352
460 0.320777
465 0.213536
470 0.306954
475 0.225297
480 0.299286
485 0.241552
490 0.298738
495 0.257841
500 0.350529
505 0.197853
510 0.252446
515 0.38498
520 0.265807
525 0.270474
530 0.319613
535 0.27215
540 0.291618
545 0.367459
550 0.731101
555 0.648316
560 0.839012
565 1.34477
570 25.6443
575 692.361
580 1339.77
585 393.405
590 46.8002
595 5.97099
600 0.679476
Ex : 588
200 0.193063
205 0.184976
210 0.181257
215 0.138583
220 0.216992
225 0.131577
230 0.196382
235 0.134713
240 0.0808607
245 0.119231
250 0.265832
255 0.170462
260 0.216023
265 0.158221
270 0.246619
275 0.257571
280 0.16093
285 0.104189
290 0.190081
295 0.19832
300 0.257827
305 0.205514
310 0.156156
315 0.0941378
320 0.0967727
325 0.221561
330 0.25061
335 0.188881
340 0.154654
345 0.188537
350 0.263523
355 0.191758
360 0.177226
365 0.161562
370 0.146302
375 0.217238
380 0.173336
385 0.174622
390 0.208445
395 0.232311
400 0.325005
405 0.136724
410 0.235309
415 0.179867
420 0.204281
425 0.209428
430 0.193983
435 0.194447
440 0.202841
445 0.341569
450 0.188833
455 0.146819
460 0.229555
465 0.20041
470 0.278854
475 0.227442
480 0.235921
485 0.173784
490 0.243511
495 0.160741
500 0.225108
505 0.325159
510 0.309254
515 0.285862
520 0.207499
525 0.280214
530 0.343933
535 0.246864
540 0.367509
545 0.36002
550 0.339986
555 0.483398
560 0.697737
565 0.876783
570 1.12351
575 23.1383
580 585.526
585 1154.47
590 348.333
595 41.4294
600 5.80473
Ex : 593
200 0.182225
205 0.273618
210 0.158078
215 0.176796
220 0.18856
225 0.201035
230 0.150676
235 0.114456
240 0.249474
245 0.126626
250 0.145203
255 0.254786
260 0.158491
265 0.257012
270 0.253927
275 0.146197
280 0.128941
285 0.252083
290 0.245781
295 0.153496
300 0.161362
305 0.115219
310 0.233861
315 0.29854
320 0.266913
325 0.18751
330 0.169737
335 0.161923
340 0.173064
345 0.147533
350 0.233605
355 0.321241
360 0.308755
365 0.271381
370 0.238757
375 0.229447
380 0.196706
385 0.201929
390 0.259183
395 0.222293
400 0.279436
405 0.159954
410 0.180718
415 0.234493
420 0.185677
425 0.122038
430 0.288265
435 0.309371
440 0.288795
445 0.18882
450 0.18766
455 0.201789
460 0.22833
465 0.141861
470 0.305277
475 0.324515
480 0.287732
485 0.359339
490 0.242374
495 0.225501
500 0.190249
505 0.202889
510 0.344878
515 0.266247
520 0.286273
525 0.264781
530 0.17979
535 0.218248
540 0.336049
545 0.299558
550 0.375343
555 0.311482
560 0.439575
565 0.489927
570 0.729881
575 1.35652
580 20.2889
585 534.888
590 1009.27
595 303.75
600 44.05
Ex : 598
200 0.18354
205 0.128406
210 0.0857708
215 0.239448
220 0.230888
225 0.169129
230 0.237306
235 0.163639
240 0.16884
245 0.128308
250 0.15882
255 0.185625
260 0.131332
265 0.227694
270 0.181373
275 0.223756
280 0.136196
285 0.181242
290 0.168465
295 0.170306
300 0.196688
305 0.190913
310 0.241385
315 0.199265
320 0.192235
325 0.146728
330 0.154412
335 0.200564
340 0.206978
345 0.179069
350 0.115835
355 0.215943
360 0.25721
365 0.203088
370 0.199041
375 0.125065
380 0.129234
385 0.188196
390 0.201786
395 0.19045
400 0.226631
405 0.204778
410 0.12149
415 0.163374
420 0.195563
425 0.269111
430 0.251582
435 0.307064
440 0.233223
445 0.192452
450 0.229106
455 0.211988
460 0.305413
465 0.287741
470 0.153088
475 0.140035
480 0.255601
485 0.288459
490 0.19178
495 0.182739
500 0.197835
505 0.226618
510 0.228517
515 0.366051
520 0.224777
525 0.18786
530 0.183648
535 0.283671
540 0.394826
545 0.264498
550 0.294246
555 0.315336
560 0.29814
565 0.393222
570 0.477403
575 0.502464
580 0.908911
585 19.4757
590 466.255
595 885.413
600 555.586
Ex : 603
200 0.146711
205 0.204419
210 0.131709
215 0.178425
220 0.20691
225 0.253606
230 0.157437
235 0.197535
240 0.178672
245 0.230877
250 0.19846
255 0.176539
260 0.184247
265 0.121636
270 0.146019
275 0.170587
280 0.178278
285 0.192793
290 0.20145
295 0.196837
300 0.102645
305 0.169073
310 0.173749
315 0.167706
320 0.123262
325 0.206165
330 0.152633
335 0.228877
340 0.24537
345 0.174313
350 0.215417
355 0.18502
360 0.237923
365 0.211142
370 0.260371
375 0.19219
380 0.266335
385 0.190577
390 0.147816
395 0.157234
400 0.174661
405 0.170745
410 0.149852
415 0.169292
420 0.194665
425 0.194416
430 0.141478
435 0.112228
440 0.188266
445 0.164675
450 0.225684
455 0.244606
460 0.1786
465 0.236688
470 0.224101
475 0.217874
480 0.334903
485 0.252022
490 0.264383
495 0.176255
500 0.163291
505 0.323614
510 0.267654
515 0.216137
520 0.331446
525 0.275729
530 0.219258
535 0.279402
540 0.310212
545 0.326119
550 0.302414
555 0.270397
560 0.426883
565 0.370376
570 0.377199
575 0.499862
580 0.72275
585 1.01835
590 17.3506
595 409.518
600 877.905
