File format V 1.0
jeu. 5. janv. 19:56:31 2017
Operator : 
Comments : 

=============================================
SpectroFluorometer parameters
Mode : 3D measurement
Data : Fluorescence
Phospho. : Ordinary
Spectrum : Fluorescence

Scan speed : 2400 nm/mn
Response : 100 ms
PM Voltage : 700 V
Shutter : On

Lambda Ex. Start : 203
Lambda Ex. End : 603
Lambda Ex. Step : 5
Ex. Slit : 5 nm

Lambda Em. Start : 200
Lambda Em. End : 600
Lambda Em. Step : 5
Em. Slit : 5 nm

Repetition : 1
Decal lambda em : 10
=============================================
DATA
Ex : 203
200 6.83523
205 3.1689
210 4.60016
215 3.11054
220 4.46659
225 2.87516
230 6.08197
235 5.86343
240 6.65309
245 8.57772
250 6.79324
255 5.97282
260 6.16307
265 3.33079
270 3.84726
275 4.48144
280 6.65464
285 5.77909
290 6.33255
295 8.99372
300 6.16119
305 7.04002
310 7.41494
315 9.73991
320 6.59837
325 8.2836
330 5.48444
335 8.2582
340 5.49575
345 6.50657
350 5.18795
355 5.50994
360 6.1887
365 6.29908
370 5.14274
375 6.06614
380 7.92043
385 4.52192
390 3.46859
395 4.96384
400 10.4469
405 2.8802
410 9.17358
415 5.18491
420 8.71161
425 4.83556
430 4.4821
435 7.81511
440 6.02262
445 4.48173
450 5.80625
455 5.05249
460 8.50414
465 4.10878
470 7.85778
475 5.08093
480 3.89605
485 5.65898
490 6.47995
495 2.83601
500 4.46201
505 6.6011
510 4.0899
515 9.39835
520 7.92008
525 6.2185
530 5.13866
535 4.71537
540 3.80242
545 5.64701
550 3.48811
555 5.43593
560 5.08766
565 6.49616
570 5.63638
575 6.30268
580 7.61581
585 8.39938
590 6.24517
595 3.7847
600 0.430684
Ex : 208
200 8.31292
205 3.12658
210 5.44859
215 5.7157
220 6.87079
225 5.40691
230 6.04476
235 5.1076
240 7.60103
245 4.21832
250 4.88832
255 6.22103
260 6.8357
265 4.45744
270 10.511
275 2.95803
280 3.69882
285 4.29414
290 8.32226
295 2.9199
300 3.75211
305 7.95424
310 7.13611
315 4.05224
320 5.05966
325 6.12678
330 5.12822
335 6.7381
340 4.59584
345 5.73627
350 8.80138
355 5.68502
360 3.66226
365 6.97582
370 4.94499
375 5.0662
380 5.0524
385 7.49577
390 9.53667
395 6.37477
400 5.05362
405 7.66471
410 5.44667
415 5.4561
420 4.43634
425 2.81798
430 5.32826
435 6.64914
440 4.62133
445 7.70991
450 10.7047
455 7.51234
460 8.95526
465 5.38603
470 7.34169
475 4.25873
480 1.91995
485 3.69084
490 5.64912
495 4.6253
500 4.85947
505 5.53788
510 8.03105
515 6.10747
520 7.78464
525 5.4879
530 6.94329
535 4.18918
540 6.36705
545 6.25804
550 3.35521
555 5.4398
560 8.65025
565 5.76878
570 4.71319
575 5.82587
580 5.27347
585 11.8611
590 7.64485
595 7.4697
600 0.850023
Ex : 213
200 3.86782
205 7.38649
210 2.89225
215 4.31964
220 6.99539
225 8.67621
230 5.36225
235 4.22793
240 5.40216
245 7.20771
250 5.3079
255 6.08237
260 6.4418
265 8.18638
270 3.58479
275 6.28861
280 6.37625
285 4.79332
290 4.61487
295 2.60513
300 5.42858
305 3.653
310 9.3207
315 6.20586
320 2.98274
325 5.36306
330 8.01728
335 3.40075
340 9.35108
345 6.27409
350 9.8944
355 2.87182
360 5.3271
365 5.03158
370 5.10785
375 3.35322
380 4.23158
385 6.26089
390 4.29488
395 4.35887
400 2.80763
405 6.26749
410 8.44787
415 5.62725
420 5.31844
425 9.37811
430 4.601
435 5.36605
440 3.81341
445 4.79472
450 3.65718
455 3.80193
460 5.35906
465 3.97524
470 6.70413
475 5.25601
480 10.0475
485 5.44203
490 6.78076
495 5.42021
500 5.64874
505 4.30823
510 4.56574
515 4.60487
520 4.93355
525 5.18697
530 4.79588
535 5.48005
540 8.09531
545 10.9595
550 5.31235
555 9.40564
560 9.60909
565 4.4056
570 6.02832
575 6.78059
580 4.07572
585 5.23242
590 3.79324
595 6.25301
600 21.0943
Ex : 218
200 8.05172
205 4.58027
210 4.23723
215 3.52787
220 2.84101
225 3.48325
230 7.88731
235 4.7935
240 3.3226
245 6.98175
250 4.90474
255 4.37603
260 3.73341
265 3.90109
270 4.54389
275 6.44122
280 9.75269
285 3.49749
290 4.48051
295 3.20497
300 5.30633
305 6.94403
310 7.80164
315 5.29821
320 8.0618
325 6.69166
330 3.21965
335 5.11553
340 7.10526
345 7.33903
350 5.10454
355 4.41398
360 3.84666
365 3.12257
370 4.79211
375 7.50053
380 4.6483
385 8.8338
390 6.86072
395 4.77986
400 2.81306
405 8.16466
410 5.30069
415 7.60097
420 10.3159
425 5.19512
430 9.61692
435 6.55361
440 5.6924
445 5.13025
450 3.26879
455 4.6562
460 6.68797
465 3.93618
470 3.26662
475 4.43256
480 6.08382
485 9.73159
490 10.1761
495 4.74177
500 4.14415
505 4.57028
510 9.57905
515 5.54243
520 7.74144
525 4.77912
530 6.74727
535 5.45664
540 4.83993
545 5.83517
550 5.27655
555 4.94173
560 6.9633
565 4.53294
570 7.19518
575 4.76589
580 4.82394
585 7.14382
590 5.85832
595 6.03663
600 34.5399
Ex : 223
200 4.65318
205 5.45902
210 2.51311
215 8.26729
220 3.64918
225 2.86161
230 4.2271
235 8.76195
240 5.55622
245 5.35695
250 6.13685
255 5.0309
260 4.96786
265 4.741
270 3.99369
275 10.9403
280 3.77841
285 4.77023
290 4.8112
295 3.55744
300 4.01076
305 5.99401
310 3.86923
315 7.29071
320 10.0654
325 5.57642
330 5.87496
335 4.94168
340 8.55382
345 5.0191
350 5.64045
355 3.63083
360 5.38866
365 3.37696
370 3.13673
375 3.24226
380 5.32721
385 4.66034
390 4.43179
395 6.02081
400 10.1889
405 6.01197
410 4.81976
415 3.83416
420 4.72936
425 7.09304
430 7.58233
435 6.37879
440 5.84793
445 5.29343
450 2.66491
455 6.49114
460 4.87255
465 5.42117
470 3.57266
475 4.26051
480 7.30178
485 3.37437
490 3.73478
495 4.5164
500 5.13811
505 5.74272
510 6.02646
515 7.21957
520 5.84856
525 6.3733
530 4.66276
535 4.19216
540 2.76387
545 3.7642
550 3.504
555 4.31696
560 5.39702
565 3.62935
570 3.72116
575 5.24287
580 8.60507
585 2.79737
590 5.16608
595 5.68101
600 0.646477
Ex : 228
200 6.19681
205 6.41793
210 8.26307
215 4.29158
220 5.17185
225 2.96044
230 3.82988
235 5.71634
240 7.02342
245 5.46848
250 3.23426
255 2.59098
260 5.62858
265 3.02805
270 2.97885
275 4.13435
280 7.32582
285 3.20511
290 5.17855
295 3.36307
300 2.10095
305 5.93877
310 4.03727
315 5.9995
320 4.75826
325 6.03174
330 4.52199
335 5.51382
340 4.03047
345 3.62889
350 6.7915
355 3.52713
360 3.07518
365 5.50994
370 3.37626
375 4.42721
380 4.9297
385 6.50082
390 3.34707
395 5.1771
400 3.25299
405 5.77439
410 5.03305
415 6.13462
420 7.27925
425 5.63549
430 4.28513
435 6.83876
440 6.05794
445 9.01568
450 7.63132
455 8.60445
460 8.33363
465 10.5418
470 4.06235
475 4.36679
480 3.97939
485 4.21682
490 4.8033
495 7.2126
500 3.17861
505 4.59856
510 4.14036
515 5.95288
520 3.56522
525 5.29565
530 5.91985
535 7.13621
540 2.46632
545 5.51592
550 5.26665
555 5.85219
560 4.98138
565 5.84002
570 4.13386
575 7.02833
580 4.22167
585 3.27654
590 4.15468
595 4.65547
600 0.529775
Ex : 233
200 8.77949
205 5.63861
210 3.80926
215 4.75889
220 5.98004
225 4.08353
230 4.09216
235 4.0821
240 4.84424
245 4.43014
250 3.49507
255 5.81554
260 4.59653
265 5.07617
270 3.86041
275 3.81657
280 4.3615
285 6.03962
290 5.87536
295 3.55878
300 2.01327
305 6.70947
310 4.68686
315 2.92749
320 6.23975
325 6.14999
330 6.47333
335 5.50962
340 4.62422
345 3.42995
350 6.92906
355 3.8579
360 5.88099
365 6.24851
370 7.08037
375 3.51458
380 6.90631
385 7.57432
390 4.91574
395 6.28665
400 7.66132
405 6.50456
410 3.53551
415 5.03891
420 2.23559
425 4.26177
430 3.52139
435 4.83174
440 3.24009
445 5.86689
450 3.41043
455 6.86205
460 7.3826
465 3.44608
470 5.03196
475 7.27365
480 4.34022
485 7.66022
490 6.77973
495 3.73329
500 4.22415
505 4.17181
510 5.1343
515 6.56386
520 4.10809
525 5.33704
530 5.37068
535 4.44994
540 4.36455
545 3.6008
550 5.1377
555 3.91541
560 3.55175
565 4.75771
570 5.9392
575 3.90548
580 3.64461
585 7.52969
590 3.79666
595 3.40988
600 0.388031
Ex : 238
200 6.83333
205 5.81498
210 5.86919
215 4.95048
220 4.31691
225 7.13367
230 3.81785
235 6.67559
240 5.97309
245 3.33062
250 2.85584
255 1.47347
260 2.66442
265 3.93704
270 2.88508
275 3.32589
280 2.36723
285 2.38619
290 4.81759
295 3.16655
300 3.12023
305 3.9831
310 4.09226
315 3.17494
320 4.6698
325 4.51119
330 4.34417
335 3.7565
340 3.88006
345 2.84695
350 2.99963
355 3.90273
360 5.19368
365 2.73098
370 2.42462
375 2.34506
380 6.07642
385 4.4776
390 3.8973
395 3.95156
400 4.53043
405 4.54411
410 5.23253
415 6.46971
420 4.9753
425 3.34351
430 4.99371
435 5.42187
440 5.71655
445 3.60864
450 4.60535
455 3.43648
460 2.93285
465 4.88072
470 4.76386
475 3.88209
480 3.63127
485 5.02954
490 5.28762
495 3.31598
500 4.57718
505 3.9187
510 5.44843
515 5.20694
520 5.76275
525 4.44971
530 3.16497
535 3.50972
540 4.28975
545 5.90385
550 4.0852
555 3.74854
560 3.8418
565 4.05585
570 4.05278
575 5.38935
580 3.02983
585 4.0302
590 6.48893
595 4.6369
600 0.527662
Ex : 243
200 3.0166
205 3.43956
210 1.78504
215 2.33645
220 3.15551
225 1.90909
230 2.70585
235 5.74023
240 4.28971
245 4.7087
250 4.59856
255 3.9359
260 4.58725
265 3.55357
270 3.09135
275 4.04372
280 2.62685
285 3.30687
290 5.62734
295 1.88762
300 5.12985
305 3.10925
310 3.56906
315 3.68691
320 4.60888
325 2.20971
330 3.90845
335 4.33481
340 4.90044
345 5.28529
350 2.62344
355 3.97889
360 3.10413
365 3.1943
370 3.57823
375 4.14342
380 4.83295
385 5.42961
390 5.29348
395 5.73339
400 4.81278
405 3.18759
410 5.52378
415 3.43664
420 2.99036
425 3.74388
430 3.49597
435 2.88781
440 3.6976
445 4.91328
450 3.04499
455 3.93722
460 2.67386
465 5.72576
470 3.32501
475 4.02682
480 3.4026
485 3.71685
490 3.31276
495 2.62007
500 3.75399
505 4.30609
510 2.84132
515 2.13266
520 3.97026
525 2.94697
530 3.90242
535 2.77079
540 4.24198
545 2.35441
550 5.15901
555 2.59067
560 4.11174
565 2.96123
570 4.57908
575 4.43424
580 5.21528
585 3.32536
590 3.79612
595 4.64423
600 0.528496
Ex : 248
200 1.88316
205 3.01909
210 4.00514
215 2.56666
220 2.7474
225 3.97859
230 4.20552
235 5.82158
240 2.72925
245 4.05403
250 3.82388
255 3.22668
260 5.13741
265 2.08616
270 2.33349
275 4.16955
280 3.18083
285 2.4943
290 1.29959
295 3.7087
300 2.6861
305 2.89542
310 2.9689
315 3.24571
320 3.05258
325 1.94995
330 2.50805
335 3.27224
340 4.09897
345 1.98167
350 2.39349
355 2.33203
360 2.69226
365 1.85964
370 1.86179
375 3.48615
380 3.94464
385 3.89697
390 2.99946
395 3.0785
400 2.9022
405 3.59833
410 5.84506
415 2.89475
420 4.32206
425 3.94093
430 4.10445
435 4.55889
440 4.09149
445 2.29397
450 4.23657
455 4.52683
460 3.00567
465 4.22069
470 2.05643
475 3.92808
480 4.13899
485 4.89599
490 2.99109
495 2.63869
500 4.24927
505 3.30683
510 1.66533
515 3.84937
520 2.99382
525 2.93754
530 4.09659
535 2.63079
540 4.02143
545 5.08844
550 4.15795
555 4.20143
560 2.82447
565 2.30395
570 2.87695
575 4.51872
580 2.85884
585 2.73894
590 3.24934
595 2.5701
600 0.292467
Ex : 253
200 1.01449
205 1.33901
210 0.956141
215 2.62303
220 2.3023
225 4.84746
230 2.42609
235 1.97975
240 2.58434
245 3.27379
250 2.50582
255 3.2207
260 1.39133
265 1.611
270 1.93869
275 2.70147
280 1.85567
285 4.00187
290 4.00268
295 1.8729
300 1.41493
305 3.67437
310 2.07387
315 3.09242
320 2.16541
325 2.93449
330 2.95499
335 2.61053
340 4.55035
345 3.53244
350 2.31708
355 2.1591
360 2.86391
365 3.03103
370 4.19765
375 2.7724
380 2.5692
385 2.65388
390 2.9163
395 2.17895
400 2.54616
405 3.5947
410 3.30561
415 2.31843
420 3.30937
425 4.09865
430 3.18667
435 2.3494
440 5.55918
445 3.02009
450 2.2075
455 2.43167
460 3.20325
465 3.46013
470 2.60417
475 2.29753
480 3.27765
485 1.77782
490 3.67453
495 3.51986
500 2.34432
505 2.2773
510 2.50043
515 2.57411
520 2.95153
525 2.08791
530 3.70026
535 4.00104
540 3.1265
545 3.4914
550 2.36924
555 6.65534
560 4.18522
565 3.60883
570 3.81758
575 2.57479
580 2.06051
585 1.48765
590 1.78692
595 2.37018
600 2.81755
Ex : 258
200 1.1704
205 0.862648
210 2.42494
215 3.17533
220 1.31678
225 1.55068
230 2.31131
235 1.4406
240 1.84306
245 2.31421
250 2.00031
255 1.29941
260 3.20537
265 1.79909
270 1.1728
275 2.66604
280 2.37923
285 2.18784
290 2.07292
295 3.16097
300 2.19843
305 1.99438
310 1.38568
315 2.024
320 1.81198
325 2.29894
330 1.30255
335 2.08067
340 1.13094
345 2.26473
350 1.81997
355 2.7795
360 2.46734
365 2.03681
370 1.71011
375 2.43084
380 2.08687
385 2.70506
390 2.67104
395 1.62821
400 2.3051
405 2.36828
410 2.78576
415 2.00567
420 1.57115
425 1.21533
430 1.69219
435 0.973693
440 2.88484
445 2.99474
450 2.60464
455 1.8813
460 2.02113
465 2.37378
470 2.55159
475 2.77649
480 2.50707
485 1.43446
490 1.70862
495 1.75391
500 2.45538
505 1.64614
510 2.82383
515 2.65971
520 1.99983
525 2.73745
530 1.72532
535 1.62355
540 2.15848
545 2.83366
550 2.2021
555 2.38708
560 1.75734
565 2.06934
570 1.18485
575 2.72191
580 2.48532
585 2.47112
590 1.90108
595 1.96285
600 1.51239
Ex : 263
200 1.27837
205 1.65565
210 1.12454
215 2.37575
220 2.31789
225 3.15809
230 1.44742
235 1.28692
240 1.22746
245 1.2587
250 1.35128
255 2.54125
260 1.49636
265 1.33767
270 1.54615
275 1.37809
280 1.639
285 1.59336
290 0.8045
295 1.21261
300 1.28028
305 1.22692
310 1.38421
315 2.57837
320 1.35531
325 1.61433
330 1.6708
335 1.5441
340 1.81534
345 3.73129
350 1.91978
355 1.44234
360 1.1008
365 2.14974
370 2.21725
375 2.1822
380 1.36733
385 2.69143
390 1.08613
395 1.9365
400 2.69241
405 2.05409
410 1.91676
415 0.975779
420 1.3558
425 2.73969
430 1.76178
435 1.46289
440 1.94046
445 2.01841
450 1.39382
455 1.70747
460 2.32212
465 1.71625
470 1.10554
475 1.56332
480 1.99149
485 1.49722
490 0.718529
495 0.580158
500 1.90218
505 2.00174
510 1.44753
515 1.85137
520 1.38866
525 2.02753
530 1.7166
535 1.64897
540 1.96005
545 1.90095
550 1.67677
555 1.39242
560 2.46354
565 1.26571
570 1.11471
575 1.44894
580 1.8414
585 2.95989
590 1.96832
595 2.4395
600 1.98184
Ex : 268
200 0.805866
205 1.58078
210 1.58687
215 1.92725
220 1.89284
225 0.906188
230 0.766189
235 0.606946
240 1.99613
245 1.18896
250 1.63238
255 1.59811
260 0.844103
265 1.20594
270 1.38929
275 0.900759
280 0.777353
285 0.614721
290 1.17989
295 1.81572
300 0.808365
305 1.77678
310 1.04655
315 2.32293
320 1.59065
325 1.48542
330 0.871677
335 1.5762
340 1.33415
345 0.93805
350 1.18453
355 1.11741
360 1.49209
365 1.91527
370 1.84266
375 1.19477
380 1.16396
385 1.80872
390 1.25415
395 2.30431
400 2.26964
405 1.49029
410 1.58604
415 1.26715
420 1.60118
425 1.66338
430 1.28554
435 1.67802
440 1.90758
445 2.25473
450 1.61855
455 1.69442
460 1.37897
465 0.775431
470 1.76647
475 1.47164
480 1.45425
485 1.2766
490 1.36365
495 1.69496
500 1.29187
505 1.15575
510 1.21466
515 0.893046
520 1.41071
525 1.07887
530 2.5333
535 3.12982
540 1.66711
545 1.22361
550 0.586058
555 1.44838
560 0.939149
565 0.776096
570 0.619301
575 0.658825
580 1.14878
585 1.83749
590 1.24117
595 1.29306
600 0.147145
Ex : 273
200 0.86902
205 0.895589
210 0.863343
215 0.626578
220 0.861509
225 0.980203
230 1.32456
235 0.699617
240 0.902445
245 0.705875
250 0.594384
255 0.837816
260 0.769015
265 0.692238
270 1.00959
275 1.62153
280 1.76573
285 0.907328
290 0.810824
295 0.660908
300 0.534871
305 1.52196
310 1.30518
315 1.51508
320 0.945204
325 1.17487
330 1.22387
335 1.48146
340 1.09722
345 1.04786
350 1.44009
355 1.72019
360 1.02581
365 0.912097
370 0.944834
375 1.49361
380 1.89176
385 1.1611
390 1.67159
395 1.34061
400 1.22693
405 1.23787
410 1.38194
415 1.8677
420 1.8641
425 1.02902
430 1.76608
435 1.46928
440 1.10472
445 1.25251
450 1.3431
455 0.867033
460 1.34859
465 1.18571
470 1.06456
475 0.891971
480 2.05431
485 1.00417
490 0.937104
495 0.800277
500 0.585393
505 1.70108
510 0.707318
515 1.569
520 0.884692
525 2.37126
530 1.12819
535 0.886295
540 0.99788
545 0.790348
550 1.73716
555 0.877335
560 0.85645
565 0.815608
570 0.402024
575 1.06563
580 0.893471
585 0.415454
590 0.770648
595 1.32361
600 0.553442
Ex : 278
200 0.538955
205 0.430855
210 0.723926
215 0.667717
220 1.05398
225 0.851703
230 0.930193
235 1.00185
240 0.772329
245 0.924858
250 0.879344
255 0.869147
260 1.28379
265 0.955588
270 0.642256
275 0.772764
280 0.463927
285 0.766863
290 0.921626
295 0.821637
300 0.863203
305 1.42351
310 0.915586
315 0.914713
320 0.778823
325 1.42156
330 0.722677
335 0.772053
340 1.00175
345 0.861299
350 0.916543
355 1.48914
360 0.768663
365 0.875568
370 0.726796
375 0.750618
380 1.14444
385 1.35171
390 1.62374
395 0.881021
400 1.27432
405 0.90718
410 1.61027
415 1.29749
420 0.608152
425 0.666168
430 0.974308
435 1.03363
440 1.077
445 0.734815
450 1.01353
455 0.811812
460 1.01117
465 1.08645
470 1.36944
475 1.56176
480 1.28245
485 0.741624
490 0.972227
495 0.520403
500 0.72609
505 0.750924
510 0.718684
515 0.859356
520 1.30296
525 0.923599
530 0.650774
535 0.678248
540 0.727823
545 1.44841
550 1.08499
555 1.08649
560 1.10325
565 0.466394
570 0.989182
575 1.05961
580 1.04027
585 0.942105
590 0.940758
595 0.721446
600 0.0820979
Ex : 283
200 0.537946
205 0.529745
210 0.530432
215 0.506124
220 0.53447
225 0.669066
230 0.510099
235 0.470846
240 0.482562
245 0.376553
250 0.558179
255 0.256909
260 0.505595
265 0.581655
270 1.09664
275 0.986138
280 0.482764
285 0.50451
290 0.901162
295 0.605112
300 0.461321
305 0.471711
310 0.546918
315 0.464081
320 0.590815
325 0.815197
330 0.667308
335 0.735862
340 0.85373
345 0.87749
350 0.834427
355 0.820702
360 1.12332
365 1.96851
370 0.816603
375 0.58912
380 0.751468
385 0.954984
390 1.08901
395 1.22786
400 0.733885
405 0.745956
410 0.580492
415 0.559742
420 0.698809
425 0.958267
430 0.693507
435 0.610641
440 0.92802
445 0.932952
450 0.794771
455 1.47827
460 0.677418
465 0.809111
470 0.929007
475 0.68001
480 0.89357
485 0.554172
490 0.639162
495 0.880253
500 0.544612
505 0.641622
510 0.572425
515 0.889671
520 0.88957
525 0.439307
530 0.879971
535 1.29955
540 0.707487
545 0.810006
550 0.745168
555 1.12082
560 0.932383
565 0.945059
570 0.993083
575 0.434722
580 0.712249
585 0.51601
590 0.858904
595 0.527089
600 0.0599808
Ex : 288
200 0.69197
205 0.536193
210 0.669829
215 0.929667
220 0.443314
225 0.488791
230 0.790415
235 0.789846
240 0.46583
245 0.311089
250 0.409181
255 0.563469
260 0.518426
265 0.784173
270 0.446422
275 0.845056
280 0.552947
285 0.49195
290 0.651252
295 0.435757
300 0.634033
305 0.477078
310 0.321549
315 0.386821
320 0.348564
325 0.566323
330 0.727128
335 0.76833
340 0.838853
345 0.810388
350 1.01238
355 0.917141
360 0.663811
365 0.775085
370 0.741784
375 1.04176
380 0.783759
385 0.77629
390 0.510206
395 0.435073
400 0.775596
405 0.884046
410 0.857578
415 0.59198
420 0.553546
425 0.64936
430 0.520375
435 0.977595
440 0.73942
445 0.801041
450 0.537878
455 0.844835
460 0.463849
465 0.825184
470 0.477736
475 0.485111
480 1.28234
485 1.18809
490 0.969407
495 0.939199
500 0.607896
505 0.600455
510 0.968538
515 0.681437
520 0.658219
525 0.296593
530 0.467257
535 0.406744
540 0.815795
545 0.606378
550 0.696498
555 0.536925
560 0.687351
565 1.25813
570 0.789057
575 0.573885
580 0.284198
585 0.564845
590 0.774462
595 0.334205
600 0.0380313
Ex : 293
200 0.223358
205 0.327457
210 0.507688
215 0.491498
220 0.309474
225 0.657596
230 0.494815
235 0.197851
240 0.431166
245 0.489324
250 0.504009
255 0.362496
260 0.473802
265 0.474899
270 0.442852
275 0.570454
280 0.660803
285 0.469012
290 0.435422
295 0.290152
300 0.545407
305 0.547787
310 0.592152
315 0.564138
320 0.513748
325 0.51417
330 0.629898
335 0.659308
340 0.602654
345 0.450205
350 0.482799
355 0.648764
360 0.913013
365 0.678412
370 0.464796
375 0.807842
380 0.667938
385 0.596972
390 0.69883
395 0.576372
400 0.77828
405 0.637077
410 0.63268
415 1.08588
420 0.907999
425 0.835011
430 0.499759
435 0.731365
440 0.422502
445 0.540309
450 0.440324
455 0.557883
460 0.836475
465 0.511917
470 0.476185
475 0.549168
480 0.638406
485 0.848791
490 0.672382
495 0.833609
500 0.740504
505 0.575278
510 0.574459
515 0.484058
520 0.583879
525 0.283386
530 0.508728
535 0.796794
540 0.600563
545 0.634064
550 0.421871
555 0.433292
560 0.310263
565 0.344114
570 0.72144
575 0.838613
580 0.922331
585 0.838956
590 0.776357
595 0.405052
600 0.203641
Ex : 298
200 0.359295
205 0.490627
210 0.609657
215 0.349078
220 0.538779
225 0.525334
230 0.372534
235 0.604476
240 0.56292
245 0.628231
250 0.493255
255 0.59291
260 0.300047
265 0.892117
270 0.523874
275 0.378632
280 0.328586
285 0.363281
290 0.45468
295 0.688803
300 0.388761
305 0.753779
310 0.296661
315 0.340855
320 0.582999
325 0.439003
330 0.315483
335 0.402848
340 0.690581
345 0.55079
350 0.348072
355 0.50902
360 0.537848
365 0.428605
370 0.476907
375 0.564345
380 0.802862
385 0.786481
390 0.590968
395 0.659842
400 0.672818
405 0.877405
410 0.540254
415 0.743905
420 0.521776
425 0.671092
430 0.358475
435 0.53954
440 0.486808
445 0.558959
450 0.50588
455 0.481747
460 0.583246
465 0.517095
470 0.615756
475 0.723019
480 0.539393
485 0.297785
490 0.466424
495 0.428246
500 0.604264
505 0.27502
510 0.415235
515 0.416435
520 0.478337
525 0.619057
530 0.600179
535 0.528632
540 0.471608
545 0.263666
550 0.366605
555 0.298766
560 0.359501
565 0.713876
570 0.506282
575 0.336099
580 0.27673
585 0.7623
590 0.606928
595 0.464671
600 0.0528778
Ex : 303
200 0.312925
205 0.507002
210 0.300744
215 0.444713
220 0.414387
225 0.352891
230 0.224589
235 0.298946
240 0.243815
245 0.385492
250 0.333904
255 0.346366
260 0.278623
265 0.291935
270 0.348958
275 0.324753
280 0.678554
285 0.25481
290 0.484728
295 0.396338
300 0.469341
305 0.219973
310 0.37588
315 0.269402
320 0.396336
325 0.357499
330 0.537028
335 0.427028
340 0.344472
345 0.344286
350 0.396141
355 0.40549
360 0.562138
365 0.553563
370 0.540098
375 0.477536
380 0.765871
385 0.619803
390 0.491771
395 0.517556
400 0.5835
405 0.521332
410 0.406835
415 0.594577
420 0.424708
425 0.710383
430 0.549581
435 0.513685
440 0.511276
445 0.489538
450 0.987953
455 0.474721
460 0.845364
465 0.448111
470 0.57775
475 0.695445
480 0.482707
485 0.675739
490 0.394109
495 0.275096
500 0.497822
505 0.345653
510 0.396674
515 0.328796
520 0.764566
525 0.399783
530 0.464059
535 0.267764
540 0.567186
545 0.364617
550 0.394049
555 0.335131
560 0.303715
565 0.250221
570 0.540527
575 0.387536
580 0.273315
585 0.474736
590 0.490171
595 0.654245
600 1.23669
Ex : 308
200 0.324644
205 0.385061
210 0.270456
215 0.419539
220 0.25393
225 0.399325
230 0.223304
235 0.224768
240 0.359266
245 0.200619
250 0.286938
255 0.465811
260 0.216648
265 0.601013
270 0.307488
275 0.271894
280 0.31646
285 0.175547
290 0.500328
295 0.366004
300 0.304287
305 0.449452
310 0.220438
315 0.146158
320 0.298762
325 0.563289
330 0.567469
335 0.465746
340 0.274236
345 0.391372
350 0.283856
355 0.502794
360 0.494059
365 0.471572
370 0.423046
375 0.451046
380 0.431756
385 0.506618
390 0.611997
395 0.460523
400 0.692008
405 0.672473
410 0.719727
415 0.582544
420 0.873492
425 0.592431
430 0.552896
435 0.592642
440 0.83142
445 0.886221
450 0.560749
455 0.453246
460 0.48549
465 0.581818
470 0.361089
475 0.365948
480 0.407677
485 0.433733
490 0.647357
495 0.453959
500 0.494605
505 0.728802
510 0.25705
515 0.38989
520 0.389331
525 0.287155
530 0.51998
535 0.456867
540 0.564019
545 0.361353
550 0.459118
555 0.367722
560 0.192092
565 0.378724
570 0.27009
575 0.388277
580 0.262068
585 0.27832
590 0.280233
595 0.239676
600 0.0272742
Ex : 313
200 0.258831
205 0.297116
210 0.412679
215 0.226627
220 0.311493
225 0.332842
230 0.181068
235 0.182155
240 0.271148
245 0.372318
250 0.343118
255 0.256442
260 0.221052
265 0.393376
270 0.286081
275 0.246438
280 0.339907
285 0.495391
290 0.293187
295 0.262185
300 0.401275
305 0.324208
310 0.467188
315 0.341843
320 0.302999
325 0.445053
330 0.41488
335 0.404253
340 0.509488
345 0.451118
350 0.445873
355 0.42758
360 0.49094
365 0.779559
370 0.661491
375 0.784238
380 0.896365
385 0.574992
390 0.616085
395 0.859059
400 0.734307
405 0.576475
410 0.907439
415 0.795083
420 0.647884
425 0.88202
430 0.776016
435 0.633412
440 0.836524
445 0.685449
450 0.668986
455 0.655046
460 0.710517
465 0.468448
470 0.458831
475 0.48364
480 0.603119
485 0.56294
490 0.293024
495 0.373814
500 0.375442
505 0.3131
510 0.389181
515 0.392182
520 0.315406
525 0.311909
530 0.216324
535 0.248287
540 0.381366
545 0.286398
550 0.435187
555 0.362188
560 0.213556
565 0.296329
570 0.162421
575 0.475852
580 0.348915
585 0.141235
590 0.36113
595 0.341029
600 0.533037
Ex : 318
200 0.189182
205 0.238419
210 0.314276
215 0.219133
220 0.315914
225 0.326663
230 0.155301
235 0.209864
240 0.406336
245 0.191646
250 0.214388
255 0.14141
260 0.393882
265 0.26032
270 0.103675
275 0.391117
280 0.174646
285 0.332538
290 0.222488
295 0.196141
300 0.305654
305 0.205234
310 0.288049
315 1.04694
320 0.564054
325 0.44841
330 0.483049
335 0.829391
340 1.08921
345 1.31348
350 1.55869
355 2.13561
360 2.68087
365 3.14039
370 3.734
375 4.17888
380 5.24329
385 6.16771
390 6.18798
395 6.38686
400 7.22716
405 7.38072
410 7.37156
415 7.46308
420 6.91489
425 6.85154
430 6.56214
435 6.39423
440 5.78858
445 5.64749
450 5.4917
455 5.06772
460 4.85183
465 4.05768
470 4.0894
475 3.37344
480 3.13292
485 2.87724
490 2.77228
495 2.29738
500 2.31058
505 1.72056
510 1.39146
515 1.36617
520 1.11572
525 1.04486
530 0.8608
535 0.729958
540 0.687581
545 0.693872
550 0.518544
555 0.388916
560 0.390028
565 0.364315
570 0.385542
575 0.285784
580 0.351874
585 0.267311
590 0.290981
595 0.174308
600 0.590266
Ex : 323
200 0.212633
205 0.22988
210 0.309874
215 0.250692
220 0.158946
225 0.0823207
230 0.156273
235 0.250916
240 0.133103
245 0.275883
250 0.364662
255 0.142654
260 0.165329
265 0.117802
270 0.383551
275 0.135248
280 0.253909
285 0.216368
290 0.230283
295 0.132705
300 0.173229
305 0.174982
310 0.339668
315 7.01678
320 32.7312
325 13.5992
330 3.02251
335 2.95412
340 3.8615
345 5.3427
350 7.68069
355 10.468
360 13.2421
365 15.1998
370 18.5568
375 20.8797
380 24.3236
385 27.2288
390 30.007
395 30.9168
400 32.5612
405 32.3682
410 32.822
415 32.2366
420 31.646
425 30.0896
430 29.0821
435 28.4458
440 27.1228
445 25.9755
450 24.6024
455 22.3875
460 21.6001
465 19.0499
470 18.6272
475 16.3357
480 14.9986
485 13.605
490 12.1215
495 10.6294
500 9.6727
505 8.22024
510 7.26423
515 6.19882
520 5.23872
525 4.63065
530 3.86146
535 3.19747
540 2.92138
545 2.54204
550 2.00866
555 1.92867
560 1.79502
565 1.28969
570 1.08018
575 0.840764
580 0.543408
585 0.666663
590 0.457265
595 0.504788
600 0.057443
Ex : 328
200 0.199221
205 0.234564
210 0.137976
215 0.192903
220 0.241096
225 0.109671
230 0.237529
235 0.202185
240 0.4071
245 0.284584
250 0.232008
255 0.132338
260 0.178557
265 0.106006
270 0.195309
275 0.193193
280 0.294114
285 0.245526
290 0.141947
295 0.103282
300 0.242777
305 0.170501
310 0.208104
315 1.95396
320 77.159
325 187.789
330 56.2574
335 9.80768
340 6.07994
345 6.96037
350 8.79484
355 11.8576
360 17.6411
365 19.3766
370 21.6055
375 24.5999
380 27.9398
385 31.4092
390 34.4214
395 35.9146
400 37.5772
405 37.9849
410 38.875
415 38.0263
420 36.6683
425 34.8668
430 33.4412
435 31.8597
440 30.4786
445 28.7828
450 26.8472
455 25.5362
460 23.129
465 21.488
470 19.6301
475 18.6755
480 16.5582
485 14.7855
490 13.3045
495 12.4285
500 10.3278
505 9.62236
510 8.23543
515 7.09776
520 6.39109
525 5.33277
530 4.714
535 3.9206
540 3.25571
545 2.75852
550 2.49001
555 1.96531
560 1.72988
565 1.67191
570 1.22188
575 0.905729
580 0.736071
585 0.471211
590 0.537659
595 0.648497
600 0.0737965
Ex : 333
200 0.167875
205 0.222079
210 0.196189
215 0.124627
220 0.1052
225 0.234226
230 0.158634
235 0.220169
240 0.122436
245 0.143947
250 0.224466
255 0.198996
260 0.159281
265 0.22105
270 0.167543
275 0.221346
280 0.192668
285 0.146602
290 0.273376
295 0.282028
300 0.186652
305 0.288064
310 0.229169
315 0.316842
320 10.1608
325 223.994
330 379.859
335 99.2532
340 14.8619
345 6.50394
350 6.1003
355 6.88067
360 10.397
365 14.6945
370 15.8843
375 15.3912
380 16.0787
385 18.6389
390 21.2335
395 22.8632
400 22.7306
405 23.4548
410 23.5069
415 24.2008
420 22.6673
425 20.82
430 19.2472
435 18.4938
440 18.3798
445 16.742
450 16.3455
455 15.2365
460 13.657
465 12.3594
470 11.5008
475 10.4314
480 9.29478
485 8.58931
490 8.06811
495 7.04337
500 5.84092
505 5.52854
510 4.62807
515 4.25844
520 3.72666
525 3.42889
530 2.66784
535 2.23808
540 2.07611
545 2.10738
550 1.58833
555 1.4237
560 1.28052
565 1.28171
570 0.868846
575 0.712732
580 0.498995
585 0.551405
590 0.391864
595 0.376614
600 1.36856
Ex : 338
200 0.293731
205 0.232785
210 0.132256
215 0.129732
220 0.157964
225 0.186472
230 0.119919
235 0.162646
240 0.111835
245 0.186613
250 0.154556
255 0.180539
260 0.162655
265 0.212535
270 0.207096
275 0.213638
280 0.202156
285 0.295316
290 0.287484
295 0.191679
300 0.154759
305 0.153039
310 0.241795
315 0.205484
320 0.365081
325 19.9169
330 333.152
335 495.851
340 123.904
345 17.3285
350 5.59592
355 4.21725
360 3.99417
365 5.45148
370 9.84332
375 10.2622
380 9.1294
385 10.6483
390 12.7531
395 13.4811
400 13.2795
405 13.2172
410 13.9317
415 14.9182
420 13.8533
425 12.8808
430 12.4525
435 11.6125
440 11.3983
445 10.3468
450 8.98861
455 8.50292
460 8.10772
465 7.4792
470 7.23373
475 6.56042
480 5.70067
485 5.18925
490 4.28794
495 4.2812
500 4.03311
505 3.33166
510 3.00432
515 2.63849
520 2.18827
525 1.95616
530 1.62607
535 1.46524
540 1.46264
545 1.19618
550 0.969748
555 0.978945
560 0.965676
565 0.801655
570 0.744668
575 0.55278
580 0.630686
585 0.450777
590 0.391339
595 0.363389
600 0.751668
Ex : 343
200 0.102212
205 0.166895
210 0.0941162
215 0.13033
220 0.127566
225 0.183021
230 0.170379
235 0.171251
240 0.142326
245 0.158197
250 0.102933
255 0.144071
260 0.0882804
265 0.241784
270 0.143182
275 0.207291
280 0.162211
285 0.163542
290 0.201658
295 0.219577
300 0.212725
305 0.183736
310 0.16303
315 0.141431
320 0.2248
325 0.567892
330 23.2242
335 381.326
340 562.174
345 136.689
350 18.1131
355 5.08131
360 3.09491
365 2.3198
370 3.48718
375 7.82923
380 9.22211
385 9.53119
390 10.1109
395 10.3427
400 10.3504
405 10.6238
410 12.2433
415 12.4449
420 12.1746
425 10.5582
430 9.46974
435 9.7258
440 8.93725
445 8.99705
450 7.92384
455 7.40727
460 6.25604
465 6.09023
470 5.83154
475 5.27216
480 4.69354
485 4.3125
490 4.18933
495 3.74574
500 3.27462
505 3.01814
510 2.57701
515 2.44687
520 2.18658
525 1.60842
530 1.39468
535 1.31034
540 1.09353
545 1.0683
550 1.18374
555 0.800188
560 0.828791
565 0.848326
570 0.58625
575 0.511395
580 0.529998
585 0.385688
590 0.400109
595 0.360228
600 0.142786
Ex : 348
200 0.185508
205 0.168032
210 0.131375
215 0.126108
220 0.136865
225 0.178725
230 0.0995042
235 0.148648
240 0.169641
245 0.152015
250 0.13639
255 0.247085
260 0.242097
265 0.094531
270 0.184964
275 0.258367
280 0.127927
285 0.173233
290 0.170735
295 0.231376
300 0.200791
305 0.116997
310 0.174839
315 0.0977589
320 0.219855
325 0.288341
330 0.557872
335 24.4423
340 395.246
345 605.314
350 155.207
355 19.7236
360 4.54289
365 2.71839
370 1.92964
375 2.393
380 7.05356
385 12.1175
390 13.3042
395 13.3636
400 12.0284
405 11.8704
410 13.9902
415 15.1866
420 14.0177
425 12.1011
430 11.2859
435 11.1586
440 10.4177
445 9.83544
450 8.95714
455 8.37274
460 7.41495
465 7.04484
470 6.59758
475 5.98633
480 5.38659
485 4.88645
490 4.3096
495 4.07274
500 3.58852
505 3.31624
510 3.01173
515 2.5424
520 2.18438
525 2.08218
530 1.75697
535 1.4895
540 1.29862
545 1.07214
550 1.06454
555 1.04184
560 0.882659
565 0.959503
570 0.686171
575 0.521782
580 0.630364
585 0.354173
590 0.411236
595 0.373572
600 0.269601
Ex : 353
200 0.1277
205 0.134352
210 0.116105
215 0.125951
220 0.161828
225 0.251963
230 0.188278
235 0.10533
240 0.105704
245 0.151671
250 0.20255
255 0.164056
260 0.124152
265 0.181755
270 0.161572
275 0.22264
280 0.101257
285 0.209504
290 0.185451
295 0.126899
300 0.110263
305 0.195429
310 0.203927
315 0.19961
320 0.221257
325 0.402263
330 0.440373
335 0.706788
340 24.8949
345 413.625
350 601.813
355 149.953
360 19.2817
365 4.22556
370 2.45314
375 1.91382
380 3.36162
385 8.47945
390 15.6354
395 16.4234
400 13.7679
405 13.1364
410 14.758
415 16.5869
420 15.9826
425 13.6443
430 12.3714
435 11.7489
440 11.5978
445 11.0091
450 10.2126
455 9.2754
460 8.36874
465 7.56239
470 6.76484
475 6.27115
480 5.63419
485 5.49541
490 4.77837
495 4.46729
500 3.72573
505 3.47538
510 3.17527
515 2.68834
520 2.48114
525 2.00003
530 1.78262
535 1.8646
540 1.61514
545 1.46376
550 1.15916
555 1.01996
560 0.948592
565 0.875062
570 0.740433
575 0.627912
580 0.510561
585 0.371211
590 0.391914
595 0.281091
600 0.235712
Ex : 358
200 0.0835552
205 0.140226
210 0.17116
215 0.186208
220 0.13552
225 0.0764053
230 0.182988
235 0.133932
240 0.156833
245 0.1536
250 0.130901
255 0.131478
260 0.0802513
265 0.21709
270 0.0888676
275 0.150931
280 0.203684
285 0.148477
290 0.164274
295 0.0703569
300 0.151542
305 0.204307
310 0.139939
315 0.136372
320 0.209755
325 0.215136
330 0.238004
335 0.368424
340 0.661247
345 24.1065
350 396.636
355 616.445
360 155.411
365 19.7545
370 4.41583
375 2.86791
380 3.36768
385 6.17131
390 11.1006
395 16.4898
400 14.9795
405 13.4772
410 14.0898
415 15.4922
420 14.7134
425 13.2385
430 11.4056
435 11.3644
440 11.4536
445 10.9369
450 9.74821
455 8.36397
460 8.2571
465 7.58015
470 7.24123
475 6.65158
480 5.96551
485 5.41652
490 5.03082
495 4.35543
500 4.00391
505 3.65341
510 3.04448
515 2.72535
520 2.45668
525 2.32514
530 2.1257
535 1.66053
540 1.50275
545 1.25776
550 1.18501
555 1.31619
560 1.05832
565 0.918324
570 0.650252
575 0.636546
580 0.539236
585 0.418328
590 0.315002
595 0.315081
600 0.035855
Ex : 363
200 0.145247
205 0.110043
210 0.139897
215 0.143977
220 0.151586
225 0.21115
230 0.111571
235 0.122833
240 0.139105
245 0.183686
250 0.135549
255 0.110522
260 0.13155
265 0.114286
270 0.121172
275 0.0950101
280 0.0963654
285 0.119602
290 0.102422
295 0.0891061
300 0.145064
305 0.0918435
310 0.164111
315 0.113987
320 0.13467
325 0.149229
330 0.22782
335 0.370934
340 0.473498
345 0.603651
350 22.7197
355 389.578
360 614.593
365 162.31
370 20.505
375 4.37797
380 4.428
385 7.85276
390 11.2001
395 12.6624
400 15.3866
405 16.7503
410 17.4573
415 17.7458
420 16.2113
425 14.1502
430 13.1571
435 12.8818
440 12.6814
445 11.9209
450 11.0483
455 9.76966
460 8.76731
465 8.2254
470 7.55103
475 7.42508
480 6.44574
485 5.8495
490 5.46789
495 4.52982
500 4.38382
505 4.09504
510 3.24561
515 3.15231
520 2.67736
525 2.20852
530 2.068
535 1.87892
540 1.6021
545 1.47511
550 1.57923
555 1.12729
560 1.01597
565 0.72775
570 0.743203
575 0.569384
580 0.489128
585 0.4372
590 0.392685
595 0.339234
600 0.752857
Ex : 368
200 0.102027
205 0.13723
210 0.134154
215 0.168388
220 0.0684508
225 0.0810245
230 0.0861376
235 0.0970429
240 0.146662
245 0.0576788
250 0.115812
255 0.0612476
260 0.168287
265 0.142897
270 0.121273
275 0.149016
280 0.0805358
285 0.0865624
290 0.129101
295 0.156039
300 0.13918
305 0.125981
310 0.0660107
315 0.123091
320 0.111966
325 0.167637
330 0.169065
335 0.248378
340 0.281721
345 0.340808
350 0.712047
355 19.0888
360 380.735
365 645.258
370 174.448
375 22.4565
380 6.33628
385 9.06674
390 14.2059
395 15.8421
400 14.5323
405 18.154
410 23.0776
415 23.3706
420 21.6626
425 18.3595
430 15.7718
435 15.705
440 15.7575
445 15.0165
450 12.9369
455 11.4012
460 10.3607
465 9.40275
470 8.87261
475 8.23776
480 7.56705
485 6.75108
490 6.01661
495 5.52281
500 4.65711
505 4.2965
510 3.63782
515 3.32669
520 3.00135
525 2.69599
530 2.28838
535 2.18389
540 1.73834
545 1.45739
550 1.39903
555 1.17107
560 1.11246
565 0.839277
570 0.754479
575 0.563439
580 0.486611
585 0.409756
590 0.34916
595 0.2423
600 0.901295
Ex : 373
200 0.106667
205 0.141875
210 0.133918
215 0.113185
220 0.107014
225 0.159582
230 0.0905646
235 0.11835
240 0.117247
245 0.0906059
250 0.0706869
255 0.0788989
260 0.123871
265 0.134516
270 0.116505
275 0.100623
280 0.0719461
285 0.123674
290 0.0966177
295 0.131324
300 0.138007
305 0.135003
310 0.109876
315 0.117102
320 0.116077
325 0.144147
330 0.128594
335 0.241237
340 0.234899
345 0.227811
350 0.388403
355 0.633851
360 22.9778
365 387.574
370 632.132
375 167.667
380 22.529
385 8.90383
390 13.9407
395 17.2007
400 15.3583
405 15.1944
410 19.1444
415 25.1849
420 23.406
425 19.1202
430 15.8959
435 14.9582
440 15.4567
445 14.6035
450 12.8591
455 11.3543
460 9.98085
465 9.2625
470 8.53113
475 7.94169
480 7.31033
485 6.58427
490 5.92995
495 5.34552
500 4.61659
505 4.29994
510 3.67279
515 3.69985
520 3.18421
525 2.84892
530 2.54808
535 2.07172
540 1.80254
545 1.7628
550 1.4768
555 1.15742
560 1.15225
565 0.998716
570 0.946145
575 0.607527
580 0.505455
585 0.389635
590 0.353241
595 0.340299
600 0.831233
Ex : 378
200 0.129917
205 0.087093
210 0.111474
215 0.0874489
220 0.0914596
225 0.0633101
230 0.0867242
235 0.136683
240 0.059469
245 0.123622
250 0.128804
255 0.085536
260 0.114753
265 0.134301
270 0.0998427
275 0.0732494
280 0.0822448
285 0.0949127
290 0.0937862
295 0.0901732
300 0.156125
305 0.130081
310 0.0694238
315 0.115718
320 0.0596246
325 0.100959
330 0.126117
335 0.198712
340 0.144552
345 0.255931
350 0.227515
355 0.35729
360 0.657186
365 21.1751
370 393.791
375 656.242
380 177.739
385 26.3972
390 12.2018
395 12.8472
400 11.5488
405 10.8496
410 12.852
415 16.5689
420 18.7701
425 16.6655
430 13.4717
435 12.5119
440 12.0156
445 11.5341
450 10.3793
455 9.17963
460 8.24752
465 7.9632
470 7.36417
475 7.02943
480 6.55528
485 5.84291
490 5.60102
495 4.90527
500 4.50127
505 4.00875
510 3.52111
515 3.33475
520 2.94632
525 2.45879
530 2.2613
535 2.04138
540 1.93067
545 1.43107
550 1.40611
555 1.27607
560 1.15459
565 0.927342
570 0.9142
575 0.595385
580 0.536041
585 0.406032
590 0.417782
595 0.389945
600 0.451698
Ex : 383
200 0.0543764
205 0.0983058
210 0.0560419
215 0.0936385
220 0.11197
225 0.121678
230 0.091514
235 0.0847571
240 0.0519014
245 0.0915807
250 0.080935
255 0.148567
260 0.08267
265 0.0514877
270 0.0582272
275 0.0680978
280 0.0591684
285 0.102296
290 0.0556231
295 0.0894455
300 0.096071
305 0.134823
310 0.133738
315 0.123278
320 0.122933
325 0.100989
330 0.137427
335 0.125076
340 0.212651
345 0.235627
350 0.205277
355 0.287344
360 0.319332
365 0.696401
370 19.5111
375 392.341
380 680.145
385 188.408
390 31.5834
395 13.3982
400 10.6443
405 11.4505
410 13.7037
415 15.3384
420 14.9096
425 15.6448
430 14.5182
435 13.4811
440 12.8251
445 11.8611
450 10.1085
455 9.53583
460 8.52764
465 8.08867
470 7.63253
475 7.39882
480 6.52829
485 5.98948
490 5.3448
495 5.08451
500 4.29969
505 4.29958
510 3.76959
515 3.27264
520 3.09723
525 2.65902
530 2.50655
535 2.13897
540 1.86712
545 1.62453
550 1.55859
555 1.20298
560 1.02057
565 0.854865
570 0.775025
575 0.690787
580 0.493079
585 0.390349
590 0.335581
595 0.324226
600 0.0404263
Ex : 388
200 0.120456
205 0.0752143
210 0.116221
215 0.0810203
220 0.07267
225 0.116298
230 0.0787177
235 0.114871
240 0.0669041
245 0.137949
250 0.0727254
255 0.0694018
260 0.11615
265 0.152672
270 0.101569
275 0.102837
280 0.120745
285 0.124404
290 0.0792927
295 0.091491
300 0.111597
305 0.188968
310 0.0792116
315 0.0815061
320 0.122041
325 0.118694
330 0.113571
335 0.140831
340 0.141326
345 0.122424
350 0.182578
355 0.243572
360 0.266333
365 0.340863
370 0.755384
375 21.5331
380 405.749
385 689.457
390 195.053
395 35.0088
400 14.972
405 13.9211
410 16.703
415 18.6105
420 17.419
425 15.6987
430 15.7063
435 16.9009
440 16.2752
445 14.448
450 12.5081
455 10.6419
460 9.43962
465 8.90068
470 7.95296
475 8.01305
480 6.95178
485 6.52222
490 6.07537
495 5.44152
500 4.94207
505 4.43698
510 3.8827
515 3.57317
520 3.23136
525 2.90046
530 2.5842
535 2.13984
540 1.91379
545 1.78195
550 1.54349
555 1.28145
560 1.24082
565 1.03097
570 0.830962
575 0.737846
580 0.529309
585 0.361314
590 0.296178
595 0.260687
600 0.411883
Ex : 393
200 0.0606061
205 0.0635726
210 0.112933
215 0.0748933
220 0.136325
225 0.0646236
230 0.0958659
235 0.0740348
240 0.0867384
245 0.094544
250 0.105331
255 0.0750185
260 0.11216
265 0.0957349
270 0.129045
275 0.116266
280 0.0934514
285 0.184042
290 0.104416
295 0.0764733
300 0.121679
305 0.0755331
310 0.0746574
315 0.0781293
320 0.0959895
325 0.109748
330 0.1743
335 0.108055
340 0.129045
345 0.135854
350 0.204586
355 0.21062
360 0.201162
365 0.246194
370 0.37102
375 0.924136
380 19.6989
385 406.295
390 714.889
395 204.503
400 35.9502
405 15.2619
410 15.1874
415 18.9552
420 18.9763
425 16.4558
430 13.5282
435 14.0523
440 16.4959
445 15.3064
450 13.078
455 10.6832
460 9.53086
465 8.50758
470 7.97624
475 7.6795
480 6.84271
485 6.02215
490 5.56984
495 5.17817
500 4.59229
505 4.28977
510 3.61593
515 3.49569
520 3.11729
525 2.69097
530 2.40079
535 2.27045
540 1.93973
545 1.52645
550 1.54453
555 1.33706
560 1.11351
565 0.994029
570 0.855759
575 0.591579
580 0.600121
585 0.445703
590 0.289463
595 0.255776
600 0.0291063
Ex : 398
200 0.0725305
205 0.0530503
210 0.0738016
215 0.0860189
220 0.0762847
225 0.0516614
230 0.0902583
235 0.117902
240 0.0701638
245 0.100721
250 0.115047
255 0.122974
260 0.067545
265 0.0483492
270 0.122587
275 0.12134
280 0.067325
285 0.0441393
290 0.0833677
295 0.0780467
300 0.0960335
305 0.0945555
310 0.0962462
315 0.113371
320 0.107536
325 0.0621061
330 0.107779
335 0.149606
340 0.105926
345 0.170418
350 0.128674
355 0.160314
360 0.197443
365 0.25139
370 0.278063
375 0.407696
380 0.958391
385 21.3391
390 412.987
395 719.198
400 200.236
405 30.0204
410 11.6985
415 12.073
420 12.263
425 10.2661
430 8.28741
435 8.29095
440 9.70477
445 11.6984
450 10.6111
455 8.58426
460 7.14452
465 6.46037
470 6.20301
475 6.08609
480 5.59312
485 5.01735
490 4.67018
495 4.24117
500 4.04607
505 3.59823
510 3.34716
515 3.04641
520 2.57219
525 2.35117
530 2.27707
535 1.99488
540 1.78113
545 1.58248
550 1.30949
555 1.16009
560 0.998965
565 0.968871
570 0.780453
575 0.658474
580 0.513818
585 0.437245
590 0.322507
595 0.249667
600 0.0284111
Ex : 403
200 0.0830001
205 0.107058
210 0.0991919
215 0.0658841
220 0.121253
225 0.10101
230 0.114946
235 0.106865
240 0.0782649
245 0.0496127
250 0.0639448
255 0.125854
260 0.103504
265 0.0836958
270 0.0891217
275 0.0957455
280 0.0589728
285 0.0468406
290 0.156998
295 0.119609
300 0.136432
305 0.113383
310 0.084867
315 0.102443
320 0.0595605
325 0.0707725
330 0.0784906
335 0.0969186
340 0.10145
345 0.141649
350 0.14192
355 0.140375
360 0.145601
365 0.200925
370 0.254929
375 0.318584
380 0.390939
385 0.891778
390 23.7571
395 428.01
400 722.66
405 198.385
410 27.3575
415 8.52165
420 6.47607
425 5.87455
430 5.34705
435 5.28251
440 5.48402
445 6.11818
450 7.83214
455 8.09988
460 6.56279
465 5.66376
470 5.45876
475 4.99691
480 4.64819
485 4.30792
490 3.93012
495 3.90589
500 3.71599
505 3.49782
510 3.17595
515 3.05003
520 2.716
525 2.38339
530 2.09022
535 1.8878
540 1.63727
545 1.53722
550 1.41313
555 1.19564
560 0.921659
565 0.775607
570 0.761822
575 0.55338
580 0.530681
585 0.409751
590 0.291078
595 0.259044
600 0.186222
Ex : 408
200 0.0379481
205 0.0633164
210 0.0559704
215 0.0635949
220 0.101622
225 0.11184
230 0.0873408
235 0.0746948
240 0.102982
245 0.074797
250 0.0749896
255 0.0878961
260 0.129495
265 0.0855108
270 0.150873
275 0.0881759
280 0.117314
285 0.146685
290 0.0921076
295 0.0824778
300 0.0681187
305 0.0946104
310 0.0439498
315 0.0763485
320 0.103662
325 0.110884
330 0.0900973
335 0.100462
340 0.103867
345 0.156745
350 0.163559
355 0.107096
360 0.104743
365 0.211775
370 0.175395
375 0.206525
380 0.246672
385 0.451989
390 0.911203
395 21.5314
400 436.066
405 724.063
410 192.844
415 27.1179
420 7.83773
425 5.43628
430 5.11505
435 5.0349
440 5.60026
445 5.71589
450 5.66283
455 6.80004
460 7.86085
465 6.55568
470 5.89523
475 4.98013
480 4.89785
485 4.37253
490 4.29509
495 3.78558
500 3.64977
505 3.37705
510 3.03835
515 2.84708
520 2.64496
525 2.1847
530 2.17596
535 2.11472
540 1.69568
545 1.63671
550 1.39029
555 1.29162
560 1.08181
565 0.900726
570 0.752095
575 0.655552
580 0.490338
585 0.397126
590 0.317387
595 0.279949
600 0.104447
Ex : 413
200 0.105359
205 0.0661496
210 0.136743
215 0.0878243
220 0.125608
225 0.123374
230 0.0786615
235 0.106127
240 0.109113
245 0.071941
250 0.110996
255 0.0788518
260 0.0946865
265 0.146733
270 0.159219
275 0.132334
280 0.151967
285 0.0927104
290 0.137717
295 0.0899397
300 0.102181
305 0.0802624
310 0.118685
315 0.0619607
320 0.0869632
325 0.0855891
330 0.0621778
335 0.0476223
340 0.11354
345 0.093316
350 0.134014
355 0.116909
360 0.118001
365 0.12207
370 0.141822
375 0.175447
380 0.206377
385 0.356861
390 0.534186
395 0.820848
400 25.01
405 448.676
410 734.117
415 192.798
420 26.6091
425 6.94251
430 4.51549
435 4.7735
440 5.34965
445 5.34532
450 4.86566
455 4.71991
460 5.34321
465 7.18579
470 6.26416
475 5.39338
480 4.88031
485 4.12739
490 3.66593
495 3.7322
500 3.43173
505 3.28304
510 2.91896
515 2.68619
520 2.45027
525 2.20881
530 2.00667
535 1.81993
540 1.67633
545 1.56458
550 1.28101
555 1.18561
560 0.992562
565 0.934198
570 0.829808
575 0.581088
580 0.484293
585 0.353256
590 0.347631
595 0.242514
600 0.131681
Ex : 418
200 0.0743808
205 0.0894304
210 0.0914961
215 0.0520078
220 0.0798914
225 0.096505
230 0.084524
235 0.0940591
240 0.0953817
245 0.0602832
250 0.130598
255 0.079113
260 0.107688
265 0.066348
270 0.0841261
275 0.0623376
280 0.068736
285 0.135386
290 0.0836246
295 0.0804828
300 0.0806096
305 0.105284
310 0.074553
315 0.0654763
320 0.0991588
325 0.0712694
330 0.103263
335 0.117097
340 0.0846346
345 0.0889642
350 0.152485
355 0.152883
360 0.16902
365 0.113636
370 0.102682
375 0.147029
380 0.213276
385 0.199439
390 0.263431
395 0.48771
400 0.874415
405 23.6469
410 444.204
415 742.65
420 198.528
425 25.7624
430 5.7286
435 3.42649
440 3.42634
445 3.67331
450 3.23744
455 3.11683
460 2.89208
465 3.72042
470 5.50415
475 5.55487
480 4.29672
485 3.85884
490 3.37237
495 3.02326
500 2.88592
505 2.57544
510 2.50389
515 2.17718
520 2.06328
525 1.9641
530 1.84262
535 1.64487
540 1.54235
545 1.41905
550 1.22624
555 1.12297
560 0.918513
565 0.866333
570 0.675951
575 0.634497
580 0.495523
585 0.349032
590 0.321597
595 0.238499
600 0.322542
Ex : 423
200 0.0546078
205 0.115177
210 0.0603756
215 0.0840222
220 0.101844
225 0.0936479
230 0.0555252
235 0.148083
240 0.0770902
245 0.0845165
250 0.078279
255 0.0930017
260 0.0603582
265 0.0918956
270 0.080874
275 0.0425159
280 0.0668794
285 0.0794688
290 0.0552048
295 0.0763129
300 0.0873801
305 0.130612
310 0.0875063
315 0.0566408
320 0.0916027
325 0.149105
330 0.119953
335 0.0743433
340 0.0807832
345 0.0876501
350 0.121551
355 0.127885
360 0.146538
365 0.101863
370 0.109834
375 0.168732
380 0.156254
385 0.208327
390 0.185062
395 0.298534
400 0.402156
405 0.945185
410 24.2548
415 465.498
420 737.891
425 186.898
430 23.4588
435 4.39677
440 2.21677
445 2.25002
450 2.32211
455 2.1182
460 1.8725
465 2.0417
470 2.31782
475 4.02966
480 5.05999
485 3.6167
490 3.13025
495 2.7684
500 2.38864
505 2.23648
510 2.08901
515 1.96476
520 1.72734
525 1.77031
530 1.58084
535 1.57101
540 1.39355
545 1.20868
550 1.10851
555 1.00657
560 0.874048
565 0.918303
570 0.721668
575 0.6036
580 0.45737
585 0.29344
590 0.251845
595 0.241823
600 0.170832
Ex : 428
200 0.0889666
205 0.0712122
210 0.0911522
215 0.0840107
220 0.0834577
225 0.0949744
230 0.0746002
235 0.0757467
240 0.0713071
245 0.0869008
250 0.0907545
255 0.0969281
260 0.0978765
265 0.0917148
270 0.0640478
275 0.0854912
280 0.112762
285 0.0683926
290 0.0531057
295 0.0984105
300 0.0901
305 0.0856474
310 0.111116
315 0.111867
320 0.0741494
325 0.128281
330 0.1027
335 0.0935252
340 0.121948
345 0.100743
350 0.0867328
355 0.11669
360 0.0948366
365 0.0790596
370 0.0804567
375 0.126074
380 0.17291
385 0.139942
390 0.254483
395 0.275602
400 0.336771
405 0.521656
410 0.913997
415 26.9572
420 468.511
425 753.232
430 196.456
435 24.2728
440 4.25443
445 1.72661
450 1.53747
455 1.76621
460 1.67656
465 1.56305
470 1.46211
475 1.90408
480 3.08924
485 4.59071
490 3.56836
495 2.78762
500 2.62355
505 2.09519
510 1.86228
515 1.77855
520 1.73285
525 1.60422
530 1.46863
535 1.28731
540 1.15118
545 1.1613
550 0.97456
555 0.941841
560 0.942026
565 0.747987
570 0.639093
575 0.610577
580 0.414821
585 0.402528
590 0.318076
595 0.328268
600 0.0373556
Ex : 433
200 0.066656
205 0.0755237
210 0.0853962
215 0.074488
220 0.08266
225 0.129441
230 0.0466895
235 0.0693545
240 0.0783793
245 0.107775
250 0.103794
255 0.0941184
260 0.0715913
265 0.0936332
270 0.0708825
275 0.112103
280 0.0836248
285 0.0745016
290 0.140807
295 0.0732415
300 0.061373
305 0.0859258
310 0.131939
315 0.0953687
320 0.0680754
325 0.105053
330 0.0612159
335 0.0922096
340 0.112267
345 0.0716936
350 0.121452
355 0.141849
360 0.123662
365 0.124345
370 0.172883
375 0.131807
380 0.0926275
385 0.12755
390 0.168631
395 0.184685
400 0.252088
405 0.33266
410 0.487397
415 0.974653
420 28.0373
425 499.235
430 774.101
435 196.469
440 24.154
445 4.11771
450 1.71889
455 1.69472
460 1.69581
465 1.5513
470 1.51073
475 1.64792
480 1.82785
485 2.53481
490 3.93981
495 3.84282
500 2.61434
505 2.24787
510 1.90138
515 1.69882
520 1.71435
525 1.55574
530 1.42086
535 1.29386
540 1.32763
545 1.07887
550 0.912013
555 0.87565
560 0.812658
565 0.767321
570 0.696561
575 0.587091
580 0.315453
585 0.371303
590 0.219895
595 0.20282
600 0.0230802
Ex : 438
200 0.0666242
205 0.0742451
210 0.0781077
215 0.0705874
220 0.0446164
225 0.0815707
230 0.0719208
235 0.12848
240 0.0978571
245 0.0717044
250 0.120268
255 0.125899
260 0.0785978
265 0.0856919
270 0.0478829
275 0.0906581
280 0.0504137
285 0.0780945
290 0.0840911
295 0.0949882
300 0.0691029
305 0.105516
310 0.0905838
315 0.0921486
320 0.113793
325 0.0813787
330 0.0750589
335 0.106811
340 0.0782871
345 0.0634325
350 0.0946806
355 0.115653
360 0.114054
365 0.151628
370 0.117905
375 0.103511
380 0.108575
385 0.118328
390 0.0811269
395 0.128416
400 0.16332
405 0.205921
410 0.364863
415 0.502295
420 0.807877
425 27.9395
430 495.405
435 805.968
440 203.981
445 25.0696
450 4.2904
455 1.55757
460 1.53946
465 1.80781
470 1.63784
475 1.43136
480 1.39226
485 1.42175
490 1.93236
495 3.55161
500 3.81054
505 2.53776
510 2.10458
515 2.14936
520 1.63297
525 1.55436
530 1.33357
535 1.40714
540 1.21455
545 1.1217
550 0.974434
555 0.889029
560 0.870261
565 0.636108
570 0.617672
575 0.427559
580 0.337193
585 0.321265
590 0.214729
595 0.235902
600 0.0268448
Ex : 443
200 0.117072
205 0.125858
210 0.0975131
215 0.0946366
220 0.0991187
225 0.120134
230 0.11813
235 0.0844817
240 0.125171
245 0.0783475
250 0.116389
255 0.105786
260 0.103856
265 0.0938164
270 0.0990891
275 0.083898
280 0.076658
285 0.14212
290 0.114324
295 0.0741074
300 0.0731835
305 0.0773301
310 0.080182
315 0.111485
320 0.10531
325 0.084994
330 0.0735909
335 0.0980523
340 0.108304
345 0.0862224
350 0.0956681
355 0.142723
360 0.112901
365 0.0956758
370 0.100023
375 0.132983
380 0.104052
385 0.146382
390 0.119044
395 0.181425
400 0.177477
405 0.172818
410 0.233965
415 0.34278
420 0.514102
425 0.905175
430 31.7283
435 537.414
440 830.998
445 208.316
450 25.4759
455 4.43122
460 1.7346
465 1.62852
470 1.76811
475 1.59614
480 1.53416
485 1.43228
490 1.44413
495 1.67998
500 2.84508
505 3.72421
510 2.62262
515 2.12796
520 2.04265
525 1.67869
530 1.2585
535 1.10449
540 1.07754
545 1.12687
550 0.995993
555 0.886034
560 0.796698
565 0.695898
570 0.592602
575 0.475543
580 0.396227
585 0.357631
590 0.250651
595 0.220631
600 1.10693
Ex : 448
200 0.120827
205 0.108893
210 0.0763555
215 0.0465147
220 0.064236
225 0.0605875
230 0.0495955
235 0.0997753
240 0.0590262
245 0.0925061
250 0.0832754
255 0.0601573
260 0.0760592
265 0.0657079
270 0.135387
275 0.0996308
280 0.104915
285 0.0433912
290 0.0913845
295 0.102688
300 0.0498877
305 0.0568425
310 0.0698042
315 0.0653384
320 0.0750234
325 0.0965888
330 0.0564286
335 0.108331
340 0.14428
345 0.0820739
350 0.109051
355 0.163589
360 0.101929
365 0.12917
370 0.123976
375 0.103962
380 0.131909
385 0.099316
390 0.154362
395 0.128938
400 0.123151
405 0.13743
410 0.132722
415 0.272214
420 0.250818
425 0.482051
430 0.857976
435 32.9459
440 572.356
445 881.595
450 220.497
455 27.1062
460 4.50977
465 1.85295
470 1.57286
475 1.64463
480 1.46337
485 1.34896
490 1.28845
495 1.37879
500 1.50617
505 2.1336
510 3.56046
515 3.02216
520 2.06885
525 1.81008
530 1.38995
535 1.17685
540 1.05923
545 1.07963
550 0.987675
555 0.86404
560 0.828905
565 0.696641
570 0.557882
575 0.495642
580 0.373791
585 0.418098
590 0.366343
595 0.252913
600 0.449653
Ex : 453
200 0.0768185
205 0.113652
210 0.0802321
215 0.0515773
220 0.138979
225 0.130374
230 0.110103
235 0.0800733
240 0.0471497
245 0.0639157
250 0.0970368
255 0.120404
260 0.162214
265 0.137948
270 0.0748457
275 0.0938623
280 0.049203
285 0.0888211
290 0.105533
295 0.114778
300 0.0486791
305 0.0526465
310 0.103172
315 0.110096
320 0.100301
325 0.127764
330 0.0808786
335 0.0821693
340 0.09579
345 0.0543762
350 0.0940468
355 0.100689
360 0.106447
365 0.10964
370 0.134127
375 0.177424
380 0.128976
385 0.115523
390 0.138432
395 0.128921
400 0.126814
405 0.204144
410 0.21974
415 0.203697
420 0.240681
425 0.31016
430 0.508896
435 0.872698
440 33.7537
445 622.101
450 922.983
455 218.463
460 26.7905
465 4.45081
470 1.64055
475 1.5095
480 1.56757
485 1.50224
490 1.37452
495 1.27794
500 1.28595
505 1.23072
510 1.57336
515 2.89604
520 3.13533
525 2.10558
530 1.78511
535 1.50153
540 1.18381
545 1.04271
550 1.01471
555 0.844974
560 0.735823
565 0.793086
570 0.590317
575 0.463623
580 0.456066
585 0.411587
590 0.282949
595 0.328092
600 0.389004
Ex : 458
200 0.0879266
205 0.0767107
210 0.0797533
215 0.100179
220 0.102718
225 0.0970183
230 0.124976
235 0.0756584
240 0.0845162
245 0.0655087
250 0.0767837
255 0.105402
260 0.0624219
265 0.0674445
270 0.0897
275 0.0815097
280 0.0648238
285 0.0808332
290 0.0562965
295 0.0841228
300 0.0575773
305 0.0916254
310 0.10722
315 0.139495
320 0.0573468
325 0.0639752
330 0.0709398
335 0.103753
340 0.0962268
345 0.116152
350 0.124036
355 0.136661
360 0.138936
365 0.119146
370 0.112871
375 0.143822
380 0.133877
385 0.127223
390 0.113935
395 0.112163
400 0.158964
405 0.171573
410 0.150788
415 0.254492
420 0.217195
425 0.271163
430 0.305927
435 0.549239
440 1.04751
445 38.3851
450 646.974
455 975.436
460 237.763
465 29.1702
470 4.7863
475 1.7746
480 1.457
485 1.61275
490 1.53072
495 1.32586
500 1.03848
505 1.03348
510 1.18505
515 1.27346
520 2.36766
525 3.01716
530 2.35543
535 1.56726
540 1.5071
545 1.30485
550 0.929986
555 0.89803
560 0.803317
565 0.749855
570 0.558811
575 0.476612
580 0.484987
585 0.390705
590 0.359716
595 0.2675
600 0.605747
Ex : 463
200 0.0544886
205 0.0740657
210 0.0656259
215 0.0833948
220 0.0949433
225 0.10399
230 0.0900588
235 0.0663553
240 0.0381142
245 0.0644376
250 0.0492434
255 0.0757994
260 0.100914
265 0.0772225
270 0.0942558
275 0.0851583
280 0.0896601
285 0.100483
290 0.063189
295 0.0900134
300 0.0620528
305 0.0765112
310 0.117672
315 0.122833
320 0.0904731
325 0.136432
330 0.0553003
335 0.0832016
340 0.0950625
345 0.103234
350 0.0781365
355 0.103773
360 0.100904
365 0.0991984
370 0.0701473
375 0.0715427
380 0.108041
385 0.108645
390 0.141303
395 0.160445
400 0.134688
405 0.115575
410 0.124767
415 0.154087
420 0.145196
425 0.234025
430 0.205516
435 0.282321
440 0.54171
445 1.01003
450 37.4567
455 671.168
460 1044.35
465 254.999
470 30.9749
475 4.94303
480 1.74662
485 1.29291
490 1.53084
495 1.42415
500 1.32822
505 1.12451
510 1.12204
515 1.25198
520 1.25686
525 1.97027
530 2.92584
535 2.5549
540 1.56967
545 1.43337
550 1.28552
555 0.982581
560 0.880935
565 0.757201
570 0.634849
575 0.62557
580 0.456233
585 0.388731
590 0.353487
595 0.297998
600 0.0768785
Ex : 468
200 0.0666883
205 0.0472324
210 0.0796316
215 0.0830138
220 0.0939631
225 0.0803687
230 0.0595035
235 0.0924691
240 0.0708782
245 0.0696157
250 0.057401
255 0.0828669
260 0.0696354
265 0.0803353
270 0.0933292
275 0.0930527
280 0.0640863
285 0.103835
290 0.0870609
295 0.0773414
300 0.0586683
305 0.0772619
310 0.0748568
315 0.181661
320 0.10666
325 0.060738
330 0.106416
335 0.0789166
340 0.146753
345 0.106827
350 0.0871677
355 0.067791
360 0.0925933
365 0.0931096
370 0.0592874
375 0.0984209
380 0.096414
385 0.11609
390 0.146525
395 0.135335
400 0.140677
405 0.143056
410 0.122573
415 0.19177
420 0.102996
425 0.160158
430 0.200605
435 0.256683
440 0.324378
445 0.609515
450 0.952188
455 41.9407
460 704.543
465 1120.58
470 271.586
475 32.726
480 5.12577
485 1.84705
490 1.31739
495 1.43879
500 1.41237
505 1.13659
510 0.993835
515 1.02215
520 1.12414
525 1.14377
530 1.47689
535 2.51549
540 2.70043
545 1.65295
550 1.43275
555 1.27338
560 0.954486
565 0.792119
570 0.67044
575 0.58376
580 0.430275
585 0.398208
590 0.373362
595 0.309539
600 0.298888
Ex : 473
200 0.0984409
205 0.0833823
210 0.0786342
215 0.0824127
220 0.0749819
225 0.0831551
230 0.131749
235 0.0965704
240 0.121069
245 0.0621504
250 0.100054
255 0.117777
260 0.0790837
265 0.0551282
270 0.0768225
275 0.090971
280 0.0505026
285 0.0966586
290 0.108763
295 0.0708425
300 0.14374
305 0.0933807
310 0.117062
315 0.0858802
320 0.082481
325 0.0783405
330 0.0781846
335 0.0981925
340 0.0895148
345 0.105653
350 0.133359
355 0.0867076
360 0.139109
365 0.111945
370 0.0631402
375 0.145307
380 0.156169
385 0.0838932
390 0.0954378
395 0.143287
400 0.103309
405 0.1451
410 0.131009
415 0.149909
420 0.140119
425 0.215539
430 0.229811
435 0.230047
440 0.284176
445 0.363847
450 0.552193
455 1.05281
460 49.1635
465 773.949
470 1104.87
475 258.521
480 31.3523
485 5.04897
490 1.71486
495 1.33631
500 1.36876
505 1.27718
510 1.26364
515 1.04257
520 1.11691
525 1.06951
530 1.16699
535 1.28199
540 2.10748
545 2.64419
550 1.80362
555 1.29184
560 1.27872
565 1.00856
570 0.736586
575 0.623091
580 0.45442
585 0.397172
590 0.348388
595 0.268032
600 0.0459133
Ex : 478
200 0.0938701
205 0.0950575
210 0.0854276
215 0.126792
220 0.0933212
225 0.171396
230 0.0982326
235 0.0836575
240 0.101726
245 0.0875214
250 0.0912327
255 0.100034
260 0.0729701
265 0.0910953
270 0.0970375
275 0.0857718
280 0.148785
285 0.109584
290 0.134144
295 0.0750283
300 0.0931444
305 0.0777895
310 0.0937364
315 0.101958
320 0.087943
325 0.0983221
330 0.109237
335 0.084587
340 0.107253
345 0.146272
350 0.132947
355 0.100859
360 0.114829
365 0.110254
370 0.106087
375 0.105572
380 0.0763326
385 0.100638
390 0.123827
395 0.143147
400 0.107576
405 0.125611
410 0.12363
415 0.120805
420 0.177984
425 0.143953
430 0.191346
435 0.18791
440 0.241623
445 0.338179
450 0.519373
455 0.706357
460 1.38879
465 54.322
470 808.963
475 1152.35
480 281.225
485 34.1678
490 5.3358
495 1.71644
500 1.19522
505 1.3292
510 1.39889
515 1.07707
520 1.14815
525 1.11143
530 1.03338
535 1.20007
540 1.04429
545 1.68942
550 2.40585
555 1.94193
560 1.2944
565 1.07671
570 0.862526
575 0.672918
580 0.515918
585 0.500692
590 0.386804
595 0.335243
600 0.0908258
Ex : 483
200 0.06797
205 0.124358
210 0.079703
215 0.0814688
220 0.0698358
225 0.0605892
230 0.0611445
235 0.0811779
240 0.0678066
245 0.111015
250 0.0736162
255 0.0758506
260 0.0726846
265 0.0689093
270 0.0919614
275 0.0666249
280 0.128781
285 0.113617
290 0.131658
295 0.0734473
300 0.0843458
305 0.0929486
310 0.0680931
315 0.121636
320 0.0817907
325 0.0830778
330 0.150365
335 0.098012
340 0.130184
345 0.1002
350 0.104656
355 0.0886742
360 0.138086
365 0.113802
370 0.124887
375 0.094836
380 0.140877
385 0.120404
390 0.161686
395 0.110984
400 0.119359
405 0.144951
410 0.169788
415 0.143546
420 0.12239
425 0.18144
430 0.193343
435 0.160534
440 0.21239
445 0.305564
450 0.349586
455 0.38305
460 0.754847
465 1.38646
470 44.3609
475 811.777
480 1258.17
485 303.768
490 36.618
495 5.42379
500 1.65282
505 1.07184
510 1.13597
515 1.36998
520 1.32047
525 1.20878
530 0.963753
535 1.09327
540 1.03427
545 0.969172
550 1.07256
555 2.01183
560 2.1241
565 1.27947
570 0.780721
575 0.965234
580 0.585848
585 0.470166
590 0.397421
595 0.361489
600 0.41785
Ex : 488
200 0.096138
205 0.0807682
210 0.167783
215 0.0730153
220 0.0737443
225 0.110182
230 0.0762206
235 0.118917
240 0.095396
245 0.179393
250 0.0929965
255 0.0798199
260 0.0908778
265 0.0957756
270 0.111122
275 0.0434662
280 0.0730344
285 0.0795224
290 0.139134
295 0.116178
300 0.0732593
305 0.128977
310 0.115185
315 0.106483
320 0.0863157
325 0.103962
330 0.117653
335 0.0799232
340 0.141273
345 0.143099
350 0.143447
355 0.1146
360 0.13617
365 0.110983
370 0.104387
375 0.127207
380 0.143507
385 0.134186
390 0.121346
395 0.142511
400 0.0954949
405 0.140442
410 0.14588
415 0.129712
420 0.159246
425 0.141045
430 0.143241
435 0.190811
440 0.225802
445 0.241369
450 0.250252
455 0.388207
460 0.56418
465 0.858021
470 1.30697
475 54.2944
480 891.03
485 1267.1
490 298.803
495 36.116
500 5.59297
505 1.80419
510 1.11485
515 1.26325
520 1.36613
525 1.29837
530 1.18807
535 1.11136
540 1.04424
545 0.80191
550 0.934167
555 1.06402
560 1.52545
565 1.96668
570 1.31706
575 0.810005
580 0.697038
585 0.613794
590 0.492725
595 0.366445
600 0.345054
Ex : 493
200 0.0518612
205 0.08591
210 0.151042
215 0.162291
220 0.108716
225 0.0800682
230 0.0907462
235 0.124834
240 0.10013
245 0.120056
250 0.14538
255 0.113683
260 0.0600168
265 0.0984084
270 0.0986646
275 0.0891561
280 0.0978471
285 0.102761
290 0.106157
295 0.071877
300 0.137694
305 0.0910838
310 0.05862
315 0.137047
320 0.0912647
325 0.093666
330 0.175062
335 0.0807164
340 0.131092
345 0.156031
350 0.120464
355 0.0880898
360 0.0808236
365 0.0805354
370 0.10625
375 0.136393
380 0.151439
385 0.0868139
390 0.112782
395 0.120548
400 0.0992069
405 0.160628
410 0.175317
415 0.190784
420 0.159049
425 0.131165
430 0.191338
435 0.229758
440 0.245217
445 0.265223
450 0.275547
455 0.214206
460 0.353672
465 0.61611
470 0.881032
475 1.51699
480 51.6404
485 904.688
490 1358.02
495 314.857
500 37.5803
505 5.52976
510 1.77878
515 1.17566
520 1.18475
525 1.39819
530 1.31271
535 1.16866
540 0.955576
545 0.991461
550 1.05054
555 0.840493
560 0.863849
565 1.13498
570 1.53429
575 1.34421
580 0.878478
585 0.52673
590 0.476061
595 0.480477
600 0.225875
Ex : 498
200 0.0952808
205 0.110509
210 0.168165
215 0.196449
220 0.102189
225 0.141963
230 0.13549
235 0.097522
240 0.0704801
245 0.115442
250 0.0872326
255 0.0843285
260 0.103097
265 0.111508
270 0.0848386
275 0.148959
280 0.129635
285 0.0812664
290 0.120514
295 0.122754
300 0.072919
305 0.0759885
310 0.124429
315 0.164183
320 0.160701
325 0.167809
330 0.107851
335 0.170323
340 0.106551
345 0.226855
350 0.114239
355 0.132552
360 0.169998
365 0.154443
370 0.117086
375 0.0824597
380 0.140947
385 0.1045
390 0.14295
395 0.149153
400 0.125084
405 0.154711
410 0.140798
415 0.0866592
420 0.105535
425 0.15345
430 0.184864
435 0.17166
440 0.22731
445 0.225995
450 0.218219
455 0.261207
460 0.364347
465 0.443886
470 0.540308
475 0.877896
480 1.4913
485 63.8633
490 965.759
495 1345.37
500 314.597
505 37.8357
510 5.77641
515 1.72612
520 1.17577
525 1.15248
530 1.18112
535 1.29417
540 1.15712
545 0.980236
550 1.01939
555 0.844542
560 0.843083
565 0.800961
570 0.829887
575 1.19014
580 1.21901
585 0.750345
590 0.510237
595 0.475822
600 0.656027
Ex : 503
200 0.105512
205 0.0828994
210 0.099924
215 0.0790107
220 0.110301
225 0.0932271
230 0.177869
235 0.10794
240 0.147547
245 0.0895789
250 0.139584
255 0.12905
260 0.0831004
265 0.113788
270 0.117811
275 0.168483
280 0.145025
285 0.131699
290 0.15473
295 0.110843
300 0.186305
305 0.115893
310 0.113593
315 0.0964135
320 0.101896
325 0.143024
330 0.190429
335 0.133304
340 0.176684
345 0.132714
350 0.148887
355 0.169277
360 0.165572
365 0.148541
370 0.11828
375 0.170252
380 0.166401
385 0.133443
390 0.176947
395 0.157232
400 0.144614
405 0.133241
410 0.211448
415 0.227705
420 0.181344
425 0.181117
430 0.171105
435 0.165037
440 0.212461
445 0.244107
450 0.186163
455 0.220639
460 0.248749
465 0.323739
470 0.365961
475 0.728832
480 0.986486
485 1.49065
490 59.2817
495 988.02
500 1410.27
505 325.609
510 39.3934
515 5.79151
520 2.02475
525 1.35933
530 1.11489
535 1.32341
540 1.10372
545 1.11922
550 0.895037
555 0.953102
560 0.789685
565 0.746157
570 0.741051
575 0.654574
580 0.808898
585 0.983424
590 0.705319
595 0.440591
600 0.448344
Ex : 508
200 0.137646
205 0.101573
210 0.101129
215 0.12476
220 0.0886224
225 0.112894
230 0.133359
235 0.104319
240 0.106569
245 0.0954945
250 0.11688
255 0.111022
260 0.0876174
265 0.126938
270 0.144105
275 0.133428
280 0.127668
285 0.0886534
290 0.112287
295 0.131087
300 0.149535
305 0.124588
310 0.106967
315 0.117402
320 0.158013
325 0.124594
330 0.133024
335 0.0837198
340 0.121606
345 0.107819
350 0.139453
355 0.169116
360 0.113758
365 0.138045
370 0.201311
375 0.236069
380 0.136586
385 0.178125
390 0.135368
395 0.160847
400 0.156218
405 0.133158
410 0.180596
415 0.111734
420 0.10528
425 0.183476
430 0.186105
435 0.124807
440 0.129023
445 0.186879
450 0.152092
455 0.18209
460 0.297909
465 0.317556
470 0.268491
475 0.403052
480 0.606192
485 0.875153
490 1.63356
495 63.4011
500 998.828
505 1411.1
510 342.001
515 41.1342
520 6.19712
525 2.02789
530 1.44273
535 1.25107
540 1.16448
545 1.01221
550 1.12089
555 0.954995
560 0.761504
565 0.826046
570 0.758799
575 0.611995
580 0.48496
585 0.565796
590 0.95127
595 0.739601
600 0.665481
Ex : 513
200 0.135222
205 0.160141
210 0.0678948
215 0.124479
220 0.163242
225 0.116656
230 0.156263
235 0.108519
240 0.1401
245 0.0947187
250 0.0661165
255 0.138324
260 0.0852294
265 0.0954956
270 0.130407
275 0.158565
280 0.145925
285 0.104014
290 0.0980961
295 0.0989247
300 0.118268
305 0.089433
310 0.185065
315 0.0968889
320 0.0808235
325 0.117537
330 0.103636
335 0.142887
340 0.126178
345 0.150061
350 0.17973
355 0.0919865
360 0.101844
365 0.146581
370 0.146006
375 0.153084
380 0.205198
385 0.238811
390 0.1092
395 0.144308
400 0.160579
405 0.132079
410 0.24298
415 0.205809
420 0.123047
425 0.186289
430 0.180967
435 0.197296
440 0.212987
445 0.18905
450 0.263703
455 0.218408
460 0.201677
465 0.244526
470 0.376796
475 0.311358
480 0.379607
485 0.540733
490 0.955427
495 1.53869
500 58.2209
505 988.642
510 1452.89
515 358.193
520 43.0854
525 6.39976
530 1.8846
535 1.09758
540 1.03091
545 1.16576
550 1.16381
555 0.965702
560 0.944438
565 0.696021
570 0.702829
575 0.562458
580 0.486074
585 0.517794
590 0.589867
595 0.633977
600 0.772864
Ex : 518
200 0.130082
205 0.240002
210 0.156887
215 0.0939537
220 0.123474
225 0.1293
230 0.0738421
235 0.225979
240 0.11852
245 0.124518
250 0.122984
255 0.0801952
260 0.144068
265 0.0843901
270 0.124387
275 0.127406
280 0.114269
285 0.0969055
290 0.0845015
295 0.152202
300 0.172005
305 0.112459
310 0.0955043
315 0.072964
320 0.130489
325 0.149998
330 0.112596
335 0.225584
340 0.177597
345 0.0934033
350 0.146631
355 0.154362
360 0.23324
365 0.197781
370 0.174749
375 0.151594
380 0.138297
385 0.14285
390 0.108437
395 0.158317
400 0.106626
405 0.148089
410 0.164163
415 0.101384
420 0.0918784
425 0.148755
430 0.191308
435 0.276367
440 0.203193
445 0.120502
450 0.20005
455 0.244059
460 0.162341
465 0.269916
470 0.235467
475 0.366723
480 0.212628
485 0.420857
490 0.470126
495 0.846332
500 1.5468
505 61.7918
510 977.517
515 1453.41
520 357.947
525 43.1693
530 6.4275
535 1.96685
540 1.34148
545 1.1714
550 1.16472
555 1.18951
560 0.986035
565 0.803322
570 0.586097
575 0.439225
580 0.471784
585 0.471571
590 0.401709
595 0.338124
600 0.218287
Ex : 523
200 0.159585
205 0.16923
210 0.103093
215 0.153697
220 0.164297
225 0.190182
230 0.160068
235 0.134682
240 0.14504
245 0.127648
250 0.10811
255 0.196771
260 0.144543
265 0.105364
270 0.106594
275 0.125351
280 0.138537
285 0.196781
290 0.154468
295 0.104801
300 0.0859078
305 0.0758035
310 0.111764
315 0.0705348
320 0.0931678
325 0.118947
330 0.211162
335 0.176812
340 0.119969
345 0.151382
350 0.123542
355 0.0956743
360 0.111105
365 0.1441
370 0.132247
375 0.166163
380 0.185935
385 0.112186
390 0.144519
395 0.182366
400 0.253581
405 0.181068
410 0.152214
415 0.183795
420 0.157617
425 0.120263
430 0.123701
435 0.279885
440 0.186964
445 0.172865
450 0.213977
455 0.235441
460 0.196944
465 0.279174
470 0.318572
475 0.27616
480 0.261378
485 0.280735
490 0.392651
495 0.553702
500 1.03739
505 1.53391
510 55.1954
515 943.023
520 1438.32
525 369.585
530 44.2215
535 6.50569
540 1.91407
545 1.20016
550 0.945882
555 0.929904
560 1.03965
565 0.886275
570 0.73306
575 0.562502
580 0.516854
585 0.46725
590 0.313029
595 0.302136
600 0.369464
Ex : 528
200 0.18236
205 0.139892
210 0.164682
215 0.0928248
220 0.165967
225 0.158371
230 0.108336
235 0.139286
240 0.136514
245 0.0970185
250 0.106122
255 0.20235
260 0.136623
265 0.121337
270 0.124665
275 0.169646
280 0.122977
285 0.124416
290 0.125613
295 0.192296
300 0.11775
305 0.0986991
310 0.103258
315 0.081631
320 0.103749
325 0.145413
330 0.13268
335 0.10561
340 0.155618
345 0.171727
350 0.185102
355 0.129172
360 0.205629
365 0.158759
370 0.155304
375 0.194438
380 0.17569
385 0.152361
390 0.176783
395 0.14695
400 0.1369
405 0.223682
410 0.200324
415 0.185582
420 0.170863
425 0.145889
430 0.194493
435 0.175117
440 0.1998
445 0.162859
450 0.23984
455 0.267823
460 0.291675
465 0.264648
470 0.259447
475 0.189557
480 0.260031
485 0.322892
490 0.384837
495 0.412846
500 0.536568
505 0.932272
510 1.60351
515 52.5139
520 953.79
525 1465.63
530 369.229
535 44.3499
540 6.32443
545 1.77713
550 1.11344
555 0.853911
560 0.939521
565 0.869814
570 0.726153
575 0.518493
580 0.40574
585 0.330442
590 0.434088
595 0.425528
600 0.682711
Ex : 533
200 0.114697
205 0.0879662
210 0.109322
215 0.107702
220 0.101957
225 0.105163
230 0.167605
235 0.118184
240 0.108783
245 0.183297
250 0.11695
255 0.183423
260 0.125724
265 0.160024
270 0.175949
275 0.118044
280 0.12885
285 0.208446
290 0.201252
295 0.0745644
300 0.15454
305 0.148286
310 0.114672
315 0.213767
320 0.107436
325 0.123141
330 0.166242
335 0.12811
340 0.115872
345 0.181126
350 0.204574
355 0.142488
360 0.149488
365 0.170268
370 0.167653
375 0.148849
380 0.137235
385 0.129279
390 0.162115
395 0.163839
400 0.221595
405 0.16308
410 0.117598
415 0.259587
420 0.204619
425 0.255037
430 0.199033
435 0.177746
440 0.186969
445 0.177172
450 0.19965
455 0.17463
460 0.164472
465 0.207088
470 0.184096
475 0.287438
480 0.243887
485 0.253747
490 0.402318
495 0.357705
500 0.3868
505 0.544271
510 0.906526
515 1.43202
520 52.6619
525 916.813
530 1460.88
535 380.22
540 45.64
545 6.64929
550 1.94748
555 1.2063
560 0.704483
565 0.768371
570 0.693075
575 0.68117
580 0.641788
585 0.516638
590 0.506876
595 0.288287
600 0.328207
Ex : 538
200 0.163629
205 0.210254
210 0.125735
215 0.0893515
220 0.152984
225 0.136427
230 0.113605
235 0.134847
240 0.193947
245 0.122033
250 0.0814269
255 0.175436
260 0.20287
265 0.108411
270 0.108861
275 0.134758
280 0.133104
285 0.0830936
290 0.101068
295 0.141234
300 0.119766
305 0.148441
310 0.163276
315 0.144687
320 0.118976
325 0.104257
330 0.122172
335 0.198471
340 0.142031
345 0.184936
350 0.140161
355 0.156628
360 0.131753
365 0.180032
370 0.13106
375 0.128571
380 0.0967275
385 0.145099
390 0.284188
395 0.208375
400 0.19797
405 0.131502
410 0.192091
415 0.147426
420 0.0907234
425 0.181712
430 0.176916
435 0.214749
440 0.193216
445 0.149296
450 0.192378
455 0.219236
460 0.144811
465 0.16533
470 0.256709
475 0.2596
480 0.202068
485 0.203068
490 0.241058
495 0.338523
500 0.394888
505 0.507979
510 0.586532
515 0.705615
520 1.50547
525 46.0361
530 886.986
535 1463.92
540 397.353
545 47.5051
550 6.74448
555 1.80798
560 0.868384
565 0.705102
570 0.662032
575 0.46695
580 0.545408
585 0.466038
590 0.455247
595 0.474813
600 0.916154
Ex : 543
200 0.109108
205 0.104052
210 0.0898891
215 0.166396
220 0.216277
225 0.188136
230 0.0989253
235 0.0909944
240 0.148703
245 0.129046
250 0.207281
255 0.191887
260 0.196239
265 0.124863
270 0.120912
275 0.130698
280 0.182801
285 0.264817
290 0.101833
295 0.159093
300 0.158187
305 0.152533
310 0.212405
315 0.133499
320 0.23301
325 0.137453
330 0.112262
335 0.148688
340 0.197559
345 0.184629
350 0.119556
355 0.0987919
360 0.187893
365 0.116833
370 0.244741
375 0.138641
380 0.173537
385 0.140572
390 0.191727
395 0.179307
400 0.152921
405 0.146766
410 0.170429
415 0.198876
420 0.179138
425 0.164905
430 0.206918
435 0.290057
440 0.226185
445 0.173243
450 0.206178
455 0.185561
460 0.163672
465 0.186723
470 0.154778
475 0.127245
480 0.199387
485 0.213247
490 0.330747
495 0.278418
500 0.350366
505 0.302611
510 0.36209
515 0.546362
520 0.842429
525 1.54749
530 41.3472
535 852.294
540 1468.96
545 405.535
550 48.7382
555 6.7837
560 1.57518
565 0.982027
570 0.739651
575 0.49982
580 0.419501
585 0.42014
590 0.532929
595 0.404331
600 0.351098
Ex : 548
200 0.111428
205 0.154805
210 0.101553
215 0.158994
220 0.198145
225 0.202501
230 0.141952
235 0.106183
240 0.20143
245 0.159242
250 0.128608
255 0.147833
260 0.170291
265 0.155932
270 0.222459
275 0.147893
280 0.154762
285 0.107941
290 0.182978
295 0.220136
300 0.118771
305 0.201322
310 0.212413
315 0.181606
320 0.210697
325 0.11477
330 0.138492
335 0.181717
340 0.136794
345 0.194693
350 0.21434
355 0.112147
360 0.109176
365 0.178145
370 0.198511
375 0.209038
380 0.118439
385 0.170237
390 0.201662
395 0.0955123
400 0.171468
405 0.148581
410 0.158933
415 0.138811
420 0.138065
425 0.18779
430 0.207945
435 0.262041
440 0.201689
445 0.173538
450 0.184372
455 0.213723
460 0.210645
465 0.239337
470 0.169048
475 0.251049
480 0.186983
485 0.235624
490 0.224953
495 0.272897
500 0.326294
505 0.326323
510 0.37202
515 0.411293
520 0.590356
525 0.853429
530 1.3952
535 45.8798
540 855.754
545 1427.72
550 394.758
555 47.128
560 6.43185
565 1.39666
570 0.794361
575 0.48345
580 0.496352
585 0.470399
590 0.463805
595 0.417694
600 0.0526251
Ex : 553
200 0.103704
205 0.121422
210 0.159168
215 0.151106
220 0.0916189
225 0.158586
230 0.223547
235 0.156446
240 0.108929
245 0.160159
250 0.146203
255 0.121683
260 0.199599
265 0.141974
270 0.17944
275 0.21924
280 0.14054
285 0.112417
290 0.189582
295 0.145617
300 0.168516
305 0.128905
310 0.0884258
315 0.101505
320 0.0843279
325 0.17976
330 0.185822
335 0.126691
340 0.163725
345 0.080832
350 0.145153
355 0.243
360 0.114599
365 0.152348
370 0.187049
375 0.128278
380 0.24821
385 0.190887
390 0.123737
395 0.162574
400 0.248155
405 0.242392
410 0.188052
415 0.20547
420 0.147018
425 0.12284
430 0.155716
435 0.220056
440 0.173824
445 0.201271
450 0.140363
455 0.298998
460 0.243107
465 0.229499
470 0.199828
475 0.148662
480 0.355653
485 0.153461
490 0.243879
495 0.2539
500 0.218301
505 0.214689
510 0.333635
515 0.310597
520 0.465046
525 0.655504
530 0.763023
535 1.37511
540 39.6436
545 809.832
550 1411.12
555 399.697
560 47.7314
565 6.45067
570 1.27279
575 0.658555
580 0.576131
585 0.435564
590 0.589048
595 0.501295
600 0.403137
Ex : 558
200 0.0876637
205 0.138456
210 0.267046
215 0.197825
220 0.161875
225 0.236755
230 0.19277
235 0.163187
240 0.119751
245 0.186539
250 0.163747
255 0.248295
260 0.176128
265 0.177131
270 0.204164
275 0.129598
280 0.145288
285 0.280208
290 0.136169
295 0.179049
300 0.137695
305 0.188552
310 0.110555
315 0.165816
320 0.128547
325 0.152287
330 0.190041
335 0.215067
340 0.207929
345 0.237161
350 0.154416
355 0.13871
360 0.131731
365 0.193577
370 0.221649
375 0.192023
380 0.168417
385 0.17563
390 0.120944
395 0.15771
400 0.110614
405 0.299551
410 0.189444
415 0.350098
420 0.248784
425 0.116982
430 0.145145
435 0.174412
440 0.321421
445 0.206159
450 0.18124
455 0.187981
460 0.237108
465 0.230492
470 0.241736
475 0.254137
480 0.258524
485 0.32538
490 0.295535
495 0.190575
500 0.29877
505 0.206388
510 0.300231
515 0.244049
520 0.433294
525 0.314523
530 0.71633
535 0.760472
540 1.13447
545 36.7584
550 778.156
555 1401.07
560 398.217
565 47.7088
570 6.45682
575 1.43109
580 0.708685
585 0.551943
590 0.347743
595 0.494368
600 0.792981
Ex : 563
200 0.109833
205 0.178595
210 0.151341
215 0.272855
220 0.13567
225 0.128775
230 0.14232
235 0.115209
240 0.138607
245 0.186973
250 0.191352
255 0.112518
260 0.173678
265 0.128496
270 0.14822
275 0.136079
280 0.19142
285 0.195795
290 0.0977815
295 0.26171
300 0.185668
305 0.13335
310 0.135275
315 0.23617
320 0.179513
325 0.192248
330 0.151118
335 0.145106
340 0.211029
345 0.249928
350 0.198011
355 0.16455
360 0.161653
365 0.193116
370 0.22559
375 0.139287
380 0.232795
385 0.174657
390 0.222789
395 0.155197
400 0.209832
405 0.216062
410 0.293464
415 0.248301
420 0.190687
425 0.320599
430 0.166776
435 0.176819
440 0.148796
445 0.126993
450 0.197574
455 0.222185
460 0.17994
465 0.220621
470 0.279541
475 0.200776
480 0.153121
485 0.222803
490 0.197813
495 0.237315
500 0.349721
505 0.316119
510 0.345191
515 0.339979
520 0.317164
525 0.356869
530 0.408929
535 0.566321
540 0.904014
545 1.2149
550 36.775
555 759.762
560 1347.02
565 388.981
570 46.305
575 6.08791
580 1.21444
585 0.801385
590 0.425864
595 0.381936
600 0.764021
Ex : 568
200 0.134372
205 0.193517
210 0.151136
215 0.174158
220 0.179444
225 0.184741
230 0.139581
235 0.155566
240 0.172422
245 0.162384
250 0.197944
255 0.137337
260 0.0936451
265 0.14483
270 0.236733
275 0.111933
280 0.134651
285 0.187904
290 0.120535
295 0.213297
300 0.138117
305 0.195019
310 0.0965572
315 0.170162
320 0.203682
325 0.2613
330 0.172013
335 0.24728
340 0.206153
345 0.175195
350 0.163405
355 0.114163
360 0.11314
365 0.18488
370 0.18358
375 0.158497
380 0.287905
385 0.192441
390 0.234362
395 0.163724
400 0.168956
405 0.258204
410 0.238996
415 0.202763
420 0.167374
425 0.205227
430 0.23014
435 0.20497
440 0.161333
445 0.167548
450 0.1648
455 0.281847
460 0.297962
465 0.2385
470 0.188505
475 0.263381
480 0.257038
485 0.200274
490 0.16748
495 0.202676
500 0.259577
505 0.222216
510 0.239557
515 0.242531
520 0.240458
525 0.280623
530 0.25857
535 0.346678
540 0.452637
545 0.657095
550 1.16608
555 28.3403
560 685.795
565 1298.57
570 393.951
575 47.0582
580 6.10354
585 1.18874
590 0.609482
595 0.362835
600 0.271472
Ex : 573
200 0.102762
205 0.176683
210 0.102172
215 0.117666
220 0.139364
225 0.162457
230 0.131336
235 0.207948
240 0.236166
245 0.182674
250 0.155816
255 0.204092
260 0.158815
265 0.154237
270 0.1672
275 0.149326
280 0.266751
285 0.286694
290 0.190009
295 0.194722
300 0.173793
305 0.306182
310 0.262594
315 0.0944628
320 0.156075
325 0.171139
330 0.162861
335 0.203561
340 0.18189
345 0.154864
350 0.154493
355 0.267028
360 0.199727
365 0.17229
370 0.21345
375 0.192424
380 0.222296
385 0.21872
390 0.203262
395 0.119194
400 0.0958742
405 0.221844
410 0.217408
415 0.147659
420 0.190836
425 0.239324
430 0.176451
435 0.130785
440 0.248571
445 0.23707
450 0.161148
455 0.170162
460 0.226609
465 0.300582
470 0.248435
475 0.243377
480 0.199287
485 0.312242
490 0.238077
495 0.203769
500 0.163603
505 0.227128
510 0.221192
515 0.339812
520 0.296728
525 0.319219
530 0.265221
535 0.383223
540 0.394605
545 0.430933
550 0.735427
555 1.22907
560 23.8832
565 603.914
570 1227.27
575 380.684
580 45.5765
585 5.7979
590 1.33673
595 0.562774
600 1.54105
Ex : 578
200 0.185638
205 0.216639
210 0.195372
215 0.149041
220 0.0893421
225 0.121178
230 0.249495
235 0.244755
240 0.198438
245 0.173354
250 0.226276
255 0.142979
260 0.14068
265 0.165737
270 0.138221
275 0.0664023
280 0.172739
285 0.250064
290 0.123516
295 0.138932
300 0.180571
305 0.192503
310 0.128192
315 0.218216
320 0.142867
325 0.12361
330 0.160303
335 0.201979
340 0.15833
345 0.179014
350 0.110974
355 0.0963231
360 0.147849
365 0.168007
370 0.211211
375 0.143553
380 0.150416
385 0.204077
390 0.236829
395 0.13262
400 0.189975
405 0.14652
410 0.145658
415 0.137586
420 0.159868
425 0.200924
430 0.207028
435 0.203501
440 0.173421
445 0.158086
450 0.247569
455 0.141255
460 0.357706
465 0.219105
470 0.232642
475 0.273294
480 0.211666
485 0.253989
490 0.177039
495 0.236538
500 0.170591
505 0.275773
510 0.248969
515 0.23533
520 0.239457
525 0.383416
530 0.348086
535 0.28573
540 0.470243
545 0.534507
550 0.508144
555 0.639078
560 0.977082
565 21.7216
570 538.596
575 1067.22
580 323.117
585 38.5545
590 4.94801
595 0.985348
600 0.721017
Ex : 583
200 0.222704
205 0.164548
210 0.10209
215 0.152095
220 0.158987
225 0.139169
230 0.154396
235 0.248007
240 0.208216
245 0.177239
250 0.143071
255 0.141199
260 0.232772
265 0.127922
270 0.152859
275 0.148894
280 0.111549
285 0.087092
290 0.200269
295 0.0900871
300 0.181347
305 0.208317
310 0.174182
315 0.162252
320 0.28159
325 0.140455
330 0.155192
335 0.257578
340 0.142123
345 0.12747
350 0.139126
355 0.241689
360 0.182708
365 0.198807
370 0.220867
375 0.186045
380 0.216381
385 0.236129
390 0.166468
395 0.185079
400 0.188202
405 0.162702
410 0.121818
415 0.262868
420 0.186581
425 0.1905
430 0.183858
435 0.249155
440 0.339524
445 0.237723
450 0.181543
455 0.157977
460 0.291401
465 0.175262
470 0.227973
475 0.187557
480 0.147795
485 0.249604
490 0.222032
495 0.223418
500 0.236418
505 0.287288
510 0.225708
515 0.212348
520 0.209435
525 0.273405
530 0.178233
535 0.225457
540 0.27709
545 0.290617
550 0.421419
555 0.466894
560 0.563487
565 0.73071
570 17.6502
575 488.104
580 930.804
585 269.942
590 32.1243
595 4.2503
600 0.885328
Ex : 588
200 0.142635
205 0.179151
210 0.145062
215 0.247664
220 0.222833
225 0.154525
230 0.0660838
235 0.134849
240 0.250514
245 0.182556
250 0.251944
255 0.133628
260 0.149241
265 0.170118
270 0.161743
275 0.157594
280 0.109435
285 0.102633
290 0.151662
295 0.192319
300 0.17505
305 0.123807
310 0.117812
315 0.229959
320 0.150071
325 0.154658
330 0.184743
335 0.161283
340 0.139241
345 0.206407
350 0.204981
355 0.222361
360 0.145751
365 0.297141
370 0.234495
375 0.179516
380 0.204894
385 0.210912
390 0.155536
395 0.121995
400 0.266002
405 0.173485
410 0.242181
415 0.284701
420 0.219146
425 0.168215
430 0.159077
435 0.178008
440 0.144347
445 0.163306
450 0.226948
455 0.154306
460 0.24751
465 0.273803
470 0.173702
475 0.217045
480 0.290083
485 0.22719
490 0.218413
495 0.398163
500 0.292052
505 0.223564
510 0.26358
515 0.146301
520 0.312358
525 0.231082
530 0.345697
535 0.203638
540 0.262056
545 0.32646
550 0.44694
555 0.384517
560 0.550269
565 0.60022
570 0.86323
575 16.6542
580 402.139
585 790.606
590 235.948
595 28.1136
600 3.80929
Ex : 593
200 0.0990438
205 0.172413
210 0.232129
215 0.225428
220 0.14791
225 0.109701
230 0.17571
235 0.138478
240 0.216049
245 0.174294
250 0.234475
255 0.113126
260 0.202487
265 0.149965
270 0.179713
275 0.150076
280 0.118128
285 0.140112
290 0.183934
295 0.118247
300 0.290728
305 0.141661
310 0.169956
315 0.17073
320 0.142566
325 0.105477
330 0.290807
335 0.197754
340 0.217826
345 0.185026
350 0.218471
355 0.181146
360 0.205226
365 0.124263
370 0.202927
375 0.191901
380 0.16218
385 0.160628
390 0.21695
395 0.219779
400 0.162268
405 0.115333
410 0.20642
415 0.126394
420 0.126304
425 0.291793
430 0.27235
435 0.209784
440 0.295172
445 0.269686
450 0.227999
455 0.24051
460 0.129512
465 0.271789
470 0.271994
475 0.204962
480 0.214063
485 0.237036
490 0.281142
495 0.252858
500 0.149533
505 0.190258
510 0.274576
515 0.317284
520 0.303414
525 0.190465
530 0.33052
535 0.261848
540 0.300956
545 0.30439
550 0.296662
555 0.335859
560 0.381022
565 0.449248
570 0.540536
575 0.99814
580 13.8789
585 358.986
590 679.39
595 206.584
600 29.0989
Ex : 598
200 0.129801
205 0.149818
210 0.22126
215 0.146301
220 0.215027
225 0.246062
230 0.239454
235 0.208131
240 0.176224
245 0.156172
250 0.165697
255 0.167987
260 0.216219
265 0.181509
270 0.103421
275 0.145003
280 0.141461
285 0.16016
290 0.237389
295 0.199359
300 0.25165
305 0.228835
310 0.156924
315 0.140923
320 0.161452
325 0.102134
330 0.124704
335 0.159921
340 0.157251
345 0.275353
350 0.168141
355 0.105725
360 0.164295
365 0.115453
370 0.161458
375 0.299291
380 0.309326
385 0.187281
390 0.218246
395 0.196532
400 0.295186
405 0.202012
410 0.243318
415 0.134644
420 0.244063
425 0.186139
430 0.171126
435 0.143623
440 0.136347
445 0.240743
450 0.163735
455 0.222282
460 0.183582
465 0.170162
470 0.298569
475 0.150021
480 0.157734
485 0.181917
490 0.294325
495 0.204261
500 0.28986
505 0.368515
510 0.199618
515 0.27195
520 0.170741
525 0.220603
530 0.168707
535 0.317257
540 0.295285
545 0.274411
550 0.304372
555 0.271792
560 0.252311
565 0.352941
570 0.415696
575 0.576432
580 0.778474
585 13.7426
590 328.45
595 593.527
600 388.155
Ex : 603
200 0.372422
205 0.303173
210 0.129994
215 0.143325
220 0.141565
225 0.152273
230 0.152143
235 0.125417
240 0.183634
245 0.145021
250 0.343652
255 0.225304
260 0.184467
265 0.192957
270 0.186809
275 0.261188
280 0.177834
285 0.187684
290 0.239317
295 0.239255
300 0.190433
305 0.216971
310 0.268827
315 0.176064
320 0.23739
325 0.14821
330 0.132874
335 0.213164
340 0.217883
345 0.258737
350 0.268958
355 0.241666
360 0.181692
365 0.372686
370 0.170564
375 0.232875
380 0.272512
385 0.304313
390 0.264087
395 0.218763
400 0.156021
405 0.261188
410 0.207772
415 0.186187
420 0.292442
425 0.272917
430 0.218578
435 0.329698
440 0.243266
445 0.167517
450 0.155564
455 0.228277
460 0.188832
465 0.215121
470 0.240563
475 0.162958
480 0.310311
485 0.213434
490 0.265932
495 0.259435
500 0.242444
505 0.216737
510 0.185473
515 0.185101
520 0.334752
525 0.318982
530 0.262368
535 0.258378
540 0.271366
545 0.283059
550 0.280125
555 0.266223
560 0.218123
565 0.215173
570 0.426229
575 0.427931
580 0.373452
585 0.442992
590 11.8317
595 278.374
600 550.032
