File format V 1.0
jeu. 5. janv. 19:41:17 2017
Operator : 
Comments : 

=============================================
SpectroFluorometer parameters
Mode : 3D measurement
Data : Fluorescence
Phospho. : Ordinary
Spectrum : Fluorescence

Scan speed : 2400 nm/mn
Response : 100 ms
PM Voltage : 700 V
Shutter : On

Lambda Ex. Start : 203
Lambda Ex. End : 603
Lambda Ex. Step : 5
Ex. Slit : 5 nm

Lambda Em. Start : 200
Lambda Em. End : 600
Lambda Em. Step : 5
Em. Slit : 5 nm

Repetition : 1
Decal lambda em : 10
=============================================
DATA
Ex : 203
200 4.79558
205 5.24858
210 6.49179
215 3.54149
220 5.35938
225 8.33036
230 10.2759
235 7.93954
240 6.90241
245 3.65875
250 5.68693
255 5.4646
260 3.8695
265 9.89147
270 5.86378
275 3.16657
280 5.26084
285 2.87448
290 3.35668
295 7.53253
300 3.81853
305 3.147
310 3.10859
315 4.52923
320 4.45902
325 4.00071
330 4.81383
335 5.06843
340 3.48858
345 2.87836
350 8.65039
355 7.09171
360 4.37715
365 6.31313
370 6.61485
375 5.5587
380 4.54523
385 3.86322
390 4.62447
395 7.70287
400 5.27455
405 2.95636
410 7.25081
415 6.28648
420 5.05509
425 6.19448
430 4.27674
435 5.07376
440 9.64916
445 8.31736
450 5.64083
455 5.4888
460 4.97951
465 4.74603
470 3.85729
475 5.61496
480 7.91232
485 6.33643
490 4.5941
495 5.55516
500 6.49306
505 3.99015
510 8.21655
515 4.59194
520 6.96535
525 4.59439
530 5.07304
535 5.05954
540 7.20349
545 5.77837
550 9.50898
555 4.70701
560 4.15291
565 4.95108
570 5.25356
575 7.45114
580 4.26762
585 3.52114
590 4.61379
595 6.13584
600 6.45856
Ex : 208
200 10.5089
205 6.22105
210 5.38202
215 4.18288
220 7.58458
225 4.76858
230 4.91632
235 1.60919
240 6.57254
245 4.9863
250 5.44658
255 4.50508
260 6.79248
265 7.35619
270 3.06755
275 3.71871
280 3.61872
285 3.22248
290 2.07729
295 6.61905
300 9.16209
305 4.16879
310 8.25889
315 11.8754
320 6.20103
325 5.69301
330 3.83608
335 8.89153
340 6.78779
345 4.61801
350 3.58967
355 5.90634
360 4.0189
365 8.40869
370 5.62189
375 4.99164
380 4.97064
385 6.96195
390 10.1784
395 7.25457
400 4.91303
405 7.95786
410 6.06641
415 5.47132
420 8.18141
425 6.05358
430 4.91169
435 6.88613
440 8.02806
445 5.76409
450 5.74793
455 3.62407
460 3.55592
465 9.1257
470 6.46931
475 7.68379
480 4.46612
485 5.31377
490 5.5902
495 6.78864
500 8.51098
505 7.43672
510 13.0075
515 6.04358
520 9.52225
525 5.75727
530 3.39433
535 3.83085
540 7.3161
545 4.54968
550 3.52983
555 4.36142
560 6.31443
565 7.5026
570 5.24129
575 4.70324
580 5.68891
585 4.95578
590 4.19641
595 8.96643
600 8.70078
Ex : 213
200 8.26437
205 4.89619
210 2.90536
215 3.76156
220 6.74998
225 6.10583
230 5.25676
235 5.07907
240 4.88087
245 4.78116
250 4.56892
255 5.04821
260 3.72484
265 3.23278
270 4.27873
275 5.67612
280 5.39966
285 5.29362
290 5.49531
295 6.48637
300 3.2667
305 3.95594
310 4.97526
315 5.22122
320 7.52612
325 4.01659
330 5.95594
335 5.33652
340 3.62037
345 4.59984
350 6.57834
355 6.61969
360 7.34074
365 7.01192
370 6.2402
375 4.76882
380 9.59575
385 9.76827
390 3.59191
395 3.73201
400 5.98779
405 3.37165
410 4.51127
415 5.39856
420 7.01355
425 3.99257
430 3.31904
435 4.49933
440 3.79523
445 5.9641
450 5.79839
455 8.9518
460 5.78975
465 5.80781
470 6.86433
475 6.37793
480 5.12357
485 4.79631
490 4.64898
495 7.65494
500 4.23389
505 3.29136
510 6.61699
515 4.24442
520 6.80996
525 7.98274
530 6.44444
535 5.70973
540 8.75633
545 6.1475
550 4.63991
555 3.05294
560 6.33555
565 8.94145
570 8.66822
575 5.69535
580 5.08481
585 7.29901
590 4.42179
595 4.85901
600 4.27499
Ex : 218
200 6.23656
205 5.31601
210 5.51315
215 7.04328
220 3.69949
225 2.61814
230 3.58955
235 5.66662
240 5.60661
245 3.18585
250 4.60402
255 5.55964
260 7.69174
265 3.96958
270 3.33063
275 4.5545
280 5.38962
285 3.51588
290 4.30337
295 5.18256
300 3.67836
305 7.53842
310 6.23618
315 4.94056
320 4.2351
325 4.10271
330 3.95296
335 5.09678
340 8.18979
345 6.79957
350 9.72987
355 8.12831
360 5.37181
365 6.09302
370 3.27054
375 6.95896
380 5.26751
385 3.75207
390 6.092
395 3.79749
400 4.53386
405 3.99707
410 6.42162
415 5.38717
420 5.75856
425 5.7921
430 8.64981
435 3.37408
440 5.18811
445 5.48583
450 5.20858
455 4.08447
460 4.99258
465 5.04239
470 5.2779
475 8.29105
480 8.32852
485 9.30935
490 7.98787
495 5.80302
500 8.03484
505 5.71715
510 6.06951
515 2.66337
520 8.68793
525 5.65086
530 3.98414
535 5.18472
540 6.43989
545 7.14797
550 6.90037
555 9.23024
560 4.15455
565 3.66088
570 6.2061
575 5.8308
580 7.03182
585 4.00998
590 5.01325
595 3.67971
600 0.418737
Ex : 223
200 4.27374
205 7.08145
210 5.36979
215 7.74428
220 7.70996
225 7.44836
230 4.71687
235 3.35606
240 3.52436
245 6.57959
250 7.65464
255 4.51265
260 6.62882
265 6.30788
270 3.05462
275 3.42894
280 3.34742
285 2.79442
290 3.9574
295 4.11756
300 5.35779
305 5.10706
310 3.68288
315 7.51816
320 7.1293
325 4.94206
330 5.40881
335 2.99301
340 6.12982
345 6.4554
350 5.40542
355 6.73838
360 6.06214
365 5.87977
370 4.43673
375 4.46617
380 7.30921
385 6.33361
390 6.17391
395 5.58854
400 6.13042
405 6.53054
410 4.92986
415 4.64897
420 7.1781
425 4.19805
430 4.5001
435 3.80297
440 6.73702
445 5.75512
450 5.32626
455 2.44288
460 4.36018
465 10.3539
470 7.70438
475 7.45841
480 4.76995
485 7.62176
490 7.03027
495 5.07756
500 3.24655
505 9.14758
510 7.36612
515 5.54619
520 6.46735
525 3.4359
530 7.41364
535 3.74656
540 5.06963
545 4.64667
550 4.06864
555 8.26763
560 5.42953
565 2.84088
570 2.76034
575 7.13311
580 5.17381
585 5.01471
590 3.94219
595 5.53571
600 0.629943
Ex : 228
200 6.46842
205 6.46048
210 4.08252
215 5.09144
220 5.8555
225 4.10402
230 2.75638
235 4.3941
240 3.93215
245 4.84664
250 5.82729
255 4.29705
260 3.73529
265 4.12484
270 2.78751
275 4.33467
280 4.1795
285 4.65973
290 3.71211
295 6.5635
300 4.3012
305 4.52879
310 4.69119
315 6.00931
320 4.94147
325 6.02885
330 5.89251
335 3.97829
340 8.40979
345 5.29634
350 3.78007
355 6.10874
360 6.91295
365 5.03482
370 6.29084
375 4.34554
380 7.93862
385 5.5761
390 3.3911
395 9.66062
400 5.78137
405 3.41344
410 6.07572
415 4.28495
420 4.84665
425 6.68192
430 6.02864
435 3.26408
440 4.30117
445 4.57476
450 6.75755
455 4.70319
460 6.68131
465 7.61699
470 3.68652
475 6.17491
480 4.01118
485 4.37838
490 6.52
495 3.40056
500 4.62264
505 4.59273
510 7.21087
515 3.81325
520 6.55859
525 7.1518
530 4.35866
535 3.70613
540 6.09532
545 5.593
550 4.96351
555 4.67868
560 3.77877
565 4.87056
570 3.94184
575 2.55968
580 4.98435
585 12.6916
590 4.92248
595 4.04489
600 12.8671
Ex : 233
200 3.25
205 2.87715
210 7.63859
215 4.49503
220 4.23018
225 6.97282
230 5.30827
235 2.25774
240 4.29113
245 2.6126
250 3.01795
255 5.37492
260 5.00593
265 3.48014
270 5.69429
275 3.53619
280 4.41986
285 3.20469
290 2.18349
295 3.8438
300 3.08707
305 5.6134
310 3.90798
315 5.91039
320 4.19588
325 3.28379
330 5.96918
335 3.73577
340 1.87079
345 5.61615
350 2.4325
355 6.7303
360 5.77293
365 5.13646
370 5.37541
375 7.70133
380 5.35005
385 4.72149
390 6.96762
395 3.46587
400 6.30385
405 5.93266
410 4.74982
415 7.77053
420 9.70432
425 6.16512
430 5.15852
435 4.9089
440 6.59843
445 4.44485
450 3.33322
455 3.47466
460 4.31742
465 8.67491
470 4.93816
475 5.07648
480 4.53636
485 5.41058
490 4.96037
495 4.36758
500 6.32867
505 6.10162
510 6.80282
515 5.1102
520 3.99298
525 2.4388
530 2.87
535 2.47049
540 3.76133
545 3.70458
550 6.51899
555 5.39126
560 5.32003
565 4.43553
570 2.96018
575 5.22568
580 5.65475
585 3.60219
590 6.01642
595 4.04174
600 0.755336
Ex : 238
200 2.62212
205 2.0784
210 3.43079
215 4.35371
220 4.94214
225 3.22495
230 4.98369
235 5.80946
240 4.12535
245 4.53927
250 5.12481
255 5.77322
260 2.19251
265 3.62024
270 6.3748
275 4.49179
280 5.85488
285 2.30823
290 6.2219
295 3.96992
300 5.03963
305 4.71175
310 4.6018
315 4.21309
320 6.67491
325 5.40906
330 6.4409
335 4.86982
340 3.42531
345 2.59015
350 3.71353
355 4.5582
360 4.09589
365 4.36698
370 2.57535
375 3.72406
380 5.18613
385 3.93804
390 4.55122
395 4.36858
400 3.41175
405 6.2037
410 4.89386
415 3.63353
420 3.55023
425 5.13978
430 2.89978
435 4.00488
440 4.11978
445 4.03257
450 6.7558
455 5.02104
460 5.25612
465 3.41086
470 4.05956
475 5.18968
480 3.59094
485 3.79535
490 3.54537
495 7.98069
500 3.77343
505 6.3477
510 2.43803
515 7.82689
520 4.14553
525 3.85114
530 4.80481
535 6.00961
540 2.96786
545 1.61561
550 6.97266
555 5.76764
560 4.14744
565 2.56878
570 3.13771
575 3.62494
580 2.98012
585 2.82876
590 3.43167
595 3.9045
600 0.444317
Ex : 243
200 2.79608
205 2.65611
210 1.58521
215 2.63244
220 4.6791
225 4.41786
230 2.68684
235 6.39329
240 4.48841
245 3.91491
250 2.51915
255 3.59982
260 3.95103
265 2.88667
270 6.03299
275 3.81411
280 4.2397
285 3.00473
290 1.5534
295 3.45001
300 4.42937
305 2.92981
310 5.00547
315 4.65839
320 3.72413
325 2.07915
330 3.46102
335 4.54226
340 6.30912
345 3.9222
350 3.23911
355 3.83574
360 3.26407
365 4.12303
370 3.40383
375 5.799
380 3.88895
385 3.94485
390 3.0399
395 6.61969
400 6.09153
405 4.02098
410 3.37097
415 4.30174
420 2.15248
425 4.33458
430 4.98683
435 5.54929
440 3.19477
445 4.49319
450 3.33855
455 4.60077
460 3.75367
465 5.08147
470 4.08975
475 3.80911
480 5.26394
485 3.26835
490 3.05525
495 3.10395
500 3.70632
505 3.28262
510 6.92864
515 5.08764
520 4.0964
525 4.17242
530 3.06884
535 3.31378
540 2.67333
545 3.10996
550 1.89872
555 4.17641
560 4.28761
565 3.19949
570 1.77788
575 3.26605
580 2.92264
585 4.09277
590 3.51184
595 2.00084
600 0.227688
Ex : 248
200 1.59934
205 3.85867
210 4.47358
215 4.31975
220 1.94067
225 2.62207
230 1.88173
235 2.84505
240 3.76
245 3.45932
250 3.86914
255 2.7361
260 1.12101
265 2.01681
270 4.36132
275 2.76394
280 2.32447
285 2.86222
290 2.69367
295 4.38073
300 2.74567
305 4.20987
310 3.99254
315 3.10715
320 2.75324
325 4.55378
330 3.99297
335 1.88684
340 3.47107
345 3.76675
350 2.23455
355 3.51265
360 2.70932
365 3.04332
370 3.48459
375 4.74871
380 2.91273
385 2.47964
390 3.62297
395 4.03876
400 2.49562
405 4.0375
410 3.52897
415 2.94282
420 1.88128
425 3.38166
430 3.54192
435 2.02233
440 3.89272
445 2.84923
450 3.90597
455 2.81385
460 2.74657
465 3.93494
470 2.28606
475 2.93957
480 4.1947
485 2.41331
490 3.6849
495 5.13867
500 5.12955
505 3.31618
510 3.17071
515 3.7272
520 2.20562
525 4.01881
530 3.16712
535 3.8444
540 2.12822
545 4.3599
550 3.62983
555 3.14755
560 2.99268
565 3.60552
570 2.68994
575 4.66708
580 2.85775
585 5.21872
590 2.6693
595 4.43937
600 0.758385
Ex : 253
200 2.30328
205 0.963168
210 2.13118
215 4.06365
220 2.51658
225 1.95107
230 1.45341
235 2.01585
240 3.43393
245 2.77394
250 3.97063
255 1.55895
260 1.88426
265 3.39567
270 2.23738
275 1.888
280 1.25614
285 1.12177
290 2.62379
295 1.83699
300 2.45005
305 3.09154
310 1.54496
315 1.57977
320 2.40138
325 2.37013
330 2.45133
335 2.03408
340 3.11966
345 2.79453
350 2.35652
355 2.60249
360 3.01931
365 3.51318
370 2.28924
375 2.3893
380 2.93789
385 2.983
390 3.69757
395 2.34448
400 2.62504
405 2.98951
410 4.94444
415 4.41679
420 2.51601
425 2.74659
430 2.46476
435 1.89383
440 2.85448
445 2.21672
450 3.1843
455 2.80494
460 2.88743
465 3.10502
470 2.53384
475 2.44125
480 1.37253
485 2.97477
490 2.58868
495 2.14711
500 2.76185
505 2.22074
510 2.10882
515 3.5431
520 2.16083
525 1.81079
530 2.27306
535 1.34046
540 5.41052
545 3.88959
550 2.79352
555 2.38074
560 1.67387
565 1.7334
570 1.70887
575 1.88402
580 2.25717
585 3.0131
590 3.0555
595 2.84359
600 0.32359
Ex : 258
200 1.48451
205 2.06245
210 1.44934
215 2.25399
220 1.80285
225 1.96202
230 1.88
235 1.32819
240 2.53486
245 2.68563
250 1.98587
255 1.18588
260 2.42807
265 2.33356
270 2.35142
275 1.76915
280 2.36193
285 1.28102
290 2.51351
295 3.04142
300 2.63433
305 2.062
310 2.48787
315 1.45164
320 2.14692
325 2.43981
330 3.61155
335 1.5302
340 3.04327
345 2.66561
350 2.91004
355 1.61732
360 1.46933
365 1.4075
370 1.08362
375 2.79547
380 2.92683
385 1.72993
390 1.7719
395 1.95461
400 1.30961
405 3.64783
410 2.95243
415 1.8028
420 1.91678
425 2.19303
430 3.99653
435 2.16838
440 2.6393
445 1.93611
450 2.88091
455 2.47693
460 1.61215
465 2.62809
470 2.23111
475 1.32198
480 2.26759
485 1.63764
490 1.5399
495 1.78828
500 2.5712
505 4.17315
510 2.71981
515 3.22981
520 1.96034
525 1.42746
530 1.46925
535 1.89112
540 1.20184
545 2.68435
550 2.89828
555 2.93952
560 2.00218
565 2.42874
570 2.38901
575 1.35089
580 2.30262
585 0.953507
590 1.3817
595 1.49857
600 0.170531
Ex : 263
200 1.99655
205 1.84834
210 1.32192
215 2.09091
220 1.93637
225 1.52634
230 0.743394
235 1.50252
240 1.78727
245 0.886022
250 1.9458
255 2.25709
260 1.32872
265 1.2801
270 1.52186
275 1.92118
280 0.816733
285 1.1708
290 1.39176
295 1.21287
300 1.98947
305 1.60595
310 1.53086
315 1.87497
320 1.39395
325 1.78869
330 1.26391
335 1.31966
340 1.62463
345 2.38086
350 1.65632
355 1.57625
360 1.21635
365 1.72037
370 1.36076
375 2.28236
380 2.08742
385 1.90416
390 1.39934
395 1.68691
400 2.57153
405 1.85773
410 1.6956
415 2.00014
420 1.34628
425 2.4605
430 1.47217
435 1.46395
440 2.31198
445 1.82653
450 1.3639
455 1.578
460 3.66198
465 2.42265
470 1.71206
475 1.78968
480 1.19338
485 1.52486
490 1.81401
495 1.70959
500 1.33762
505 1.23133
510 1.17403
515 2.32103
520 2.19031
525 2.87801
530 1.93297
535 1.32243
540 0.99013
545 1.10007
550 0.940981
555 2.36357
560 1.78621
565 1.56988
570 1.34948
575 1.20505
580 1.22748
585 1.65089
590 2.3235
595 1.81018
600 25.7014
Ex : 268
200 1.12347
205 1.41297
210 1.29343
215 1.55176
220 1.63579
225 1.50247
230 1.63125
235 1.32504
240 2.19868
245 1.74243
250 0.868822
255 1.86018
260 1.36917
265 1.62381
270 1.4827
275 1.40941
280 0.627258
285 1.18367
290 1.11736
295 1.20334
300 1.7981
305 0.868966
310 0.818317
315 1.82333
320 1.51283
325 1.85386
330 1.40863
335 1.55534
340 0.891046
345 0.923872
350 1.57398
355 1.11616
360 1.98534
365 1.69408
370 0.788385
375 0.778029
380 1.31126
385 1.21122
390 1.24077
395 1.80283
400 1.45263
405 2.53454
410 1.57744
415 0.92063
420 1.03503
425 1.55167
430 1.82573
435 1.19822
440 1.58933
445 1.32044
450 0.921765
455 1.60083
460 1.3791
465 1.7222
470 1.68287
475 2.22832
480 1.88618
485 1.63088
490 1.51
495 0.999765
500 1.35617
505 1.04542
510 1.3448
515 1.70903
520 1.71299
525 1.54505
530 1.83499
535 1.52343
540 2.16856
545 2.76217
550 1.46203
555 0.682205
560 1.03201
565 0.668256
570 1.67469
575 1.52653
580 0.80051
585 0.880047
590 0.580473
595 1.26291
600 0.143715
Ex : 273
200 0.676439
205 0.858156
210 0.751059
215 1.68023
220 1.14527
225 0.965043
230 1.15544
235 1.67136
240 1.90022
245 0.944014
250 1.63295
255 0.907732
260 0.720894
265 0.883557
270 1.23105
275 0.685292
280 1.33205
285 0.681528
290 0.846121
295 1.00156
300 0.885189
305 1.0925
310 0.888773
315 0.845789
320 0.607748
325 1.15919
330 0.884889
335 0.917589
340 2.39303
345 1.16847
350 1.40306
355 1.29795
360 0.913878
365 0.831137
370 1.17421
375 0.976305
380 1.06586
385 0.914935
390 1.4486
395 0.945738
400 1.37545
405 1.44633
410 1.14805
415 0.907316
420 1.82572
425 1.01076
430 1.0332
435 0.933306
440 0.96655
445 0.979342
450 0.877704
455 1.37233
460 1.38554
465 0.921502
470 1.18196
475 1.56026
480 1.19008
485 1.40934
490 1.73794
495 1.23684
500 1.26945
505 1.26429
510 1.19255
515 1.03584
520 0.509406
525 1.16972
530 1.19774
535 1.88526
540 1.14084
545 0.880538
550 1.07653
555 1.1316
560 1.41974
565 1.60523
570 1.27331
575 0.643509
580 1.0007
585 0.673217
590 0.845786
595 1.16227
600 2.90903
Ex : 278
200 0.422043
205 1.06152
210 0.433574
215 0.731345
220 1.1642
225 0.566276
230 0.581189
235 1.02126
240 0.613137
245 0.674591
250 1.22318
255 0.618549
260 0.866912
265 0.705255
270 0.985603
275 0.653727
280 0.966988
285 0.69574
290 0.54161
295 0.981828
300 1.3402
305 1.11964
310 0.788268
315 0.920063
320 0.669089
325 0.624665
330 0.792813
335 0.95245
340 0.905401
345 0.881718
350 0.738306
355 0.894764
360 0.905865
365 1.00374
370 1.02214
375 1.23808
380 0.899802
385 0.908323
390 0.723138
395 0.348879
400 1.11243
405 0.983094
410 1.08025
415 1.21675
420 1.22426
425 0.730924
430 1.1674
435 1.2309
440 0.896867
445 0.875679
450 1.18429
455 1.04756
460 1.05138
465 0.717769
470 1.06888
475 0.957431
480 0.877639
485 0.840639
490 0.708626
495 0.746298
500 0.99443
505 1.08653
510 0.837147
515 1.08057
520 1.26801
525 0.967084
530 1.02684
535 0.829578
540 0.902103
545 0.753613
550 1.00013
555 0.499983
560 1.01096
565 1.12658
570 0.837163
575 1.04927
580 0.990313
585 1.17079
590 0.759265
595 0.704721
600 2.8806
Ex : 283
200 1.17704
205 1.09322
210 0.74609
215 0.795336
220 0.701681
225 0.72248
230 1.04143
235 0.879353
240 0.800912
245 0.994539
250 0.63675
255 0.488677
260 0.426361
265 0.629089
270 0.991284
275 0.914066
280 0.83245
285 0.958912
290 0.650024
295 0.817497
300 0.393916
305 0.533102
310 0.40927
315 0.671658
320 0.830307
325 0.687926
330 0.735724
335 0.656521
340 0.793667
345 0.502223
350 0.663431
355 0.813666
360 1.10112
365 1.20985
370 0.558738
375 1.10402
380 1.04151
385 0.753899
390 0.829906
395 0.673597
400 0.726446
405 0.495557
410 1.13101
415 1.60747
420 1.08996
425 0.96556
430 0.771674
435 1.13189
440 1.05508
445 0.908171
450 1.3523
455 1.03809
460 0.663384
465 0.957635
470 0.710564
475 1.41758
480 0.765972
485 0.82966
490 0.842189
495 1.09772
500 0.95856
505 0.913802
510 1.23489
515 0.872027
520 0.540012
525 0.563413
530 0.542189
535 0.784357
540 0.726572
545 1.09814
550 0.660669
555 0.494468
560 1.00889
565 1.15692
570 0.597128
575 0.628354
580 1.16502
585 0.492491
590 1.2244
595 0.44947
600 0.561386
Ex : 288
200 0.482522
205 0.494055
210 0.772391
215 0.721689
220 0.698785
225 0.565211
230 0.560503
235 0.738854
240 0.536867
245 0.615804
250 0.302873
255 0.495914
260 0.546236
265 0.436519
270 1.18812
275 0.940741
280 0.60656
285 0.654801
290 0.904735
295 0.688404
300 0.660637
305 0.558664
310 0.588773
315 0.796162
320 0.396683
325 0.65155
330 0.400221
335 0.659628
340 1.00091
345 0.714016
350 1.21434
355 0.792503
360 0.789256
365 0.685938
370 0.938406
375 1.16922
380 0.811535
385 0.805974
390 0.95845
395 1.0235
400 0.878862
405 0.876752
410 1.08974
415 0.923145
420 0.964585
425 0.571717
430 0.692185
435 0.670122
440 0.503733
445 0.754581
450 1.12359
455 0.640364
460 0.828378
465 0.718385
470 0.75242
475 0.95327
480 0.502593
485 0.643914
490 0.768897
495 0.740549
500 0.944263
505 0.465192
510 0.395714
515 0.335644
520 0.685202
525 0.369779
530 0.325754
535 0.862597
540 0.822429
545 0.587786
550 0.570916
555 0.537387
560 0.536704
565 0.533643
570 0.583604
575 0.567261
580 0.726556
585 0.473077
590 0.553503
595 0.669366
600 0.722861
Ex : 293
200 0.512766
205 0.360585
210 0.485089
215 0.525626
220 0.391429
225 0.810456
230 1.03898
235 0.76546
240 0.417708
245 0.620012
250 0.458358
255 0.793677
260 0.353706
265 0.35709
270 0.547173
275 0.415419
280 0.645687
285 0.630207
290 0.311985
295 0.442198
300 0.382825
305 0.780174
310 0.634797
315 0.537886
320 0.625201
325 0.635874
330 0.444441
335 0.558545
340 0.584265
345 0.362832
350 0.537754
355 0.824899
360 0.812222
365 0.609341
370 0.638804
375 0.895224
380 1.04618
385 0.883248
390 0.626265
395 0.825544
400 0.992462
405 0.592057
410 0.842626
415 1.00105
420 1.24719
425 0.943729
430 0.785331
435 0.573568
440 0.744315
445 0.697202
450 0.611918
455 0.575765
460 0.742619
465 0.524278
470 0.798164
475 0.693334
480 0.815342
485 0.72409
490 0.603073
495 0.593715
500 0.496493
505 0.612576
510 0.540891
515 0.494502
520 0.698746
525 0.61726
530 0.479443
535 0.388177
540 0.384984
545 0.608403
550 0.325617
555 1.02833
560 0.292449
565 0.579576
570 0.511194
575 0.592843
580 0.75515
585 0.746695
590 0.925435
595 0.781824
600 0.522224
Ex : 298
200 0.348046
205 0.404223
210 0.46058
215 0.506685
220 0.510128
225 0.324278
230 0.515785
235 0.436136
240 0.598723
245 0.515747
250 0.409069
255 0.474472
260 0.60191
265 0.516916
270 0.415783
275 0.428834
280 0.308227
285 0.28646
290 0.412574
295 0.40571
300 0.330461
305 0.460416
310 0.255001
315 0.395409
320 0.709649
325 0.43839
330 0.443709
335 0.446009
340 0.632953
345 0.617764
350 0.636347
355 0.689709
360 0.410249
365 0.469842
370 0.342392
375 0.96794
380 0.816226
385 0.671252
390 0.918135
395 0.596313
400 0.612353
405 0.702157
410 0.685794
415 0.639344
420 0.587999
425 0.590653
430 0.535342
435 0.540315
440 0.794726
445 0.631199
450 0.695147
455 0.626344
460 0.509399
465 0.481284
470 0.505242
475 0.509648
480 0.392675
485 0.374176
490 0.536665
495 0.459924
500 0.402448
505 0.452782
510 0.478794
515 0.383706
520 0.457717
525 0.428816
530 0.381176
535 0.53457
540 0.543426
545 0.266854
550 0.39571
555 0.583097
560 0.661657
565 0.374682
570 0.839769
575 0.324796
580 0.413277
585 0.571031
590 0.653732
595 0.619305
600 0.418005
Ex : 303
200 0.494216
205 0.318322
210 0.389993
215 0.364557
220 0.222988
225 0.339016
230 0.305971
235 0.420723
240 0.251209
245 0.330758
250 0.230416
255 0.271424
260 0.235287
265 0.263474
270 0.348562
275 0.43472
280 0.58808
285 0.37257
290 0.244
295 0.579445
300 0.245943
305 0.511532
310 0.415602
315 0.394364
320 0.380743
325 0.739707
330 0.474006
335 0.389559
340 0.448601
345 0.604617
350 0.543746
355 0.423512
360 0.438791
365 0.46491
370 0.618973
375 0.703287
380 0.55812
385 0.69397
390 0.891649
395 0.601777
400 0.720511
405 0.515688
410 0.774395
415 0.601432
420 0.58246
425 0.504066
430 0.502615
435 0.634151
440 0.444362
445 0.590882
450 0.625063
455 0.589944
460 0.499972
465 0.940264
470 0.4024
475 0.374107
480 0.434581
485 0.335498
490 0.579076
495 0.399777
500 0.356342
505 0.326661
510 0.360238
515 0.375323
520 0.320672
525 0.217226
530 0.432194
535 0.253034
540 0.546161
545 0.535787
550 0.376128
555 0.399268
560 0.453611
565 0.324625
570 0.434836
575 0.510951
580 0.348489
585 0.340125
590 0.317338
595 0.416015
600 0.197545
Ex : 308
200 0.368733
205 0.287127
210 0.268601
215 0.304786
220 0.329053
225 0.258294
230 0.273452
235 0.20588
240 0.155357
245 0.249765
250 0.57177
255 0.348076
260 0.29228
265 0.216005
270 0.359926
275 0.317024
280 0.565121
285 0.296786
290 0.354453
295 0.443041
300 0.268549
305 0.275522
310 0.278905
315 0.290577
320 0.252427
325 0.368354
330 0.397455
335 0.359868
340 0.453212
345 0.332938
350 0.287376
355 0.413612
360 0.418482
365 0.459528
370 0.623796
375 0.495514
380 0.365485
385 0.650374
390 0.506865
395 0.672872
400 0.632705
405 0.508769
410 0.525922
415 0.611332
420 0.502256
425 0.582864
430 0.644096
435 0.550602
440 0.407051
445 0.390322
450 0.607745
455 0.656625
460 0.473745
465 0.458019
470 0.389693
475 0.534757
480 0.669301
485 0.263648
490 0.334128
495 0.55908
500 0.553593
505 0.289917
510 0.252593
515 0.406957
520 0.565905
525 0.387139
530 0.212856
535 0.496802
540 0.305222
545 0.239074
550 0.402663
555 0.182968
560 0.337034
565 0.366217
570 0.34299
575 0.210403
580 0.206707
585 0.413218
590 0.525024
595 0.339042
600 0.338327
Ex : 313
200 0.205927
205 0.171316
210 0.4995
215 0.291153
220 0.155002
225 0.188398
230 0.30235
235 0.30024
240 0.272916
245 0.312042
250 0.246033
255 0.226739
260 0.323014
265 0.228347
270 0.274308
275 0.195145
280 0.314698
285 0.212998
290 0.397677
295 0.467217
300 0.620819
305 0.275366
310 0.324928
315 0.311393
320 0.259718
325 0.265221
330 0.358456
335 0.417754
340 0.495444
345 0.46923
350 0.546845
355 0.509704
360 0.71171
365 0.559627
370 0.565034
375 0.780257
380 0.522604
385 0.696582
390 0.685305
395 0.677155
400 0.818863
405 0.915913
410 0.784686
415 0.861631
420 0.824612
425 0.673656
430 0.634831
435 0.69676
440 0.784162
445 0.928926
450 0.813858
455 0.624608
460 0.491936
465 0.74398
470 0.433431
475 0.381138
480 0.552675
485 0.540058
490 0.37788
495 0.52153
500 0.485947
505 0.656962
510 0.386532
515 0.324341
520 0.298025
525 0.246373
530 0.278563
535 0.238597
540 0.304702
545 0.296606
550 0.291716
555 0.421925
560 0.377618
565 0.315692
570 0.492503
575 0.302454
580 0.304286
585 0.244445
590 0.237041
595 0.320122
600 0.0364287
Ex : 318
200 0.200218
205 0.169635
210 0.24483
215 0.164552
220 0.350479
225 0.210288
230 0.158488
235 0.257786
240 0.168806
245 0.109402
250 0.281325
255 0.213595
260 0.214637
265 0.280779
270 0.280474
275 0.179819
280 0.236563
285 0.211161
290 0.221179
295 0.163993
300 0.231514
305 0.143666
310 0.479614
315 0.543867
320 0.713744
325 0.354307
330 0.752486
335 0.62942
340 0.898814
345 1.34595
350 1.92726
355 1.94434
360 2.62684
365 3.2241
370 4.03965
375 4.55716
380 5.57989
385 5.96855
390 6.31258
395 7.21718
400 7.15502
405 7.59826
410 7.53505
415 7.25561
420 7.06603
425 7.04555
430 6.41254
435 6.10294
440 6.01075
445 5.52476
450 4.83872
455 4.93796
460 4.58211
465 4.10604
470 3.76838
475 3.50628
480 3.08381
485 2.95264
490 2.60501
495 2.30094
500 2.05437
505 1.51781
510 1.22038
515 1.24103
520 1.18011
525 1.15788
530 0.89836
535 0.692386
540 0.576993
545 0.593894
550 0.590524
555 0.371213
560 0.294723
565 0.40275
570 0.502353
575 0.456755
580 0.348672
585 0.364122
590 0.255272
595 0.166924
600 0.395887
Ex : 323
200 0.205391
205 0.197849
210 0.224958
215 0.267291
220 0.167301
225 0.332082
230 0.165897
235 0.251534
240 0.156571
245 0.280611
250 0.304447
255 0.260704
260 0.221908
265 0.171743
270 0.229553
275 0.139223
280 0.219115
285 0.239038
290 0.169612
295 0.142689
300 0.178437
305 0.182229
310 0.339779
315 6.18978
320 32.2648
325 13.9555
330 2.84646
335 2.48409
340 3.44054
345 5.2665
350 7.65824
355 10.9722
360 12.4089
365 15.7639
370 18.5343
375 21.0017
380 23.6953
385 27.0085
390 29.5008
395 31.1673
400 31.3137
405 32.9988
410 33.3065
415 33.0141
420 31.3603
425 30.6643
430 29.2726
435 28.4957
440 26.0064
445 26.0315
450 23.5916
455 22.3266
460 20.6625
465 19.8604
470 18.0412
475 16.4968
480 14.5953
485 13.4877
490 12.2822
495 10.3817
500 9.24019
505 8.4505
510 7.16078
515 6.01499
520 5.17654
525 4.69511
530 3.78686
535 3.21966
540 2.68744
545 2.19088
550 1.96955
555 1.85317
560 1.44635
565 1.07854
570 1.07172
575 0.841405
580 0.594319
585 0.620575
590 0.647103
595 0.46355
600 0.0527503
Ex : 328
200 0.19489
205 0.319068
210 0.130042
215 0.2058
220 0.203871
225 0.142947
230 0.240079
235 0.319039
240 0.263443
245 0.296787
250 0.18141
255 0.179499
260 0.223985
265 0.236508
270 0.21924
275 0.21703
280 0.227927
285 0.20598
290 0.272421
295 0.191705
300 0.215334
305 0.19426
310 0.322179
315 1.55934
320 75.4848
325 190.481
330 56.7491
335 10.0178
340 6.02594
345 6.53749
350 8.93548
355 12.6069
360 17.1239
365 19.5824
370 21.0718
375 24.4514
380 27.7049
385 30.5446
390 34.2303
395 35.7848
400 36.9988
405 37.7377
410 37.1236
415 37.8695
420 36.3364
425 35.3561
430 33.3327
435 31.1404
440 30.487
445 28.4679
450 26.651
455 25.0087
460 23.5473
465 21.9379
470 19.4012
475 17.5977
480 16.8935
485 14.8667
490 12.9569
495 12.2549
500 10.22
505 9.50019
510 8.02321
515 7.29946
520 6.23532
525 5.53251
530 4.92926
535 3.77852
540 3.28214
545 2.89316
550 2.21414
555 2.20462
560 1.82884
565 1.54246
570 1.30174
575 1.13128
580 0.730671
585 0.69581
590 0.387223
595 0.455599
600 0.0518455
Ex : 333
200 0.265857
205 0.147047
210 0.204236
215 0.199506
220 0.138355
225 0.166037
230 0.178242
235 0.244286
240 0.150531
245 0.272489
250 0.243739
255 0.189595
260 0.20559
265 0.126194
270 0.27567
275 0.155667
280 0.0873196
285 0.261476
290 0.156256
295 0.199428
300 0.136992
305 0.205939
310 0.159896
315 0.295254
320 10.0687
325 222.785
330 382.098
335 99.4976
340 15.1777
345 6.63273
350 6.03991
355 6.91009
360 9.91962
365 14.6891
370 15.2759
375 15.1072
380 16.4157
385 18.5372
390 21.6229
395 22.2596
400 22.7798
405 22.5108
410 22.7223
415 23.0504
420 21.9832
425 21.1871
430 19.8275
435 18.49
440 17.2491
445 16.7404
450 16.0766
455 14.4912
460 13.226
465 12.6239
470 11.1687
475 10.1786
480 9.51099
485 9.00042
490 8.22889
495 7.03789
500 6.73153
505 5.67299
510 4.63617
515 4.11729
520 3.46746
525 3.2505
530 2.58417
535 2.29761
540 2.35557
545 1.9194
550 1.67886
555 1.50311
560 1.18718
565 1.17783
570 0.978521
575 0.803928
580 0.497456
585 0.438321
590 0.607937
595 0.47636
600 0.443273
Ex : 338
200 0.212981
205 0.175855
210 0.165364
215 0.225037
220 0.21786
225 0.253341
230 0.213223
235 0.118356
240 0.229402
245 0.278242
250 0.149823
255 0.154995
260 0.15842
265 0.159661
270 0.130723
275 0.22981
280 0.174194
285 0.173966
290 0.291693
295 0.204062
300 0.074922
305 0.203418
310 0.213308
315 0.269069
320 0.463945
325 20.5738
330 333.311
335 497.601
340 125.141
345 17.452
350 5.54449
355 3.98056
360 3.803
365 5.8435
370 10.3369
375 10.4679
380 9.67914
385 10.4212
390 12.64
395 13.687
400 13.2835
405 12.7858
410 13.642
415 14.7462
420 13.5682
425 12.9049
430 11.804
435 11.3693
440 11.0464
445 10.3743
450 8.8737
455 8.11663
460 7.61706
465 7.53926
470 6.8367
475 6.37348
480 5.59656
485 5.34514
490 4.65612
495 3.97688
500 3.7603
505 3.2553
510 2.86236
515 2.43006
520 2.3489
525 2.0446
530 1.77136
535 1.59633
540 1.68125
545 1.1432
550 0.96158
555 1.12049
560 1.09271
565 0.895672
570 0.884669
575 0.522463
580 0.67975
585 0.612527
590 0.279486
595 0.425866
600 0.0551251
Ex : 343
200 0.0932408
205 0.182255
210 0.193964
215 0.108227
220 0.126474
225 0.172839
230 0.13941
235 0.160483
240 0.181978
245 0.103939
250 0.260381
255 0.260121
260 0.267851
265 0.172319
270 0.168419
275 0.202228
280 0.195338
285 0.165759
290 0.152461
295 0.147809
300 0.0957602
305 0.211302
310 0.196315
315 0.338172
320 0.270889
325 0.578128
330 22.8993
335 383.653
340 565.142
345 137.282
350 18.2831
355 5.21214
360 3.23308
365 2.35807
370 3.52781
375 7.49094
380 9.21331
385 9.30065
390 10.2563
395 11.0754
400 10.8798
405 10.828
410 11.3747
415 12.2813
420 11.483
425 10.4924
430 9.60075
435 9.3972
440 9.04349
445 8.79885
450 7.83212
455 6.79775
460 6.27332
465 6.00764
470 5.92985
475 5.10524
480 4.66783
485 4.12219
490 4.0109
495 3.92725
500 3.02148
505 2.77464
510 2.40916
515 2.40113
520 2.15479
525 2.10418
530 1.83963
535 1.51363
540 1.44806
545 1.00628
550 1.06493
555 0.916156
560 0.978712
565 0.874421
570 0.588347
575 0.608071
580 0.505043
585 0.367109
590 0.380754
595 0.345854
600 0.330711
Ex : 348
200 0.189713
205 0.193521
210 0.139065
215 0.103259
220 0.102569
225 0.105817
230 0.154615
235 0.168992
240 0.142748
245 0.106456
250 0.15107
255 0.10904
260 0.160351
265 0.10002
270 0.179121
275 0.139695
280 0.219726
285 0.128304
290 0.15471
295 0.164158
300 0.137465
305 0.165761
310 0.145729
315 0.202362
320 0.295635
325 0.338548
330 0.522649
335 24.7461
340 393.61
345 605.381
350 154.827
355 20.0628
360 4.67038
365 2.67913
370 2.01175
375 2.76098
380 6.83134
385 12.0099
390 13.1498
395 12.7644
400 10.9597
405 12.1983
410 13.969
415 14.5373
420 13.4521
425 11.7582
430 10.7015
435 10.7387
440 10.0453
445 9.63952
450 8.74942
455 7.57973
460 6.8964
465 6.64602
470 6.08415
475 5.93954
480 5.25187
485 4.72524
490 4.64835
495 3.99623
500 3.6539
505 3.37078
510 2.97373
515 2.32768
520 2.28557
525 1.99123
530 1.76756
535 1.60897
540 1.25321
545 1.39573
550 1.14733
555 1.00349
560 0.814724
565 0.764987
570 0.615925
575 0.547645
580 0.614567
585 0.553995
590 0.405761
595 0.348055
600 0.493787
Ex : 353
200 0.145947
205 0.0870448
210 0.123606
215 0.162966
220 0.0744846
225 0.0834635
230 0.072886
235 0.222113
240 0.227545
245 0.16351
250 0.139408
255 0.14604
260 0.182744
265 0.124242
270 0.193446
275 0.168759
280 0.10643
285 0.12281
290 0.283519
295 0.183857
300 0.12503
305 0.170185
310 0.139236
315 0.190719
320 0.226259
325 0.179694
330 0.365878
335 0.650182
340 25.4756
345 413.296
350 609.309
355 151.76
360 19.6453
365 4.23148
370 2.45879
375 1.9952
380 3.12608
385 8.90392
390 15.978
395 15.9343
400 13.9659
405 12.933
410 13.6741
415 16.1264
420 15.6907
425 13.434
430 12.0552
435 11.4977
440 11.1501
445 11.1232
450 9.62687
455 8.96615
460 7.6264
465 7.14619
470 6.85399
475 6.38772
480 5.69238
485 5.08099
490 4.68328
495 4.14045
500 3.69201
505 3.27128
510 2.81475
515 2.60746
520 2.44722
525 2.11131
530 1.83908
535 1.89286
540 1.5006
545 1.33817
550 1.0348
555 0.892476
560 1.18546
565 0.881923
570 0.846675
575 0.599286
580 0.584265
585 0.365313
590 0.356291
595 0.312363
600 0.0355457
Ex : 358
200 0.151589
205 0.0925209
210 0.117854
215 0.187497
220 0.144244
225 0.149237
230 0.111164
235 0.223678
240 0.110622
245 0.155572
250 0.147663
255 0.178179
260 0.137144
265 0.12668
270 0.0920715
275 0.132013
280 0.186498
285 0.114364
290 0.220214
295 0.157836
300 0.122382
305 0.197603
310 0.167959
315 0.232856
320 0.237744
325 0.17864
330 0.320298
335 0.463055
340 0.71627
345 24.4989
350 398.432
355 618.766
360 155.903
365 19.5944
370 4.08139
375 2.67113
380 3.30806
385 5.78024
390 11.202
395 16.3295
400 15.0279
405 13.2637
410 13.7189
415 15.1505
420 14.2062
425 12.1165
430 10.5987
435 10.6116
440 10.7859
445 10.9094
450 9.2633
455 8.27217
460 7.47324
465 7.11796
470 7.0399
475 6.07551
480 5.60402
485 5.26961
490 4.91288
495 4.29184
500 3.78055
505 3.51376
510 3.24624
515 2.72324
520 2.7014
525 2.24708
530 1.9632
535 1.65007
540 1.42499
545 1.40585
550 1.10253
555 1.19363
560 0.952809
565 0.727429
570 0.689272
575 0.511897
580 0.516491
585 0.461958
590 0.313591
595 0.367359
600 0.0418041
Ex : 363
200 0.203196
205 0.142355
210 0.0988116
215 0.219205
220 0.129167
225 0.207693
230 0.147929
235 0.203184
240 0.179037
245 0.10655
250 0.194288
255 0.105478
260 0.130736
265 0.159013
270 0.119175
275 0.11941
280 0.119975
285 0.120636
290 0.102669
295 0.150504
300 0.118534
305 0.150243
310 0.111866
315 0.125166
320 0.163111
325 0.226383
330 0.182615
335 0.181678
340 0.386632
345 0.731551
350 22.71
355 391.17
360 624.952
365 162.066
370 20.6676
375 4.72024
380 4.44104
385 7.84516
390 10.9258
395 12.924
400 15.5814
405 16.5764
410 16.9412
415 17.4671
420 15.0689
425 13.3443
430 12.3062
435 12.2424
440 12.3987
445 11.3172
450 10.0113
455 8.95353
460 8.35109
465 7.86881
470 7.56975
475 6.91548
480 5.92421
485 5.45849
490 5.0613
495 4.48041
500 4.16048
505 3.79229
510 3.23982
515 3.1202
520 2.56951
525 2.25292
530 2.28825
535 1.96373
540 1.65282
545 1.38301
550 1.42293
555 1.12886
560 1.00067
565 0.911242
570 0.7711
575 0.578502
580 0.514152
585 0.411714
590 0.37305
595 0.298942
600 0.205117
Ex : 368
200 0.087622
205 0.12603
210 0.10511
215 0.0984079
220 0.0937887
225 0.0785459
230 0.135439
235 0.10424
240 0.117047
245 0.112648
250 0.115058
255 0.0942134
260 0.0839611
265 0.109754
270 0.147916
275 0.141201
280 0.113456
285 0.102969
290 0.135661
295 0.199402
300 0.112837
305 0.104374
310 0.123212
315 0.13045
320 0.237015
325 0.157457
330 0.159174
335 0.206899
340 0.312662
345 0.426762
350 0.625018
355 18.6438
360 381.878
365 642.484
370 172.83
375 22.2312
380 6.56615
385 9.36934
390 14.2859
395 15.9156
400 14.832
405 17.9408
410 22.7979
415 22.9007
420 20.421
425 17.4643
430 15.2876
435 14.8935
440 14.7692
445 14.0838
450 12.6953
455 10.8614
460 9.63882
465 8.92075
470 8.44863
475 7.5075
480 7.04522
485 6.14623
490 5.83402
495 5.18651
500 4.6198
505 4.04572
510 3.64406
515 3.34163
520 2.95846
525 2.52617
530 2.15603
535 1.94521
540 1.7654
545 1.55786
550 1.42867
555 1.20492
560 0.964259
565 0.719149
570 0.67448
575 0.491793
580 0.424387
585 0.432451
590 0.376171
595 0.426625
600 0.175149
Ex : 373
200 0.169449
205 0.0756936
210 0.111205
215 0.0966208
220 0.158836
225 0.103694
230 0.101726
235 0.104895
240 0.0773986
245 0.137379
250 0.0960353
255 0.101893
260 0.142611
265 0.14721
270 0.148645
275 0.176957
280 0.0922841
285 0.142669
290 0.103885
295 0.0908236
300 0.108823
305 0.112654
310 0.144919
315 0.144498
320 0.131394
325 0.108291
330 0.127492
335 0.220942
340 0.261351
345 0.309137
350 0.353855
355 0.598896
360 23.1317
365 391.502
370 642.737
375 171.916
380 23.1969
385 9.27164
390 14.2235
395 17.445
400 15.1067
405 13.9321
410 18.1025
415 23.954
420 22.9127
425 18.4548
430 14.8457
435 14.0813
440 14.288
445 13.8926
450 12.2619
455 10.7059
460 8.99015
465 8.67986
470 8.10096
475 7.96551
480 6.84103
485 6.32853
490 5.62407
495 5.14646
500 4.53241
505 4.30947
510 3.67812
515 3.34731
520 2.95132
525 2.66456
530 2.35082
535 2.1398
540 1.71268
545 1.55267
550 1.51703
555 1.2473
560 1.14846
565 0.9444
570 0.755947
575 0.666206
580 0.49431
585 0.428428
590 0.412738
595 0.249249
600 0.483126
Ex : 378
200 0.104083
205 0.164984
210 0.106874
215 0.109854
220 0.0700064
225 0.0995667
230 0.102303
235 0.081427
240 0.0854892
245 0.0978449
250 0.177949
255 0.109441
260 0.0873011
265 0.0809227
270 0.155065
275 0.168433
280 0.080872
285 0.122996
290 0.0927019
295 0.13513
300 0.195603
305 0.129085
310 0.147956
315 0.161753
320 0.128667
325 0.158026
330 0.121001
335 0.17611
340 0.158629
345 0.212474
350 0.306578
355 0.458457
360 0.660584
365 21.4463
370 391.136
375 650.673
380 176.485
385 25.8917
390 12.2207
395 12.9441
400 11.5109
405 10.7516
410 12.5515
415 15.9789
420 17.8132
425 15.8871
430 12.7746
435 11.6038
440 11.2293
445 10.7578
450 10.0571
455 8.77122
460 8.02144
465 7.41611
470 7.11122
475 6.59384
480 5.9784
485 5.6053
490 5.28842
495 4.80438
500 4.23441
505 4.12347
510 3.70215
515 3.21494
520 2.89883
525 2.42131
530 2.02264
535 2.04415
540 1.76382
545 1.53512
550 1.54213
555 1.28393
560 1.08345
565 0.984963
570 0.676033
575 0.515271
580 0.433636
585 0.424967
590 0.344996
595 0.300736
600 0.0600702
Ex : 383
200 0.0555608
205 0.106349
210 0.168852
215 0.124436
220 0.109341
225 0.0647258
230 0.0851429
235 0.0851374
240 0.122613
245 0.106956
250 0.127785
255 0.134855
260 0.168878
265 0.0899022
270 0.0936989
275 0.079193
280 0.0989263
285 0.0966514
290 0.136915
295 0.0768337
300 0.140418
305 0.13268
310 0.118384
315 0.0795725
320 0.102538
325 0.134354
330 0.117501
335 0.19305
340 0.182967
345 0.176447
350 0.214655
355 0.355319
360 0.439137
365 0.809131
370 19.5086
375 394.22
380 690.78
385 191.722
390 31.804
395 13.3245
400 10.8256
405 11.2445
410 13.5126
415 14.3018
420 13.9041
425 14.6296
430 14.325
435 12.7578
440 11.8679
445 11.1838
450 9.68748
455 8.59542
460 8.2613
465 7.49375
470 7.14007
475 6.58295
480 6.47473
485 5.87593
490 5.11738
495 4.79109
500 4.38817
505 4.07878
510 3.84884
515 3.32734
520 2.78892
525 2.57893
530 2.24755
535 1.90766
540 1.77457
545 1.7095
550 1.40983
555 1.15257
560 1.1059
565 0.9988
570 0.90685
575 0.615531
580 0.533397
585 0.450267
590 0.418761
595 0.283727
600 0.830574
Ex : 388
200 0.147432
205 0.112487
210 0.152617
215 0.151181
220 0.0637866
225 0.126046
230 0.113399
235 0.204056
240 0.127576
245 0.128446
250 0.140951
255 0.169014
260 0.11162
265 0.117966
270 0.0846571
275 0.107723
280 0.12452
285 0.151441
290 0.113305
295 0.0919089
300 0.0727903
305 0.118653
310 0.101767
315 0.146355
320 0.12743
325 0.152884
330 0.100956
335 0.0830558
340 0.13517
345 0.159452
350 0.178825
355 0.203002
360 0.352923
365 0.411117
370 0.752493
375 21.7756
380 409.534
385 697.311
390 197.267
395 35.1089
400 15.152
405 13.9382
410 16.122
415 18.0227
420 16.7247
425 14.6254
430 15.2013
435 16.0406
440 15.2685
445 13.6519
450 11.7119
455 9.97189
460 9.4823
465 8.43501
470 7.85383
475 7.5322
480 6.89896
485 6.15861
490 5.41322
495 5.28171
500 4.99962
505 4.16538
510 3.95499
515 3.49777
520 2.99943
525 2.53247
530 2.37528
535 2.21079
540 1.99373
545 1.71708
550 1.58144
555 1.25366
560 1.16204
565 0.910192
570 0.778193
575 0.65797
580 0.490676
585 0.412687
590 0.267928
595 0.294621
600 0.283829
Ex : 393
200 0.0858938
205 0.0926981
210 0.162583
215 0.0864592
220 0.0712406
225 0.115901
230 0.0648395
235 0.0986741
240 0.0970792
245 0.0694154
250 0.0680432
255 0.079804
260 0.0794925
265 0.101386
270 0.125212
275 0.0855832
280 0.105039
285 0.10202
290 0.0707152
295 0.113088
300 0.0807853
305 0.0850504
310 0.158307
315 0.123439
320 0.104826
325 0.0796919
330 0.116387
335 0.102751
340 0.0971793
345 0.154022
350 0.122378
355 0.203069
360 0.170936
365 0.28283
370 0.424849
375 0.805271
380 20.3163
385 410.909
390 718.124
395 207.183
400 36.626
405 15.3799
410 15.2913
415 18.8784
420 18.3809
425 15.0793
430 12.7699
435 13.4938
440 16.0196
445 14.9588
450 12.2664
455 10.4288
460 8.71288
465 8.24688
470 7.74203
475 7.65957
480 6.77882
485 5.98304
490 5.59632
495 5.16252
500 4.4185
505 4.31936
510 3.83463
515 3.31946
520 3.04381
525 2.66345
530 2.25778
535 2.13871
540 1.83637
545 1.62858
550 1.43344
555 1.28356
560 1.13535
565 1.05002
570 0.831256
575 0.706525
580 0.502927
585 0.440878
590 0.322188
595 0.29216
600 0.826671
Ex : 398
200 0.103068
205 0.0788413
210 0.113418
215 0.0929648
220 0.0847953
225 0.129952
230 0.0966263
235 0.0926159
240 0.0988348
245 0.102644
250 0.072583
255 0.0675898
260 0.0707549
265 0.0996782
270 0.0972884
275 0.133166
280 0.0945218
285 0.109038
290 0.0874012
295 0.0702563
300 0.1297
305 0.110261
310 0.118415
315 0.103391
320 0.0840999
325 0.114144
330 0.0855114
335 0.20908
340 0.123694
345 0.126622
350 0.13018
355 0.176081
360 0.189132
365 0.201205
370 0.282342
375 0.417252
380 1.03419
385 21.3559
390 421.738
395 727.897
400 201.552
405 30.1806
410 11.2881
415 11.8808
420 11.8813
425 10.0311
430 8.42746
435 7.81219
440 9.11383
445 11.1688
450 10.1872
455 8.64256
460 7.19784
465 6.39004
470 5.47875
475 5.3624
480 5.26752
485 5.16557
490 4.67999
495 4.28812
500 4.02224
505 3.63517
510 3.17289
515 2.96917
520 2.67138
525 2.40078
530 2.27371
535 1.93464
540 1.71346
545 1.50299
550 1.30648
555 1.17541
560 1.02875
565 0.940501
570 0.830952
575 0.611542
580 0.494032
585 0.330126
590 0.338892
595 0.281295
600 0.186792
Ex : 403
200 0.0819163
205 0.0732439
210 0.0763705
215 0.0814665
220 0.113133
225 0.0820323
230 0.149215
235 0.0882294
240 0.0665114
245 0.0755314
250 0.0944412
255 0.0551192
260 0.0617056
265 0.0691172
270 0.0814794
275 0.137314
280 0.100186
285 0.140069
290 0.0953626
295 0.0707098
300 0.0919888
305 0.080464
310 0.101076
315 0.0800076
320 0.105575
325 0.066922
330 0.188814
335 0.182601
340 0.152112
345 0.13631
350 0.150308
355 0.214039
360 0.175209
365 0.172194
370 0.226977
375 0.370302
380 0.413908
385 0.983335
390 23.8355
395 430.479
400 720.906
405 197.092
410 26.7851
415 8.14348
420 6.11424
425 5.8648
430 4.88103
435 4.66018
440 5.11719
445 5.64286
450 7.39724
455 7.66086
460 6.28662
465 5.51486
470 5.01895
475 4.50264
480 4.41893
485 4.17155
490 3.89522
495 3.76895
500 3.78931
505 3.2789
510 3.103
515 2.63984
520 2.56123
525 2.44082
530 1.90168
535 1.7526
540 1.65026
545 1.5371
550 1.38594
555 1.14488
560 1.05021
565 0.805361
570 0.733812
575 0.662582
580 0.465049
585 0.406282
590 0.326729
595 0.233888
600 0.139683
Ex : 408
200 0.0666504
205 0.0745858
210 0.099592
215 0.0899972
220 0.0932937
225 0.0657093
230 0.0952981
235 0.147579
240 0.0981696
245 0.117047
250 0.103744
255 0.135364
260 0.113235
265 0.133392
270 0.0852154
275 0.076916
280 0.0912849
285 0.150624
290 0.116911
295 0.0659491
300 0.0831607
305 0.103242
310 0.0742615
315 0.0743319
320 0.0907986
325 0.0950954
330 0.149662
335 0.0805741
340 0.109318
345 0.12038
350 0.146132
355 0.131828
360 0.137666
365 0.156059
370 0.16523
375 0.296407
380 0.312353
385 0.477629
390 1.09362
395 22.3384
400 433.479
405 724.673
410 192.725
415 26.7735
420 7.43232
425 4.93016
430 4.65707
435 4.69156
440 5.03185
445 5.01879
450 4.93607
455 6.42185
460 7.59974
465 6.11151
470 5.29204
475 4.93032
480 4.5754
485 4.02546
490 3.8815
495 3.65393
500 3.29726
505 3.16206
510 2.77407
515 2.79753
520 2.39206
525 2.27544
530 2.14978
535 1.84742
540 1.62775
545 1.43004
550 1.26151
555 1.24619
560 1.0366
565 0.86133
570 0.806762
575 0.703989
580 0.479773
585 0.476984
590 0.29993
595 0.300166
600 0.0341578
Ex : 413
200 0.0513412
205 0.096125
210 0.0757725
215 0.0434618
220 0.0640735
225 0.088243
230 0.057052
235 0.0581804
240 0.0952695
245 0.0959999
250 0.0745031
255 0.0735526
260 0.0937709
265 0.0680641
270 0.0927752
275 0.0534521
280 0.0647509
285 0.0689024
290 0.12113
295 0.13473
300 0.102668
305 0.0826279
310 0.085588
315 0.0784754
320 0.068214
325 0.0705151
330 0.0845692
335 0.0917059
340 0.11158
345 0.160268
350 0.115289
355 0.119421
360 0.0860417
365 0.159902
370 0.155135
375 0.220135
380 0.249465
385 0.370391
390 0.456019
395 0.932256
400 25.126
405 457.427
410 749.136
415 193.128
420 26.4344
425 6.66522
430 4.28183
435 4.54254
440 4.79436
445 4.57137
450 4.34215
455 4.335
460 5.09938
465 6.66651
470 5.87265
475 5.03874
480 4.63154
485 3.91018
490 3.53175
495 3.25086
500 3.24369
505 2.99599
510 2.77859
515 2.58215
520 2.3863
525 2.09372
530 2.03044
535 1.69562
540 1.54619
545 1.40889
550 1.4341
555 1.22299
560 1.06022
565 0.879449
570 0.771397
575 0.679202
580 0.474808
585 0.406231
590 0.328867
595 0.291785
600 0.0950322
Ex : 418
200 0.0758729
205 0.0864381
210 0.104043
215 0.114916
220 0.080999
225 0.107521
230 0.117873
235 0.115308
240 0.0772479
245 0.124193
250 0.0827892
255 0.0786613
260 0.0822782
265 0.122224
270 0.0770482
275 0.124375
280 0.100623
285 0.0678799
290 0.0740735
295 0.111592
300 0.0645478
305 0.0669633
310 0.0717009
315 0.10402
320 0.0897118
325 0.0643513
330 0.0853721
335 0.112142
340 0.101762
345 0.140579
350 0.088758
355 0.179106
360 0.12412
365 0.0996501
370 0.12918
375 0.145959
380 0.156971
385 0.217259
390 0.304999
395 0.545936
400 0.834478
405 24.2494
410 445.506
415 741.056
420 198.662
425 25.5162
430 5.19836
435 3.1167
440 3.26798
445 3.25942
450 2.90966
455 2.55873
460 2.89336
465 3.50404
470 5.36208
475 5.29793
480 4.25012
485 3.75113
490 3.12567
495 2.95267
500 2.83118
505 2.75126
510 2.39111
515 2.20625
520 2.11113
525 2.12563
530 1.77852
535 1.57883
540 1.51907
545 1.37635
550 1.23251
555 0.940279
560 0.926321
565 0.845182
570 0.684205
575 0.527539
580 0.458062
585 0.345045
590 0.265922
595 0.273268
600 0.416787
Ex : 423
200 0.0775849
205 0.0952776
210 0.0853516
215 0.0802283
220 0.0721508
225 0.0421021
230 0.0857766
235 0.0810272
240 0.0890513
245 0.0759836
250 0.0830388
255 0.141683
260 0.109612
265 0.0849098
270 0.0862428
275 0.100655
280 0.0803633
285 0.0599465
290 0.0826848
295 0.0978627
300 0.0847256
305 0.0559798
310 0.134006
315 0.0913471
320 0.0800823
325 0.0782229
330 0.151456
335 0.162117
340 0.086666
345 0.0772832
350 0.125256
355 0.155498
360 0.110657
365 0.098242
370 0.107066
375 0.0970723
380 0.135144
385 0.217536
390 0.294396
395 0.312236
400 0.572183
405 0.921659
410 24.2086
415 464.295
420 745.033
425 189.884
430 23.9685
435 4.3761
440 2.18123
445 2.28165
450 2.22852
455 1.80718
460 1.83754
465 2.11018
470 2.42924
475 3.9917
480 4.75813
485 3.64452
490 3.19037
495 2.83034
500 2.55945
505 2.274
510 2.02086
515 1.93078
520 1.93164
525 1.70245
530 1.654
535 1.55287
540 1.50199
545 1.22284
550 1.13777
555 0.998469
560 0.871087
565 0.876183
570 0.730034
575 0.574247
580 0.474854
585 0.427497
590 0.355475
595 0.231641
600 0.252255
Ex : 428
200 0.126913
205 0.0701129
210 0.0678333
215 0.101329
220 0.0910193
225 0.0614561
230 0.0596189
235 0.0592083
240 0.104787
245 0.0871574
250 0.0574377
255 0.133824
260 0.0952076
265 0.122848
270 0.0753018
275 0.0918432
280 0.130142
285 0.103331
290 0.0699041
295 0.148789
300 0.0789588
305 0.0752888
310 0.0758482
315 0.0886029
320 0.113271
325 0.120356
330 0.117091
335 0.106828
340 0.153516
345 0.0926089
350 0.124616
355 0.119532
360 0.132786
365 0.0919173
370 0.162261
375 0.190551
380 0.16095
385 0.187309
390 0.196226
395 0.279972
400 0.352063
405 0.431857
410 0.980598
415 26.3679
420 469.68
425 763.799
430 199.428
435 24.5864
440 4.19773
445 1.76447
450 1.64218
455 1.61691
460 1.5756
465 1.34323
470 1.64664
475 1.90663
480 3.1718
485 4.66126
490 3.72875
495 2.85127
500 2.57377
505 2.19423
510 1.82573
515 1.81813
520 1.82682
525 1.61514
530 1.53162
535 1.3771
540 1.27137
545 1.1584
550 0.983552
555 0.978088
560 0.909884
565 0.793364
570 0.720085
575 0.663687
580 0.41811
585 0.314269
590 0.394236
595 0.323704
600 0.626162
Ex : 433
200 0.0679939
205 0.0977403
210 0.109463
215 0.0956654
220 0.0712379
225 0.109334
230 0.100188
235 0.107883
240 0.0818263
245 0.0633579
250 0.0485303
255 0.064205
260 0.0791414
265 0.0914269
270 0.100759
275 0.0791244
280 0.0774747
285 0.0606569
290 0.0963582
295 0.0797785
300 0.088489
305 0.111318
310 0.109884
315 0.105523
320 0.0751401
325 0.0682802
330 0.139426
335 0.101129
340 0.0758138
345 0.0822864
350 0.0742081
355 0.0913655
360 0.113823
365 0.0921163
370 0.203913
375 0.138924
380 0.142989
385 0.147675
390 0.180379
395 0.227707
400 0.231282
405 0.417899
410 0.502739
415 0.87939
420 29.2715
425 503.907
430 771.308
435 193.52
440 23.858
445 3.96593
450 1.5652
455 1.66921
460 1.70632
465 1.54344
470 1.57694
475 1.523
480 1.71592
485 2.53533
490 4.12756
495 4.05099
500 2.73168
505 2.4462
510 2.07495
515 1.65078
520 1.58925
525 1.45885
530 1.48163
535 1.27306
540 1.19424
545 1.16809
550 1.01137
555 0.96347
560 0.810831
565 0.783424
570 0.653566
575 0.570899
580 0.430586
585 0.365993
590 0.247532
595 0.275117
600 0.288785
Ex : 438
200 0.0928537
205 0.0831095
210 0.121276
215 0.125835
220 0.057173
225 0.0834072
230 0.0729649
235 0.0641643
240 0.067099
245 0.119622
250 0.0782875
255 0.0841785
260 0.062403
265 0.0659562
270 0.112267
275 0.0849331
280 0.10057
285 0.0889442
290 0.0631736
295 0.0554822
300 0.0537978
305 0.102321
310 0.102834
315 0.116377
320 0.102111
325 0.0629148
330 0.128041
335 0.113132
340 0.110395
345 0.133589
350 0.114007
355 0.115547
360 0.141772
365 0.153025
370 0.12609
375 0.121512
380 0.145337
385 0.12697
390 0.120909
395 0.15598
400 0.1719
405 0.260838
410 0.360317
415 0.430231
420 0.851322
425 28.2466
430 498.114
435 810.837
440 203.939
445 25.0422
450 4.17405
455 1.57514
460 1.60364
465 1.67625
470 1.51637
475 1.37621
480 1.35382
485 1.51942
490 2.12374
495 3.58801
500 4.02361
505 2.68334
510 2.16846
515 1.98402
520 1.76678
525 1.50931
530 1.44858
535 1.30223
540 1.17771
545 1.03749
550 1.01616
555 0.929129
560 0.7778
565 0.784424
570 0.534671
575 0.512346
580 0.440166
585 0.30544
590 0.320918
595 0.289399
600 0.0677995
Ex : 443
200 0.0966998
205 0.0942663
210 0.0960758
215 0.0993969
220 0.0740278
225 0.0632819
230 0.086045
235 0.104165
240 0.104419
245 0.0929368
250 0.0850876
255 0.0981316
260 0.0816847
265 0.0710691
270 0.0703046
275 0.0522501
280 0.115014
285 0.0906738
290 0.094739
295 0.0823039
300 0.0867227
305 0.0883425
310 0.0946507
315 0.063533
320 0.0915285
325 0.0776038
330 0.123256
335 0.103768
340 0.111941
345 0.106979
350 0.088672
355 0.0720115
360 0.0910996
365 0.124976
370 0.148864
375 0.16189
380 0.135918
385 0.168748
390 0.170825
395 0.200404
400 0.2154
405 0.217913
410 0.183448
415 0.36169
420 0.524472
425 0.930113
430 31.5052
435 540.472
440 840.271
445 208.925
450 25.6954
455 4.32844
460 1.78703
465 1.51785
470 1.66369
475 1.52894
480 1.32371
485 1.38716
490 1.46916
495 1.75451
500 3.14445
505 3.73523
510 2.61174
515 2.17102
520 2.00539
525 1.67259
530 1.38851
535 1.26875
540 1.10714
545 1.01838
550 0.992004
555 0.895901
560 0.830339
565 0.692153
570 0.71082
575 0.60396
580 0.408195
585 0.420387
590 0.274128
595 0.238248
600 0.275608
Ex : 448
200 0.0828738
205 0.0945713
210 0.0969798
215 0.109827
220 0.0740943
225 0.114639
230 0.116972
235 0.0917777
240 0.0705967
245 0.0657316
250 0.0988317
255 0.0694712
260 0.0785887
265 0.0944621
270 0.103359
275 0.133569
280 0.0660829
285 0.0940711
290 0.108578
295 0.0982774
300 0.0960898
305 0.0773714
310 0.102607
315 0.0880189
320 0.0812455
325 0.0514895
330 0.0972109
335 0.123933
340 0.114658
345 0.0943357
350 0.143037
355 0.100165
360 0.105107
365 0.0839751
370 0.150363
375 0.17673
380 0.14554
385 0.0823282
390 0.13764
395 0.16419
400 0.110353
405 0.158227
410 0.185325
415 0.249622
420 0.330855
425 0.499049
430 0.801724
435 32.8331
440 569.344
445 874.118
450 218.752
455 26.8389
460 4.55647
465 1.73906
470 1.51688
475 1.59768
480 1.58201
485 1.32007
490 1.26494
495 1.33968
500 1.3922
505 2.26826
510 3.32834
515 2.84819
520 1.95158
525 1.84379
530 1.56146
535 1.32985
540 1.11911
545 1.07889
550 0.938944
555 0.995556
560 0.823051
565 0.747578
570 0.716379
575 0.562433
580 0.435366
585 0.291617
590 0.285442
595 0.260615
600 0.21576
Ex : 453
200 0.131745
205 0.0913878
210 0.0907678
215 0.102241
220 0.107415
225 0.0588481
230 0.0533496
235 0.125242
240 0.0884047
245 0.060643
250 0.0726028
255 0.0743456
260 0.0709764
265 0.124991
270 0.073084
275 0.10047
280 0.0990347
285 0.0737349
290 0.109362
295 0.0669536
300 0.0721022
305 0.0884283
310 0.0839131
315 0.0822196
320 0.107086
325 0.144258
330 0.120316
335 0.068446
340 0.0612144
345 0.071285
350 0.110605
355 0.125973
360 0.101935
365 0.137483
370 0.0871532
375 0.123494
380 0.0809263
385 0.0940133
390 0.112829
395 0.138299
400 0.160674
405 0.163175
410 0.172811
415 0.193932
420 0.312987
425 0.370633
430 0.556953
435 0.915503
440 34.7766
445 630.658
450 930.827
455 218.329
460 26.8319
465 4.60931
470 1.68161
475 1.45933
480 1.69487
485 1.50157
490 1.35548
495 1.29513
500 1.2103
505 1.30379
510 1.87792
515 2.9905
520 2.94355
525 1.97465
530 1.93243
535 1.46596
540 1.11974
545 1.04279
550 0.983785
555 0.917975
560 0.797158
565 0.669679
570 0.596547
575 0.436997
580 0.43641
585 0.357212
590 0.295347
595 0.241439
600 0.173769
Ex : 458
200 0.118772
205 0.083037
210 0.119496
215 0.117829
220 0.110722
225 0.0553743
230 0.0739141
235 0.119889
240 0.0860937
245 0.0835035
250 0.0653611
255 0.0446938
260 0.0672099
265 0.0603654
270 0.0603663
275 0.0777795
280 0.0816783
285 0.0462575
290 0.0792122
295 0.190988
300 0.114738
305 0.0585757
310 0.0860439
315 0.0652573
320 0.0535818
325 0.0765357
330 0.116969
335 0.110374
340 0.123075
345 0.0824526
350 0.0839401
355 0.112934
360 0.0900244
365 0.123492
370 0.104124
375 0.135439
380 0.112841
385 0.133935
390 0.100683
395 0.128172
400 0.135243
405 0.138528
410 0.14071
415 0.211857
420 0.305954
425 0.318973
430 0.391706
435 0.566882
440 1.00538
445 38.7824
450 644.648
455 971.432
460 236.247
465 28.9077
470 4.90841
475 1.80825
480 1.50325
485 1.74999
490 1.52699
495 1.35723
500 1.18778
505 1.11636
510 1.16065
515 1.46007
520 2.39375
525 3.12484
530 2.18204
535 1.72069
540 1.59185
545 1.30114
550 1.19916
555 0.86907
560 0.791913
565 0.71377
570 0.646409
575 0.556576
580 0.3987
585 0.378156
590 0.245072
595 0.275975
600 0.350784
Ex : 463
200 0.0997161
205 0.0631116
210 0.057288
215 0.0669629
220 0.0879185
225 0.111244
230 0.0953375
235 0.0715015
240 0.0559426
245 0.106712
250 0.0626127
255 0.0771397
260 0.0748465
265 0.0653193
270 0.0689606
275 0.0586473
280 0.164325
285 0.126955
290 0.0900067
295 0.0646084
300 0.0569609
305 0.0740974
310 0.111605
315 0.0778632
320 0.0950336
325 0.0895593
330 0.0992415
335 0.0865917
340 0.102378
345 0.0958832
350 0.0705757
355 0.0771466
360 0.0753742
365 0.063965
370 0.146179
375 0.137333
380 0.134358
385 0.10947
390 0.102433
395 0.10987
400 0.105964
405 0.178457
410 0.214094
415 0.233057
420 0.198551
425 0.211693
430 0.282872
435 0.319391
440 0.528328
445 1.03823
450 38.1639
455 685.598
460 1057.81
465 256.014
470 31.2642
475 5.12183
480 1.87351
485 1.41347
490 1.54894
495 1.49023
500 1.20966
505 1.0974
510 1.09358
515 1.17938
520 1.18551
525 2.00126
530 3.0107
535 2.54165
540 1.58228
545 1.45979
550 1.31216
555 1.01518
560 0.85824
565 0.729012
570 0.719145
575 0.565238
580 0.497021
585 0.4122
590 0.344247
595 0.275767
600 0.148273
Ex : 468
200 0.0903025
205 0.0550309
210 0.0542389
215 0.0581384
220 0.0555563
225 0.086005
230 0.0445045
235 0.0441557
240 0.0547244
245 0.0580231
250 0.101129
255 0.0900339
260 0.100955
265 0.09333
270 0.0758651
275 0.063926
280 0.0773907
285 0.0899406
290 0.0781584
295 0.0692026
300 0.0812401
305 0.0877486
310 0.100958
315 0.0606065
320 0.0606237
325 0.108528
330 0.056865
335 0.0986143
340 0.109747
345 0.110538
350 0.0990746
355 0.0831318
360 0.0814678
365 0.146352
370 0.108024
375 0.110074
380 0.112493
385 0.0891712
390 0.0910973
395 0.0731948
400 0.1101
405 0.132426
410 0.132184
415 0.153164
420 0.168698
425 0.177257
430 0.208403
435 0.254391
440 0.396115
445 0.555107
450 0.996329
455 42.4781
460 697.388
465 1111.01
470 271.214
475 32.7498
480 5.2455
485 1.79721
490 1.33845
495 1.49644
500 1.414
505 1.26059
510 1.06174
515 1.01996
520 1.15403
525 1.09473
530 1.71605
535 2.49696
540 2.68367
545 1.7325
550 1.3363
555 1.37906
560 1.07783
565 0.823444
570 0.750066
575 0.571857
580 0.454557
585 0.430726
590 0.347749
595 0.308797
600 0.238531
Ex : 473
200 0.109476
205 0.0880077
210 0.0762474
215 0.0527658
220 0.0971453
225 0.131839
230 0.106944
235 0.06531
240 0.0916481
245 0.0707432
250 0.0595853
255 0.0898871
260 0.0969602
265 0.0665947
270 0.0971391
275 0.0955251
280 0.0678564
285 0.0506691
290 0.14282
295 0.0813073
300 0.0771526
305 0.0891869
310 0.100275
315 0.0746097
320 0.0781641
325 0.0795672
330 0.0450891
335 0.0925544
340 0.0664842
345 0.124979
350 0.112929
355 0.104444
360 0.0803815
365 0.0988078
370 0.122504
375 0.0886953
380 0.108697
385 0.129003
390 0.168478
395 0.12735
400 0.120371
405 0.113982
410 0.15686
415 0.168982
420 0.161779
425 0.131319
430 0.166194
435 0.231436
440 0.264443
445 0.341241
450 0.638389
455 1.03514
460 49.3095
465 774.667
470 1107.71
475 257.609
480 31.1583
485 5.02911
490 1.73339
495 1.14252
500 1.29655
505 1.37265
510 1.28946
515 1.07149
520 1.07602
525 1.15713
530 1.1076
535 1.23158
540 2.03498
545 2.6046
550 1.75509
555 1.3007
560 1.24799
565 0.933944
570 0.716643
575 0.638356
580 0.598859
585 0.395958
590 0.352348
595 0.3518
600 0.162621
Ex : 478
200 0.0835692
205 0.107134
210 0.0709082
215 0.0943189
220 0.0742092
225 0.0546938
230 0.0736452
235 0.0963761
240 0.125832
245 0.0779642
250 0.0655956
255 0.137723
260 0.103721
265 0.0642786
270 0.0689435
275 0.106495
280 0.156371
285 0.0513818
290 0.0938747
295 0.0750971
300 0.100353
305 0.11429
310 0.0949375
315 0.0861383
320 0.0845666
325 0.0769176
330 0.109661
335 0.0997111
340 0.0823053
345 0.114093
350 0.10123
355 0.0989381
360 0.0713177
365 0.113984
370 0.120743
375 0.151679
380 0.118346
385 0.10751
390 0.160269
395 0.148648
400 0.132832
405 0.143968
410 0.150636
415 0.129462
420 0.124853
425 0.124955
430 0.215435
435 0.243604
440 0.238726
445 0.311852
450 0.42191
455 0.725162
460 1.36952
465 56.3455
470 821.013
475 1166.02
480 282.032
485 34.1007
490 5.393
495 1.74586
500 1.17503
505 1.2664
510 1.35017
515 1.09713
520 0.99515
525 1.15147
530 1.13075
535 1.10961
540 1.18758
545 1.69607
550 2.39262
555 1.8385
560 1.21754
565 1.0983
570 0.9794
575 0.792993
580 0.554983
585 0.372552
590 0.44569
595 0.383942
600 0.533931
Ex : 483
200 0.117734
205 0.0809757
210 0.118573
215 0.124789
220 0.149913
225 0.0683122
230 0.108571
235 0.139534
240 0.120549
245 0.109068
250 0.0723032
255 0.093519
260 0.0853822
265 0.096406
270 0.131605
275 0.113009
280 0.098674
285 0.115314
290 0.0813716
295 0.0702575
300 0.121167
305 0.121776
310 0.107943
315 0.119185
320 0.155973
325 0.0600091
330 0.0852917
335 0.101197
340 0.0809497
345 0.141028
350 0.138495
355 0.0913011
360 0.148311
365 0.103149
370 0.125001
375 0.1085
380 0.12114
385 0.0947852
390 0.136784
395 0.151904
400 0.144793
405 0.123182
410 0.13431
415 0.161839
420 0.143123
425 0.142108
430 0.213416
435 0.15761
440 0.233196
445 0.227785
450 0.271552
455 0.399595
460 0.741665
465 1.382
470 44.7741
475 824.937
480 1267.18
485 306.1
490 36.8295
495 5.55869
500 1.84753
505 1.1584
510 1.20334
515 1.21714
520 1.41506
525 1.12677
530 1.09938
535 1.05331
540 1.15832
545 0.991446
550 1.2437
555 2.21007
560 2.01577
565 1.33997
570 0.945298
575 0.848064
580 0.602382
585 0.547574
590 0.481787
595 0.337764
600 0.453844
Ex : 488
200 0.101987
205 0.108323
210 0.11374
215 0.0798863
220 0.0907923
225 0.0890964
230 0.111398
235 0.0827517
240 0.11862
245 0.127399
250 0.110776
255 0.0643812
260 0.147713
265 0.0895517
270 0.103514
275 0.0911691
280 0.0772149
285 0.140716
290 0.097874
295 0.120686
300 0.0859319
305 0.116983
310 0.122352
315 0.103959
320 0.115863
325 0.186023
330 0.106859
335 0.108511
340 0.0920152
345 0.151436
350 0.109231
355 0.116163
360 0.0873964
365 0.0804768
370 0.107933
375 0.140112
380 0.138615
385 0.0838868
390 0.142599
395 0.151314
400 0.139894
405 0.0915321
410 0.174132
415 0.189507
420 0.190863
425 0.239183
430 0.204112
435 0.260939
440 0.230151
445 0.22567
450 0.308684
455 0.354961
460 0.493849
465 0.835523
470 1.39382
475 55.2462
480 900.196
485 1276.18
490 302.902
495 36.5726
500 5.58768
505 1.69601
510 1.18561
515 1.22726
520 1.45029
525 1.45848
530 1.10416
535 0.964752
540 1.08023
545 1.0317
550 0.917938
555 0.980652
560 1.63611
565 1.94721
570 1.41529
575 0.815669
580 0.63576
585 0.508414
590 0.502715
595 0.417418
600 0.28518
Ex : 493
200 0.0959386
205 0.114751
210 0.0800537
215 0.144272
220 0.110679
225 0.0865194
230 0.129594
235 0.0798703
240 0.0786141
245 0.107431
250 0.143643
255 0.129743
260 0.0906537
265 0.155435
270 0.0967295
275 0.0951932
280 0.0987624
285 0.10257
290 0.134619
295 0.131174
300 0.10291
305 0.13097
310 0.163328
315 0.105513
320 0.105126
325 0.0952212
330 0.121094
335 0.115901
340 0.110249
345 0.0981259
350 0.133833
355 0.135786
360 0.114008
365 0.121492
370 0.157975
375 0.115495
380 0.104286
385 0.0833962
390 0.12497
395 0.132996
400 0.0855874
405 0.134696
410 0.141002
415 0.14583
420 0.149052
425 0.14898
430 0.142226
435 0.163697
440 0.207518
445 0.261064
450 0.194278
455 0.237836
460 0.350481
465 0.651042
470 0.899595
475 1.40498
480 51.1488
485 905.053
490 1365.1
495 314.994
500 37.8835
505 5.44628
510 1.72461
515 1.16144
520 1.21312
525 1.26504
530 1.23481
535 1.16041
540 1.05107
545 1.03035
550 1.0269
555 0.912067
560 0.875758
565 1.11189
570 1.77605
575 1.47229
580 0.837116
585 0.636896
590 0.54381
595 0.425603
600 0.252426
Ex : 498
200 0.127187
205 0.129871
210 0.0795748
215 0.0980144
220 0.088672
225 0.0825391
230 0.105688
235 0.105541
240 0.135097
245 0.0942502
250 0.123358
255 0.118093
260 0.14256
265 0.13149
270 0.15441
275 0.0996041
280 0.114475
285 0.112572
290 0.113893
295 0.0955675
300 0.104263
305 0.0612617
310 0.0839009
315 0.16431
320 0.089917
325 0.121296
330 0.125723
335 0.095939
340 0.10906
345 0.154196
350 0.0858741
355 0.136475
360 0.131745
365 0.084533
370 0.161209
375 0.189883
380 0.109211
385 0.131509
390 0.148595
395 0.145692
400 0.172313
405 0.136355
410 0.204067
415 0.144543
420 0.155518
425 0.152736
430 0.225291
435 0.169041
440 0.162144
445 0.231275
450 0.31431
455 0.27242
460 0.331586
465 0.3987
470 0.527575
475 0.750057
480 1.57713
485 63.7049
490 963.586
495 1327.04
500 312.45
505 37.5006
510 5.53954
515 1.89161
520 1.26509
525 1.32616
530 1.38974
535 1.2928
540 1.21957
545 0.97191
550 0.988908
555 0.84595
560 0.849089
565 0.806335
570 0.793288
575 1.20737
580 1.25933
585 0.86429
590 0.557037
595 0.433557
600 0.123496
Ex : 503
200 0.183867
205 0.156151
210 0.0951573
215 0.1237
220 0.0615165
225 0.14221
230 0.128353
235 0.152833
240 0.182403
245 0.0909204
250 0.137642
255 0.165648
260 0.0892849
265 0.0819742
270 0.142985
275 0.0778104
280 0.0953226
285 0.10263
290 0.118143
295 0.0971674
300 0.126629
305 0.133526
310 0.167811
315 0.147954
320 0.210732
325 0.123931
330 0.0914158
335 0.178005
340 0.164798
345 0.157616
350 0.157254
355 0.101692
360 0.178673
365 0.0918231
370 0.106999
375 0.162195
380 0.129736
385 0.176769
390 0.177655
395 0.159282
400 0.161292
405 0.156959
410 0.143227
415 0.230518
420 0.176616
425 0.181304
430 0.179183
435 0.15665
440 0.213147
445 0.2402
450 0.210547
455 0.345227
460 0.26612
465 0.356161
470 0.420667
475 0.608882
480 0.754929
485 1.52572
490 57.2091
495 975.597
500 1402.98
505 325.405
510 39.4735
515 5.74702
520 2.11917
525 1.47213
530 1.21987
535 1.28747
540 1.22965
545 1.07299
550 0.917238
555 0.771514
560 0.669745
565 0.716093
570 0.657573
575 0.632865
580 0.865869
585 1.04971
590 0.825786
595 0.480709
600 0.0585897
Ex : 508
200 0.14046
205 0.110625
210 0.140367
215 0.0784614
220 0.164429
225 0.0994168
230 0.150871
235 0.0959293
240 0.201102
245 0.145066
250 0.149473
255 0.183439
260 0.140257
265 0.163661
270 0.110176
275 0.0997259
280 0.0916212
285 0.0935229
290 0.170591
295 0.0875373
300 0.102714
305 0.114188
310 0.143173
315 0.0825634
320 0.12799
325 0.149397
330 0.181869
335 0.179397
340 0.152035
345 0.132922
350 0.156268
355 0.147947
360 0.228187
365 0.154223
370 0.128496
375 0.145682
380 0.179949
385 0.106129
390 0.166331
395 0.12413
400 0.148546
405 0.181098
410 0.188071
415 0.163315
420 0.183227
425 0.147562
430 0.186717
435 0.138301
440 0.168699
445 0.2074
450 0.161473
455 0.248463
460 0.218425
465 0.331933
470 0.359102
475 0.422775
480 0.524067
485 0.901448
490 1.55385
495 64.6475
500 1001.68
505 1433.34
510 347.09
515 41.7757
520 6.25602
525 2.14493
530 1.2828
535 1.28374
540 1.32211
545 1.20831
550 1.11876
555 1.01985
560 0.885145
565 0.798469
570 0.675685
575 0.489191
580 0.504845
585 0.692681
590 0.90218
595 0.756763
600 0.422954
Ex : 513
200 0.303462
205 0.117699
210 0.0958128
215 0.137786
220 0.137733
225 0.285048
230 0.100576
235 0.150999
240 0.0860967
245 0.111254
250 0.0808146
255 0.107464
260 0.148039
265 0.114284
270 0.134647
275 0.104151
280 0.137969
285 0.158403
290 0.175702
295 0.186921
300 0.146335
305 0.126732
310 0.12739
315 0.0917915
320 0.22329
325 0.21006
330 0.119564
335 0.0900506
340 0.156298
345 0.160293
350 0.0971541
355 0.101195
360 0.157479
365 0.111283
370 0.128747
375 0.19261
380 0.15706
385 0.144417
390 0.137659
395 0.152911
400 0.196674
405 0.143864
410 0.144912
415 0.149948
420 0.191595
425 0.171803
430 0.209574
435 0.155656
440 0.165084
445 0.201172
450 0.228975
455 0.297052
460 0.281374
465 0.282649
470 0.290336
475 0.378134
480 0.406709
485 0.509236
490 0.764821
495 1.42693
500 59.2314
505 993.298
510 1475.63
515 361.93
520 43.5439
525 6.44349
530 2.00105
535 1.2142
540 0.978549
545 1.17389
550 1.2638
555 1.06361
560 0.876689
565 0.558653
570 0.707714
575 0.523439
580 0.474735
585 0.509219
590 0.431164
595 0.559417
600 1.18286
Ex : 518
200 0.0709655
205 0.154938
210 0.0985105
215 0.135079
220 0.10436
225 0.0888795
230 0.156685
235 0.212308
240 0.134271
245 0.126234
250 0.137888
255 0.10742
260 0.156043
265 0.124631
270 0.0877184
275 0.12681
280 0.108924
285 0.114704
290 0.0794002
295 0.137054
300 0.0648808
305 0.128192
310 0.135962
315 0.230713
320 0.125327
325 0.0919614
330 0.145525
335 0.124184
340 0.119373
345 0.124667
350 0.154528
355 0.130522
360 0.099935
365 0.161458
370 0.1666
375 0.219822
380 0.160766
385 0.194388
390 0.147312
395 0.12722
400 0.125431
405 0.120455
410 0.154039
415 0.155896
420 0.164205
425 0.135157
430 0.172504
435 0.253436
440 0.163079
445 0.20453
450 0.214671
455 0.187923
460 0.209861
465 0.282042
470 0.277222
475 0.291112
480 0.348388
485 0.35367
490 0.578182
495 0.704734
500 1.45022
505 60.5186
510 986.64
515 1476.78
520 362.299
525 43.679
530 6.51297
535 2.06044
540 1.31225
545 1.0298
550 1.08124
555 1.04409
560 1.09987
565 0.835756
570 0.663668
575 0.503511
580 0.547693
585 0.502975
590 0.372208
595 0.313813
600 0.457713
Ex : 523
200 0.155847
205 0.106125
210 0.12957
215 0.0972996
220 0.127689
225 0.134687
230 0.138293
235 0.161313
240 0.101142
245 0.161356
250 0.129098
255 0.113193
260 0.113731
265 0.108339
270 0.0748754
275 0.155098
280 0.111982
285 0.124555
290 0.119717
295 0.180516
300 0.1667
305 0.153522
310 0.0928963
315 0.144624
320 0.0921826
325 0.179131
330 0.222521
335 0.250947
340 0.161092
345 0.152417
350 0.18019
355 0.150109
360 0.130921
365 0.152867
370 0.157657
375 0.146627
380 0.178625
385 0.132438
390 0.175518
395 0.189131
400 0.161394
405 0.155922
410 0.180655
415 0.174849
420 0.214991
425 0.139406
430 0.16226
435 0.208133
440 0.213945
445 0.248081
450 0.228618
455 0.231348
460 0.262612
465 0.259234
470 0.19902
475 0.279563
480 0.270189
485 0.282472
490 0.543872
495 0.564622
500 0.744359
505 1.44768
510 55.6905
515 952.308
520 1469.86
525 376.886
530 45.1236
535 6.72443
540 1.922
545 1.37003
550 0.930769
555 1.03011
560 0.863322
565 0.798891
570 0.58278
575 0.557616
580 0.472261
585 0.528396
590 0.384291
595 0.415872
600 0.743319
Ex : 528
200 0.15625
205 0.107213
210 0.102858
215 0.118666
220 0.176478
225 0.16358
230 0.160722
235 0.11358
240 0.202888
245 0.115658
250 0.128197
255 0.181017
260 0.104222
265 0.141433
270 0.136003
275 0.148696
280 0.115521
285 0.1366
290 0.215981
295 0.224077
300 0.197847
305 0.118199
310 0.155421
315 0.18525
320 0.148022
325 0.100805
330 0.197007
335 0.171292
340 0.156526
345 0.18369
350 0.222693
355 0.22811
360 0.183109
365 0.118323
370 0.121979
375 0.154572
380 0.104921
385 0.119136
390 0.187889
395 0.148308
400 0.121749
405 0.196162
410 0.199845
415 0.21258
420 0.143376
425 0.165359
430 0.221942
435 0.159356
440 0.261987
445 0.227728
450 0.307318
455 0.219979
460 0.174216
465 0.215867
470 0.244301
475 0.210385
480 0.310072
485 0.335433
490 0.386768
495 0.399517
500 0.543554
505 0.866301
510 1.44913
515 53.6637
520 960.841
525 1482.83
530 372.306
535 44.8596
540 6.58703
545 1.96396
550 1.29441
555 1.03112
560 0.720556
565 0.770447
570 0.632371
575 0.474821
580 0.509436
585 0.420436
590 0.407908
595 0.3785
600 0.0430719
Ex : 533
200 0.175338
205 0.14641
210 0.113484
215 0.109442
220 0.10337
225 0.0970374
230 0.114968
235 0.0936773
240 0.0939238
245 0.144767
250 0.169438
255 0.208012
260 0.105007
265 0.13602
270 0.105967
275 0.245389
280 0.174937
285 0.164852
290 0.0786987
295 0.277822
300 0.168924
305 0.153228
310 0.169612
315 0.137402
320 0.145644
325 0.120761
330 0.179282
335 0.138071
340 0.185415
345 0.112163
350 0.141879
355 0.19006
360 0.149671
365 0.0883718
370 0.114994
375 0.180309
380 0.240927
385 0.122187
390 0.108819
395 0.193856
400 0.171443
405 0.186899
410 0.159644
415 0.176197
420 0.17578
425 0.14481
430 0.199492
435 0.161744
440 0.207628
445 0.155682
450 0.2133
455 0.220045
460 0.261109
465 0.25311
470 0.173225
475 0.325465
480 0.322694
485 0.328641
490 0.348622
495 0.332025
500 0.393428
505 0.624689
510 0.764419
515 1.47907
520 53.9392
525 937.442
530 1455.32
535 372.716
540 44.704
545 6.5545
550 1.78364
555 1.23261
560 0.759481
565 0.734006
570 0.772983
575 0.583995
580 0.514313
585 0.489668
590 0.492222
595 0.362591
600 0.0551809
Ex : 538
200 0.173328
205 0.149027
210 0.108428
215 0.116653
220 0.137304
225 0.239421
230 0.164188
235 0.11218
240 0.0902567
245 0.116081
250 0.131046
255 0.124235
260 0.113306
265 0.198817
270 0.103377
275 0.214072
280 0.122099
285 0.121393
290 0.0914926
295 0.179283
300 0.101873
305 0.134924
310 0.199648
315 0.249326
320 0.187854
325 0.148174
330 0.218678
335 0.139386
340 0.170239
345 0.242848
350 0.166681
355 0.140389
360 0.181288
365 0.130887
370 0.163748
375 0.0725138
380 0.142616
385 0.0891834
390 0.143935
395 0.23427
400 0.141393
405 0.118571
410 0.244863
415 0.143583
420 0.192846
425 0.15395
430 0.137261
435 0.137517
440 0.155472
445 0.145461
450 0.167027
455 0.187824
460 0.271536
465 0.191567
470 0.335649
475 0.22099
480 0.212554
485 0.227457
490 0.348672
495 0.337072
500 0.310247
505 0.468844
510 0.535357
515 0.950145
520 1.33992
525 43.6657
530 873.809
535 1455.97
540 396.367
545 47.5145
550 6.66012
555 1.63074
560 1.02676
565 0.528355
570 0.598861
575 0.623645
580 0.594059
585 0.555123
590 0.642045
595 0.414555
600 0.388581
Ex : 543
200 0.208003
205 0.101671
210 0.1169
215 0.14176
220 0.129757
225 0.151096
230 0.150256
235 0.178301
240 0.154818
245 0.134706
250 0.134105
255 0.133334
260 0.120393
265 0.137381
270 0.115434
275 0.106855
280 0.153139
285 0.175287
290 0.144728
295 0.282871
300 0.16468
305 0.15687
310 0.204526
315 0.150211
320 0.112351
325 0.102681
330 0.138183
335 0.150755
340 0.108742
345 0.121007
350 0.0844215
355 0.129393
360 0.144158
365 0.168399
370 0.123888
375 0.138796
380 0.216625
385 0.113912
390 0.179934
395 0.106264
400 0.181663
405 0.169219
410 0.169679
415 0.170626
420 0.138277
425 0.140834
430 0.128816
435 0.154104
440 0.180392
445 0.196213
450 0.134769
455 0.228124
460 0.198477
465 0.190514
470 0.304964
475 0.193793
480 0.181633
485 0.239923
490 0.315031
495 0.290453
500 0.303404
505 0.314424
510 0.3878
515 0.532636
520 0.755847
525 1.35306
530 42.6589
535 866.645
540 1470.83
545 408.705
550 49.1406
555 6.73783
560 1.57354
565 0.788652
570 0.767875
575 0.506254
580 0.35987
585 0.468409
590 0.45673
595 0.445279
600 0.311609
Ex : 548
200 0.263428
205 0.211915
210 0.19926
215 0.142769
220 0.174126
225 0.131182
230 0.0959594
235 0.134874
240 0.111505
245 0.223026
250 0.16993
255 0.199064
260 0.163023
265 0.130958
270 0.163858
275 0.161059
280 0.177393
285 0.149341
290 0.132808
295 0.198729
300 0.174937
305 0.120406
310 0.165076
315 0.119302
320 0.20302
325 0.111699
330 0.148346
335 0.120891
340 0.17401
345 0.105986
350 0.179874
355 0.117522
360 0.125258
365 0.151541
370 0.163935
375 0.128404
380 0.185115
385 0.203355
390 0.177184
395 0.14907
400 0.138701
405 0.138442
410 0.255374
415 0.206593
420 0.22191
425 0.221179
430 0.216057
435 0.151652
440 0.183496
445 0.136038
450 0.195097
455 0.224068
460 0.204579
465 0.258912
470 0.189518
475 0.296683
480 0.220504
485 0.308658
490 0.264813
495 0.217017
500 0.290898
505 0.406817
510 0.356865
515 0.459972
520 0.588631
525 0.772489
530 1.37222
535 46.5818
540 867.076
545 1444.01
550 399.855
555 47.8529
560 6.54204
565 1.46533
570 0.903048
575 0.650592
580 0.417424
585 0.47175
590 0.447431
595 0.418278
600 0.0830465
Ex : 553
200 0.152168
205 0.132952
210 0.1425
215 0.119248
220 0.13698
225 0.190325
230 0.172783
235 0.154484
240 0.179187
245 0.192729
250 0.237775
255 0.119504
260 0.157914
265 0.0855332
270 0.130294
275 0.122106
280 0.139565
285 0.177203
290 0.132727
295 0.194625
300 0.229955
305 0.143606
310 0.200101
315 0.11074
320 0.146477
325 0.220716
330 0.211375
335 0.151372
340 0.16313
345 0.142731
350 0.113012
355 0.201742
360 0.116905
365 0.142641
370 0.149331
375 0.108027
380 0.220303
385 0.254387
390 0.206413
395 0.158335
400 0.160298
405 0.129815
410 0.14908
415 0.141825
420 0.180399
425 0.163964
430 0.279277
435 0.174043
440 0.104182
445 0.300917
450 0.351682
455 0.204072
460 0.258667
465 0.205146
470 0.298839
475 0.217394
480 0.185365
485 0.269776
490 0.231637
495 0.304612
500 0.306715
505 0.253479
510 0.263616
515 0.316343
520 0.458172
525 0.654762
530 0.576503
535 1.33715
540 38.9577
545 815.565
550 1420.6
555 403.005
560 48.3724
565 6.56972
570 1.42957
575 0.803317
580 0.398648
585 0.463631
590 0.496862
595 0.385097
600 0.877897
Ex : 558
200 0.194924
205 0.141019
210 0.169434
215 0.115146
220 0.142621
225 0.164642
230 0.15151
235 0.203083
240 0.246762
245 0.116236
250 0.225988
255 0.186388
260 0.133681
265 0.0980002
270 0.150532
275 0.132829
280 0.147224
285 0.158047
290 0.0975295
295 0.155433
300 0.158622
305 0.173362
310 0.13401
315 0.101061
320 0.120425
325 0.235093
330 0.225468
335 0.227208
340 0.190866
345 0.264817
350 0.251267
355 0.179708
360 0.196066
365 0.252513
370 0.221057
375 0.284057
380 0.144032
385 0.177331
390 0.172947
395 0.134046
400 0.193962
405 0.189001
410 0.193302
415 0.246545
420 0.199633
425 0.19422
430 0.179208
435 0.177858
440 0.169143
445 0.134952
450 0.190918
455 0.172769
460 0.16796
465 0.3055
470 0.271525
475 0.167734
480 0.125447
485 0.261156
490 0.15236
495 0.233577
500 0.259452
505 0.256085
510 0.361211
515 0.32831
520 0.292578
525 0.356361
530 0.447362
535 0.705633
540 1.35483
545 37.3266
550 776.43
555 1394.19
560 399.889
565 47.7521
570 6.40881
575 1.29597
580 0.620187
585 0.589856
590 0.449289
595 0.370248
600 0.425794
Ex : 563
200 0.16278
205 0.278859
210 0.157688
215 0.200829
220 0.140889
225 0.107501
230 0.144053
235 0.176661
240 0.158034
245 0.129646
250 0.163409
255 0.164216
260 0.246811
265 0.148805
270 0.247861
275 0.177771
280 0.12981
285 0.198317
290 0.129745
295 0.114663
300 0.147653
305 0.119277
310 0.168911
315 0.164101
320 0.129067
325 0.208171
330 0.21833
335 0.15886
340 0.153505
345 0.133459
350 0.154636
355 0.168594
360 0.191191
365 0.182897
370 0.193838
375 0.150338
380 0.156505
385 0.181583
390 0.184835
395 0.294769
400 0.199599
405 0.207506
410 0.272733
415 0.220146
420 0.262543
425 0.202911
430 0.174171
435 0.189771
440 0.183376
445 0.187031
450 0.249938
455 0.213685
460 0.195594
465 0.184848
470 0.23618
475 0.306007
480 0.26795
485 0.241708
490 0.242323
495 0.228599
500 0.256461
505 0.203007
510 0.213575
515 0.375723
520 0.295672
525 0.391279
530 0.461887
535 0.54617
540 0.605795
545 1.36369
550 36.5337
555 763.123
560 1345.68
565 387.518
570 46.5493
575 6.27423
580 1.26528
585 0.593152
590 0.411764
595 0.523542
600 0.222235
Ex : 568
200 0.10653
205 0.247751
210 0.152891
215 0.215127
220 0.100174
225 0.125589
230 0.17377
235 0.166037
240 0.219643
245 0.138888
250 0.27206
255 0.117232
260 0.106019
265 0.193074
270 0.213927
275 0.154934
280 0.128852
285 0.192068
290 0.203575
295 0.158818
300 0.21661
305 0.172122
310 0.194304
315 0.187289
320 0.175596
325 0.159952
330 0.234031
335 0.0918485
340 0.154513
345 0.158231
350 0.215046
355 0.148323
360 0.238326
365 0.235647
370 0.176554
375 0.161692
380 0.299234
385 0.213406
390 0.159707
395 0.342632
400 0.266938
405 0.296769
410 0.213089
415 0.134406
420 0.207399
425 0.163089
430 0.255212
435 0.250388
440 0.178623
445 0.197705
450 0.257496
455 0.122536
460 0.296173
465 0.20829
470 0.200916
475 0.285184
480 0.177159
485 0.197291
490 0.32987
495 0.260523
500 0.251061
505 0.211629
510 0.303047
515 0.230963
520 0.282862
525 0.281588
530 0.305517
535 0.412626
540 0.489236
545 0.639846
550 1.30482
555 27.8378
560 686.966
565 1319.78
570 400.221
575 48.1611
580 6.33085
585 1.36751
590 0.687993
595 0.44197
600 0.44795
Ex : 573
200 0.170666
205 0.152047
210 0.158494
215 0.153586
220 0.257497
225 0.1528
230 0.158514
235 0.237967
240 0.179635
245 0.0975521
250 0.189506
255 0.134108
260 0.224738
265 0.127601
270 0.162598
275 0.129173
280 0.142068
285 0.185331
290 0.256912
295 0.204875
300 0.193646
305 0.211512
310 0.122254
315 0.155592
320 0.106087
325 0.137645
330 0.267279
335 0.126259
340 0.158236
345 0.178815
350 0.180428
355 0.124791
360 0.261152
365 0.223059
370 0.117436
375 0.182708
380 0.268094
385 0.240167
390 0.219158
395 0.275104
400 0.156999
405 0.120262
410 0.160701
415 0.155634
420 0.231573
425 0.224573
430 0.221793
435 0.187587
440 0.241946
445 0.163051
450 0.213993
455 0.201282
460 0.202044
465 0.203758
470 0.235701
475 0.239522
480 0.173694
485 0.29681
490 0.274377
495 0.268073
500 0.199662
505 0.207611
510 0.155394
515 0.235256
520 0.309554
525 0.317462
530 0.363034
535 0.427049
540 0.563035
545 0.469052
550 0.956885
555 1.05025
560 24.0785
565 604.474
570 1234.77
575 383.113
580 45.9814
585 5.72183
590 1.11888
595 0.611157
600 1.42526
Ex : 578
200 0.246438
205 0.141934
210 0.103026
215 0.111931
220 0.166079
225 0.218383
230 0.142748
235 0.13226
240 0.169072
245 0.255376
250 0.17331
255 0.139389
260 0.188546
265 0.241702
270 0.228414
275 0.253467
280 0.183105
285 0.251762
290 0.22597
295 0.158739
300 0.130964
305 0.201327
310 0.180341
315 0.212714
320 0.117987
325 0.193196
330 0.173855
335 0.147299
340 0.220601
345 0.124939
350 0.128707
355 0.128415
360 0.18074
365 0.201236
370 0.184874
375 0.112544
380 0.204978
385 0.166618
390 0.185268
395 0.219747
400 0.111881
405 0.183608
410 0.153766
415 0.13387
420 0.168459
425 0.162563
430 0.219949
435 0.29939
440 0.145878
445 0.244565
450 0.18149
455 0.183434
460 0.328184
465 0.309478
470 0.199265
475 0.236105
480 0.263442
485 0.258067
490 0.181138
495 0.260305
500 0.19613
505 0.309442
510 0.237729
515 0.1603
520 0.327599
525 0.27677
530 0.357215
535 0.301161
540 0.270959
545 0.343756
550 0.534145
555 0.690638
560 0.934693
565 20.8551
570 545.109
575 1065.76
580 322.553
585 38.4366
590 5.02616
595 1.00536
600 0.45432
Ex : 583
200 0.190921
205 0.22355
210 0.156579
215 0.194584
220 0.16002
225 0.219878
230 0.203949
235 0.131565
240 0.170165
245 0.140542
250 0.10294
255 0.183695
260 0.18662
265 0.145754
270 0.204813
275 0.169965
280 0.143467
285 0.149137
290 0.216803
295 0.235786
300 0.119756
305 0.160091
310 0.10353
315 0.139388
320 0.175501
325 0.167597
330 0.151233
335 0.159659
340 0.119304
345 0.187019
350 0.10781
355 0.132652
360 0.122555
365 0.206916
370 0.116611
375 0.20046
380 0.174209
385 0.336336
390 0.194865
395 0.209727
400 0.140464
405 0.186765
410 0.128717
415 0.192574
420 0.18016
425 0.171141
430 0.162358
435 0.229164
440 0.122909
445 0.221031
450 0.276266
455 0.190301
460 0.180338
465 0.193527
470 0.19667
475 0.349725
480 0.291485
485 0.296427
490 0.17248
495 0.278809
500 0.181197
505 0.155216
510 0.171539
515 0.268337
520 0.2323
525 0.299136
530 0.212632
535 0.262802
540 0.242205
545 0.339661
550 0.520473
555 0.582346
560 0.511005
565 0.97706
570 18.5186
575 492.356
580 930.46
585 272.062
590 32.4991
595 4.1892
600 0.507486
Ex : 588
200 0.133677
205 0.204431
210 0.150985
215 0.324898
220 0.209033
225 0.168744
230 0.126555
235 0.112455
240 0.214396
245 0.249667
250 0.215901
255 0.165027
260 0.179599
265 0.153853
270 0.182581
275 0.201048
280 0.145774
285 0.188102
290 0.245975
295 0.146996
300 0.27179
305 0.191692
310 0.0978223
315 0.204734
320 0.157753
325 0.179613
330 0.202852
335 0.160381
340 0.219485
345 0.163215
350 0.13226
355 0.217616
360 0.124019
365 0.217403
370 0.200782
375 0.144496
380 0.202906
385 0.197091
390 0.224181
395 0.194598
400 0.193678
405 0.283177
410 0.335757
415 0.170977
420 0.225522
425 0.156019
430 0.231435
435 0.206874
440 0.133446
445 0.237547
450 0.143341
455 0.200725
460 0.185364
465 0.251692
470 0.180231
475 0.21529
480 0.320463
485 0.316857
490 0.220593
495 0.223534
500 0.196116
505 0.19885
510 0.272052
515 0.219184
520 0.221431
525 0.340815
530 0.319251
535 0.24033
540 0.183112
545 0.254399
550 0.306457
555 0.341506
560 0.462082
565 0.575961
570 1.07901
575 16.1638
580 408.872
585 796.548
590 239.45
595 28.7688
600 3.33242
Ex : 593
200 0.2
205 0.169363
210 0.183773
215 0.1462
220 0.228851
225 0.113972
230 0.130817
235 0.229389
240 0.229421
245 0.233001
250 0.178513
255 0.120424
260 0.244481
265 0.23135
270 0.237878
275 0.168585
280 0.320661
285 0.136642
290 0.134448
295 0.223969
300 0.2518
305 0.158374
310 0.162486
315 0.112363
320 0.217739
325 0.197024
330 0.135228
335 0.126305
340 0.176638
345 0.226032
350 0.249405
355 0.135395
360 0.191231
365 0.275077
370 0.180363
375 0.285984
380 0.188317
385 0.295359
390 0.165322
395 0.163179
400 0.3044
405 0.124404
410 0.174933
415 0.219929
420 0.324654
425 0.277525
430 0.156792
435 0.248403
440 0.100735
445 0.247752
450 0.227605
455 0.225923
460 0.194911
465 0.286255
470 0.1589
475 0.257518
480 0.256665
485 0.206674
490 0.251722
495 0.316979
500 0.322618
505 0.143852
510 0.22846
515 0.112641
520 0.200272
525 0.137295
530 0.288264
535 0.277058
540 0.295959
545 0.438916
550 0.428596
555 0.423916
560 0.309967
565 0.545915
570 0.588
575 0.787897
580 14.392
585 363.475
590 680.782
595 207.322
600 31.2997
Ex : 598
200 0.246314
205 0.148914
210 0.160467
215 0.197194
220 0.188624
225 0.185758
230 0.257665
235 0.17091
240 0.148862
245 0.21087
250 0.17742
255 0.155537
260 0.178812
265 0.177044
270 0.315997
275 0.115467
280 0.400264
285 0.180435
290 0.181752
295 0.201929
300 0.169385
305 0.171697
310 0.22872
315 0.145593
320 0.221505
325 0.154195
330 0.13365
335 0.240569
340 0.187371
345 0.174452
350 0.280649
355 0.217847
360 0.202708
365 0.241135
370 0.224861
375 0.196213
380 0.144482
385 0.210367
390 0.180686
395 0.281865
400 0.190991
405 0.285351
410 0.195773
415 0.297237
420 0.329338
425 0.173482
430 0.177198
435 0.225788
440 0.367346
445 0.188185
450 0.225923
455 0.287442
460 0.247506
465 0.159317
470 0.140706
475 0.136113
480 0.202449
485 0.146765
490 0.228168
495 0.160315
500 0.226555
505 0.282778
510 0.246878
515 0.273307
520 0.253538
525 0.38085
530 0.158561
535 0.167292
540 0.252957
545 0.306899
550 0.277934
555 0.384623
560 0.448043
565 0.383608
570 0.378727
575 0.475011
580 0.510859
585 13.2622
590 322.242
595 593.673
600 380.297
Ex : 603
200 0.202507
205 0.269882
210 0.182387
215 0.181595
220 0.207419
225 0.119162
230 0.216162
235 0.204284
240 0.181136
245 0.190266
250 0.13639
255 0.162377
260 0.220653
265 0.229198
270 0.193785
275 0.185559
280 0.229727
285 0.179574
290 0.144814
295 0.223067
300 0.207183
305 0.162492
310 0.216303
315 0.176434
320 0.130632
325 0.196794
330 0.279362
335 0.17993
340 0.136419
345 0.146102
350 0.180971
355 0.179244
360 0.219649
365 0.12172
370 0.179168
375 0.265864
380 0.170107
385 0.194493
390 0.225455
395 0.230205
400 0.204138
405 0.224154
410 0.262426
415 0.200321
420 0.20808
425 0.14643
430 0.181942
435 0.24843
440 0.442791
445 0.20198
450 0.148232
455 0.1958
460 0.318968
465 0.229118
470 0.266207
475 0.336098
480 0.240742
485 0.200532
490 0.232553
495 0.335021
500 0.319867
505 0.263348
510 0.241675
515 0.179332
520 0.284901
525 0.138338
530 0.205694
535 0.297424
540 0.230741
545 0.307026
550 0.205078
555 0.188971
560 0.242572
565 0.265498
570 0.376211
575 0.418942
580 0.356393
585 0.63171
590 12.1312
595 280.714
600 551.191
