File format V 1.0
jeu. 5. janv. 18:53:58 2017
Operator : 
Comments : 

=============================================
SpectroFluorometer parameters
Mode : 3D measurement
Data : Fluorescence
Phospho. : Ordinary
Spectrum : Fluorescence

Scan speed : 2400 nm/mn
Response : 100 ms
PM Voltage : 700 V
Shutter : On

Lambda Ex. Start : 203
Lambda Ex. End : 603
Lambda Ex. Step : 5
Ex. Slit : 5 nm

Lambda Em. Start : 200
Lambda Em. End : 600
Lambda Em. Step : 5
Em. Slit : 5 nm

Repetition : 1
Decal lambda em : 10
=============================================
DATA
Ex : 203
200 4.68421
205 5.10845
210 5.72526
215 4.70273
220 6.52066
225 5.67645
230 7.78251
235 4.36676
240 6.58566
245 6.23472
250 4.58135
255 3.00066
260 5.39611
265 4.64453
270 3.71032
275 3.66654
280 7.79873
285 4.16642
290 4.32278
295 5.31511
300 3.19781
305 3.75706
310 6.01784
315 3.28181
320 5.77714
325 4.09381
330 3.55328
335 7.75876
340 6.24877
345 5.57269
350 5.68074
355 2.84443
360 6.45326
365 3.86899
370 5.35072
375 6.23307
380 6.58356
385 5.96677
390 6.4216
395 4.61486
400 4.52948
405 4.86023
410 4.81552
415 5.8491
420 3.92503
425 7.56076
430 5.43911
435 4.68276
440 6.52506
445 3.56086
450 6.39817
455 5.96654
460 6.36765
465 4.83193
470 5.72529
475 8.57781
480 6.71718
485 6.71538
490 4.43845
495 5.55746
500 6.49064
505 4.73774
510 5.54301
515 8.26877
520 3.519
525 4.12352
530 7.35278
535 5.87036
540 4.46681
545 4.78178
550 4.52401
555 6.00421
560 3.74335
565 4.24098
570 3.74221
575 4.12002
580 3.65918
585 4.96732
590 5.73563
595 6.28388
600 0.715082
Ex : 208
200 3.69364
205 5.08731
210 5.8864
215 4.64004
220 5.86126
225 3.50665
230 6.22492
235 8.16471
240 5.52035
245 6.44905
250 4.86949
255 5.80204
260 4.09245
265 5.45188
270 6.27357
275 3.42887
280 3.63617
285 3.28002
290 3.71036
295 6.51682
300 4.08714
305 2.85924
310 5.73826
315 5.04876
320 8.22767
325 5.18696
330 9.22111
335 6.3764
340 4.3943
345 4.82862
350 3.98622
355 4.26083
360 5.76644
365 7.71018
370 3.65222
375 6.88585
380 4.38857
385 4.13724
390 5.90912
395 3.99695
400 4.41612
405 3.87211
410 3.39965
415 4.71307
420 5.94025
425 5.07346
430 5.67816
435 4.45336
440 6.97713
445 4.69895
450 5.44139
455 9.42407
460 6.05671
465 4.92047
470 3.55638
475 6.29594
480 6.49739
485 5.28959
490 6.66294
495 5.27891
500 5.98055
505 5.65612
510 4.61663
515 4.35002
520 7.28925
525 5.08327
530 4.74912
535 7.05164
540 4.89801
545 4.12268
550 5.61576
555 3.53626
560 6.70097
565 9.15092
570 5.05947
575 4.91768
580 5.98258
585 6.56959
590 3.85184
595 5.17398
600 8.21013
Ex : 213
200 4.86316
205 2.94208
210 4.25941
215 2.70264
220 4.89433
225 5.30884
230 5.02502
235 3.84839
240 5.62103
245 8.95709
250 4.90421
255 10.0294
260 5.43265
265 6.67485
270 7.25679
275 5.42265
280 5.22826
285 4.64921
290 2.96219
295 3.45694
300 4.38597
305 4.94558
310 3.3399
315 5.48056
320 4.08038
325 3.24732
330 3.12192
335 6.59584
340 5.66323
345 3.48691
350 7.6102
355 5.23157
360 2.64439
365 5.10304
370 4.66231
375 4.28825
380 4.30672
385 6.13191
390 4.2426
395 5.49924
400 5.18948
405 6.84089
410 3.98662
415 4.83663
420 4.21017
425 5.6263
430 3.63741
435 5.71587
440 4.67485
445 5.36671
450 3.94264
455 4.42197
460 5.39446
465 5.93624
470 6.09121
475 4.98555
480 4.61094
485 6.6216
490 5.88652
495 4.56283
500 7.4539
505 5.58894
510 3.19556
515 6.07831
520 5.20192
525 3.75768
530 3.78356
535 4.04395
540 3.77469
545 4.17076
550 3.46745
555 6.18709
560 4.34565
565 3.9171
570 3.95342
575 7.01935
580 6.84581
585 4.314
590 6.84446
595 8.17086
600 1.37291
Ex : 218
200 5.82317
205 4.38977
210 5.73307
215 7.21229
220 3.14761
225 5.77279
230 6.21294
235 3.38576
240 4.73434
245 4.61529
250 5.11143
255 6.46507
260 6.51758
265 2.99605
270 5.60277
275 4.57213
280 2.17229
285 2.88249
290 5.39354
295 5.30117
300 4.08743
305 3.63428
310 5.52669
315 6.5848
320 2.79145
325 4.46712
330 3.70878
335 9.33225
340 5.56939
345 4.12413
350 4.61157
355 4.7509
360 6.60697
365 5.22441
370 5.97951
375 3.09394
380 5.99352
385 3.78647
390 3.8264
395 3.51454
400 4.12979
405 4.17634
410 4.6431
415 6.93273
420 4.26109
425 5.98328
430 6.5045
435 8.81394
440 6.32471
445 3.61292
450 5.78983
455 4.41776
460 5.2259
465 4.7809
470 4.97
475 4.3216
480 6.92179
485 5.27877
490 5.21268
495 4.46641
500 4.52947
505 3.2067
510 3.51586
515 5.80401
520 12.9092
525 7.81928
530 6.9918
535 5.59667
540 5.03734
545 6.1249
550 3.77879
555 3.03814
560 3.70551
565 4.13429
570 6.60491
575 3.35254
580 3.23146
585 3.55495
590 7.3689
595 5.78264
600 0.658042
Ex : 223
200 6.32105
205 2.92258
210 4.93099
215 4.02673
220 6.56319
225 5.4636
230 3.30392
235 6.09247
240 4.93723
245 6.61295
250 5.50716
255 3.85535
260 6.31444
265 3.68687
270 4.21618
275 3.97684
280 5.14365
285 3.75674
290 3.22008
295 4.48467
300 2.07423
305 3.12384
310 4.67922
315 6.06092
320 7.05708
325 6.10615
330 3.85987
335 6.44104
340 4.4153
345 8.73371
350 5.44845
355 4.35949
360 4.60312
365 5.58503
370 5.18238
375 5.33266
380 3.28902
385 5.19687
390 3.5619
395 3.78428
400 7.45443
405 6.25015
410 4.8421
415 3.24655
420 3.46634
425 6.52403
430 3.61671
435 4.22507
440 6.53215
445 6.15223
450 5.47602
455 8.05439
460 3.80124
465 5.14446
470 5.43909
475 9.46692
480 6.47744
485 4.25784
490 4.73092
495 2.76083
500 5.32444
505 3.18949
510 7.77704
515 7.2992
520 5.27683
525 4.98839
530 4.30472
535 5.59856
540 6.40966
545 4.45805
550 6.47345
555 6.88931
560 5.51356
565 6.86493
570 5.70895
575 3.78622
580 6.29814
585 5.39889
590 3.26256
595 3.75495
600 11.5048
Ex : 228
200 3.19372
205 5.27199
210 5.25722
215 5.31396
220 5.32501
225 3.73784
230 3.86275
235 3.39207
240 6.40927
245 4.03206
250 4.78134
255 3.20716
260 4.46899
265 4.25606
270 4.99221
275 4.52266
280 4.3701
285 3.69301
290 5.86407
295 2.24495
300 4.63292
305 2.95425
310 2.39814
315 3.80858
320 5.29616
325 4.25708
330 3.07041
335 9.86418
340 8.58554
345 5.3642
350 7.03316
355 5.95562
360 4.22254
365 4.61292
370 5.76757
375 3.02938
380 5.35313
385 6.2881
390 3.38937
395 3.30636
400 4.00476
405 3.88455
410 5.30942
415 3.09099
420 5.53121
425 6.37515
430 2.93621
435 4.81991
440 5.65302
445 5.38655
450 4.67882
455 4.48049
460 5.77323
465 3.30181
470 7.72265
475 4.33319
480 7.16437
485 5.3014
490 3.204
495 4.51697
500 5.02519
505 3.24792
510 3.20545
515 2.75525
520 3.16273
525 2.87494
530 4.05115
535 3.03282
540 4.77614
545 7.02477
550 5.68511
555 3.86866
560 6.92116
565 3.37729
570 5.76703
575 4.15265
580 2.9364
585 4.2985
590 3.8848
595 3.28726
600 3.91889
Ex : 233
200 2.3066
205 4.85653
210 4.22779
215 2.47917
220 5.8513
225 3.36687
230 4.07493
235 5.15513
240 4.7328
245 4.46946
250 3.92802
255 3.60893
260 3.06497
265 5.88865
270 6.17413
275 3.98984
280 6.82449
285 4.07972
290 2.82299
295 4.67321
300 3.46409
305 2.56864
310 2.07762
315 5.3917
320 4.69009
325 4.86721
330 4.63484
335 3.43795
340 5.12465
345 5.76024
350 5.96833
355 6.11369
360 3.85954
365 4.43814
370 5.83104
375 6.73536
380 4.23778
385 2.63923
390 5.12713
395 3.03354
400 2.99025
405 5.40109
410 3.17381
415 5.29664
420 3.47511
425 3.50925
430 4.26952
435 2.49078
440 3.58851
445 5.07714
450 9.07489
455 4.49104
460 3.46788
465 5.25067
470 5.82785
475 4.32321
480 11.9357
485 3.03218
490 5.45549
495 4.14782
500 4.21159
505 3.59852
510 3.25583
515 6.20679
520 3.08021
525 3.36793
530 3.12564
535 4.3328
540 4.2626
545 5.66828
550 3.68576
555 3.85347
560 4.80233
565 3.37287
570 4.5814
575 1.6971
580 6.79042
585 2.91921
590 2.85221
595 1.66858
600 0.189878
Ex : 238
200 4.20346
205 4.47802
210 2.03791
215 2.90547
220 6.95277
225 3.91623
230 2.35617
235 5.01192
240 3.8723
245 4.13908
250 3.67378
255 2.53218
260 5.03105
265 2.34878
270 3.70501
275 6.24466
280 2.86339
285 2.76189
290 3.81269
295 2.78389
300 4.03729
305 4.27901
310 3.60219
315 2.36762
320 3.3751
325 5.68252
330 2.88062
335 4.72545
340 3.9756
345 4.00873
350 2.93001
355 3.56999
360 3.49282
365 3.81086
370 5.33361
375 2.95301
380 6.42474
385 5.14492
390 4.4959
395 4.78834
400 3.68254
405 6.90861
410 3.39486
415 3.50221
420 4.4856
425 4.77455
430 4.51695
435 4.08436
440 2.58098
445 3.26578
450 3.16658
455 9.12433
460 3.79273
465 4.24818
470 5.49374
475 3.57671
480 3.42835
485 2.70731
490 3.84906
495 5.03589
500 3.39853
505 4.90916
510 6.28053
515 4.14972
520 3.32383
525 3.27109
530 3.21263
535 6.10444
540 3.4934
545 2.4758
550 2.89458
555 4.90412
560 3.30305
565 3.90167
570 4.05151
575 6.72639
580 4.33399
585 3.06432
590 2.42288
595 3.99095
600 0.454155
Ex : 243
200 2.43609
205 2.55603
210 2.95624
215 2.20014
220 2.98768
225 3.27233
230 4.36696
235 2.73753
240 2.90035
245 3.24332
250 2.46196
255 3.32047
260 2.31622
265 3.71768
270 3.421
275 2.66083
280 4.06642
285 4.53716
290 4.80372
295 2.08878
300 2.0806
305 2.88483
310 3.81811
315 4.18177
320 4.24136
325 4.55986
330 4.18472
335 3.16537
340 2.87926
345 2.58409
350 2.45805
355 2.6627
360 5.33538
365 3.30559
370 4.97458
375 9.70724
380 4.31758
385 2.90415
390 3.51812
395 2.13625
400 4.21856
405 3.72947
410 3.26366
415 3.07414
420 8.56056
425 4.31368
430 2.31272
435 3.01144
440 2.85769
445 3.2255
450 2.90051
455 2.91311
460 2.4682
465 3.56185
470 2.1882
475 6.89897
480 4.25313
485 3.79225
490 3.02327
495 2.86764
500 5.50721
505 3.79123
510 2.36465
515 2.35596
520 5.1306
525 2.4937
530 4.69826
535 3.10603
540 2.46848
545 2.96301
550 4.27913
555 4.31293
560 5.53085
565 3.85895
570 3.40119
575 2.33602
580 3.76878
585 2.90184
590 3.24688
595 3.34151
600 0.380251
Ex : 248
200 2.68987
205 2.41802
210 3.41477
215 5.83369
220 3.77541
225 1.73107
230 2.62822
235 2.02914
240 1.67951
245 1.6278
250 3.45421
255 1.90379
260 1.51835
265 2.84345
270 1.65871
275 2.16333
280 2.44004
285 2.58592
290 1.49796
295 4.17426
300 2.21929
305 2.14659
310 2.91746
315 3.49529
320 1.64379
325 2.87871
330 2.81612
335 3.66867
340 4.05092
345 3.04782
350 3.50696
355 3.65632
360 3.0248
365 3.61635
370 3.13476
375 3.25622
380 3.35246
385 2.21164
390 2.38828
395 2.63887
400 4.59107
405 3.90293
410 2.49057
415 4.04254
420 2.71832
425 1.85133
430 3.38376
435 3.22507
440 3.73918
445 4.57005
450 3.6634
455 2.99305
460 1.48585
465 2.94027
470 2.30196
475 2.71628
480 4.60378
485 3.71535
490 5.26674
495 5.8395
500 3.25603
505 2.97282
510 3.02297
515 1.89561
520 2.15181
525 1.91818
530 5.28189
535 4.7237
540 3.03373
545 3.02372
550 3.04311
555 3.21464
560 2.67285
565 3.71717
570 2.00679
575 2.38057
580 1.70483
585 3.51654
590 2.25834
595 2.64474
600 4.87968
Ex : 253
200 2.15775
205 2.26735
210 3.14867
215 3.59392
220 2.07504
225 1.93832
230 4.39586
235 2.842
240 3.8608
245 4.19645
250 2.54291
255 4.23237
260 2.55424
265 1.61627
270 1.59775
275 2.66852
280 3.16061
285 2.92008
290 1.45024
295 2.71077
300 3.37479
305 2.05995
310 1.97264
315 2.17364
320 1.78814
325 2.89744
330 2.75396
335 2.10025
340 2.60626
345 2.71804
350 2.95833
355 2.81354
360 1.90755
365 2.3721
370 4.31565
375 3.04765
380 3.48412
385 1.31256
390 1.5589
395 2.38801
400 3.19799
405 3.42071
410 2.42802
415 1.35034
420 1.79774
425 1.82645
430 2.52768
435 2.39419
440 1.84765
445 2.21494
450 2.29339
455 2.18668
460 2.28808
465 1.7265
470 1.73337
475 1.49116
480 2.29323
485 2.32877
490 2.62337
495 2.15703
500 2.0445
505 1.95544
510 2.1385
515 4.20288
520 3.24861
525 3.21074
530 2.95193
535 2.72667
540 3.77232
545 2.59827
550 2.43374
555 1.87212
560 2.99685
565 2.65113
570 1.5732
575 4.06563
580 2.3795
585 1.67903
590 1.54943
595 1.34572
600 0.153138
Ex : 258
200 2.26566
205 0.969531
210 1.84933
215 1.48127
220 2.74927
225 2.18308
230 1.52234
235 1.24642
240 0.897485
245 2.69575
250 1.33838
255 1.65747
260 1.36499
265 2.11849
270 2.41055
275 1.41657
280 1.8481
285 1.45216
290 1.59486
295 1.79044
300 1.49957
305 2.51694
310 2.66296
315 1.03178
320 1.27704
325 1.59177
330 3.66038
335 2.08828
340 1.96278
345 2.38522
350 1.81695
355 2.40463
360 2.46655
365 1.20871
370 1.63697
375 2.33987
380 1.65524
385 1.07649
390 1.55095
395 2.2753
400 1.15088
405 2.35357
410 2.31898
415 2.7396
420 2.97425
425 2.29415
430 2.56876
435 2.22122
440 2.34492
445 1.99167
450 3.08947
455 1.66454
460 2.42846
465 1.77347
470 2.17483
475 2.73875
480 1.98842
485 2.89283
490 2.03968
495 2.36411
500 2.18462
505 1.85193
510 1.95947
515 3.82958
520 3.06493
525 2.437
530 1.39852
535 2.61635
540 2.97626
545 1.86296
550 3.06754
555 1.65548
560 3.05908
565 1.92073
570 2.38571
575 2.19917
580 2.43213
585 1.93596
590 1.56333
595 2.64131
600 0.300571
Ex : 263
200 2.06689
205 2.0371
210 1.61187
215 2.60899
220 1.96344
225 1.05291
230 1.62713
235 1.03277
240 1.54032
245 1.39495
250 1.04189
255 0.954345
260 1.56823
265 2.36188
270 1.53189
275 1.10621
280 0.972222
285 1.78943
290 1.38318
295 0.981494
300 0.949442
305 1.86474
310 1.56848
315 1.5407
320 1.41078
325 0.728818
330 1.78958
335 1.48948
340 1.48889
345 1.31565
350 1.45224
355 1.91904
360 1.67683
365 1.2372
370 1.75955
375 1.2677
380 1.53839
385 1.76018
390 1.75901
395 1.79902
400 2.755
405 2.86516
410 1.79544
415 1.38592
420 1.30627
425 2.64793
430 1.42211
435 1.59671
440 1.46011
445 1.27585
450 1.8977
455 1.32255
460 2.9425
465 2.93094
470 1.48271
475 1.95644
480 1.25575
485 1.25681
490 1.29707
495 1.96633
500 1.65769
505 1.05498
510 1.00779
515 3.70458
520 2.20141
525 2.01206
530 1.0668
535 1.67075
540 1.26824
545 1.22528
550 1.23605
555 1.03288
560 1.39693
565 1.92673
570 1.86593
575 2.26644
580 2.09872
585 1.95457
590 1.73328
595 1.31977
600 0.150184
Ex : 268
200 0.810229
205 1.5843
210 1.43049
215 1.40664
220 0.990577
225 0.76894
230 1.44578
235 1.62146
240 0.85374
245 1.31266
250 1.71922
255 1.62206
260 1.41516
265 0.926835
270 0.771327
275 0.504168
280 2.00483
285 1.37679
290 1.08484
295 1.89952
300 0.922938
305 0.940033
310 1.33181
315 1.16125
320 2.8004
325 1.56647
330 1.0446
335 0.90376
340 1.1396
345 1.22096
350 1.76941
355 1.50689
360 1.01059
365 2.10927
370 1.7491
375 1.24603
380 1.31765
385 1.01256
390 1.21755
395 1.21354
400 1.01946
405 1.08091
410 0.829487
415 2.34164
420 1.42621
425 1.57366
430 1.40117
435 1.53144
440 1.02236
445 1.16579
450 1.23862
455 1.78468
460 1.6508
465 1.21237
470 2.86679
475 1.86959
480 1.00008
485 1.89114
490 1.12765
495 0.802767
500 1.66547
505 0.876635
510 1.62164
515 1.75656
520 2.14806
525 2.30371
530 1.69748
535 1.87683
540 1.3823
545 1.32227
550 2.58511
555 1.29846
560 0.915803
565 1.09304
570 1.38175
575 0.880992
580 0.909396
585 1.36688
590 0.982669
595 1.42843
600 10.6001
Ex : 273
200 1.0837
205 0.514293
210 1.04928
215 1.15185
220 0.799946
225 0.594355
230 0.982005
235 1.42919
240 1.13201
245 1.3471
250 1.37158
255 0.8358
260 1.05117
265 0.896767
270 0.621514
275 0.710164
280 1.10381
285 0.491907
290 0.508465
295 0.553702
300 1.37117
305 0.754369
310 1.0189
315 1.82312
320 1.38807
325 1.23161
330 1.20159
335 0.748522
340 0.917286
345 1.1203
350 1.03128
355 1.42701
360 1.28722
365 1.81667
370 0.912137
375 1.15623
380 1.60295
385 1.02865
390 0.711473
395 0.810958
400 1.20078
405 1.06776
410 0.811106
415 1.50195
420 0.94054
425 0.959341
430 1.04064
435 1.16782
440 1.58233
445 1.10999
450 1.40305
455 1.90718
460 1.91492
465 1.31907
470 0.804396
475 1.31529
480 1.22913
485 1.26958
490 2.43025
495 1.16677
500 0.763095
505 1.56616
510 0.924447
515 1.04244
520 1.0863
525 1.00099
530 0.857241
535 1.81055
540 1.98926
545 1.72549
550 1.85774
555 1.36121
560 1.00924
565 0.944167
570 0.964204
575 0.550349
580 1.07304
585 0.461066
590 1.01861
595 1.35126
600 1.34822
Ex : 278
200 1.44545
205 0.655588
210 1.48106
215 0.684948
220 0.616428
225 0.648036
230 0.736167
235 0.974005
240 0.806743
245 0.505964
250 0.585234
255 0.898216
260 1.53873
265 0.651306
270 0.941603
275 0.881765
280 0.609949
285 0.62916
290 0.4222
295 0.77044
300 0.869523
305 1.12869
310 0.703495
315 0.857497
320 0.575811
325 0.404391
330 0.847553
335 0.72547
340 0.863508
345 0.908113
350 1.13939
355 1.0358
360 1.48414
365 0.67622
370 1.19535
375 1.44754
380 1.05896
385 1.32896
390 1.11967
395 1.21794
400 0.970117
405 1.55229
410 1.25515
415 1.09552
420 1.21637
425 0.720643
430 1.0191
435 0.892006
440 1.12742
445 0.619913
450 1.21512
455 1.20781
460 1.11154
465 0.898421
470 1.13574
475 0.774118
480 0.713175
485 0.818861
490 0.945365
495 0.926548
500 0.707081
505 0.770094
510 1.31543
515 0.870523
520 1.00526
525 0.681246
530 0.311247
535 0.565695
540 0.758475
545 1.38527
550 2.55858
555 1.53232
560 1.33701
565 0.703904
570 0.856828
575 0.780986
580 0.650699
585 0.561702
590 1.05063
595 1.0432
600 0.118712
Ex : 283
200 0.454879
205 0.703638
210 0.413974
215 0.440017
220 0.745666
225 0.956254
230 0.691296
235 0.700881
240 1.22419
245 0.461017
250 0.4642
255 0.699787
260 1.22038
265 0.836835
270 0.592561
275 1.01943
280 0.988874
285 1.00741
290 0.802657
295 0.536765
300 0.875959
305 0.690036
310 0.458897
315 0.655294
320 0.88021
325 0.527429
330 1.00619
335 1.03932
340 0.892611
345 0.801597
350 0.980092
355 0.793794
360 0.708394
365 0.585312
370 0.950133
375 0.803665
380 0.865039
385 0.990005
390 1.16808
395 0.819037
400 0.811516
405 0.737102
410 0.962602
415 0.845574
420 0.858492
425 0.940281
430 1.70713
435 1.12213
440 0.983869
445 0.819059
450 0.828171
455 1.25571
460 0.978022
465 0.794825
470 0.625089
475 1.44054
480 0.726778
485 1.07643
490 1.13139
495 1.01098
500 0.774052
505 0.566715
510 0.499596
515 0.723858
520 0.479249
525 0.66913
530 0.483319
535 0.60046
540 0.311171
545 0.97928
550 0.604514
555 0.954995
560 1.92151
565 1.26829
570 0.603571
575 0.544534
580 0.681911
585 0.546335
590 0.82614
595 0.456095
600 0.0519019
Ex : 288
200 0.905
205 0.923178
210 0.686116
215 0.688598
220 0.431273
225 0.530271
230 0.569784
235 0.587116
240 0.497682
245 0.375982
250 0.348756
255 0.343717
260 0.642069
265 0.943682
270 0.484578
275 0.819112
280 0.603417
285 1.00644
290 0.670502
295 0.639995
300 0.561406
305 0.446577
310 0.476846
315 0.642295
320 0.665186
325 1.05271
330 0.707214
335 0.457142
340 0.521843
345 0.904003
350 0.92751
355 0.752342
360 0.596757
365 1.00058
370 0.683485
375 0.775915
380 0.715836
385 0.920933
390 0.939918
395 0.993723
400 1.38579
405 0.768797
410 0.754244
415 0.697139
420 0.952708
425 1.12186
430 0.839513
435 0.835715
440 0.90456
445 0.927311
450 0.943522
455 0.816664
460 0.502079
465 0.711691
470 0.787616
475 0.760825
480 0.578481
485 0.913307
490 0.618465
495 0.623494
500 0.508808
505 0.743886
510 0.399808
515 0.539928
520 0.521779
525 0.737223
530 0.498831
535 0.849122
540 0.660322
545 0.516307
550 0.414907
555 0.490599
560 0.570237
565 0.901614
570 1.54476
575 1.02863
580 1.20956
585 0.520221
590 0.827874
595 0.378546
600 0.0430771
Ex : 293
200 0.59491
205 0.470947
210 0.352644
215 0.357069
220 0.286139
225 0.212669
230 0.354318
235 0.304195
240 0.319299
245 0.460708
250 0.539175
255 0.631126
260 0.574711
265 0.388942
270 0.581957
275 0.679345
280 0.477451
285 0.758556
290 0.707045
295 0.59963
300 0.395787
305 0.382073
310 0.373847
315 0.796942
320 0.390344
325 0.433531
330 0.508989
335 0.712756
340 0.455315
345 0.606824
350 0.871895
355 0.422077
360 0.951322
365 0.510556
370 0.690217
375 0.61731
380 0.873815
385 0.831374
390 0.91366
395 0.611923
400 0.558378
405 0.736807
410 0.611516
415 0.742534
420 0.779689
425 0.985829
430 0.641504
435 1.00873
440 0.635168
445 0.556819
450 0.425109
455 0.707909
460 0.76251
465 0.70326
470 0.848926
475 0.618661
480 0.565633
485 0.547491
490 0.442916
495 1.07817
500 0.664656
505 0.817075
510 0.519477
515 0.638519
520 0.338663
525 0.481404
530 0.493801
535 0.693271
540 0.635609
545 0.46031
550 0.318714
555 0.345387
560 0.379237
565 0.826214
570 0.565587
575 0.579773
580 1.24854
585 1.14765
590 0.66961
595 0.439709
600 0.231306
Ex : 298
200 0.392711
205 0.189786
210 0.314787
215 0.38865
220 0.546642
225 0.440314
230 0.263028
235 0.411725
240 0.294127
245 0.310927
250 0.4385
255 0.517596
260 0.449788
265 0.334934
270 0.322059
275 0.645579
280 0.420098
285 0.357418
290 0.880707
295 0.530969
300 0.774205
305 0.326125
310 0.273515
315 0.522135
320 0.593443
325 0.497583
330 0.579395
335 0.460484
340 0.589632
345 0.55897
350 0.360522
355 0.561887
360 0.690524
365 0.423054
370 0.556912
375 0.628418
380 0.491769
385 0.531901
390 0.620777
395 0.819842
400 0.705432
405 0.51255
410 0.66078
415 0.498887
420 0.769837
425 0.551176
430 0.520704
435 0.513254
440 0.615684
445 0.380132
450 0.515652
455 0.471251
460 0.561377
465 0.534433
470 0.509297
475 0.708169
480 0.389422
485 0.777782
490 0.643257
495 0.390615
500 0.666067
505 0.614903
510 0.569418
515 0.406056
520 0.646659
525 0.388655
530 0.352364
535 0.558568
540 0.34597
545 0.267473
550 0.634161
555 0.468321
560 0.636941
565 0.447936
570 0.306243
575 0.27106
580 0.501992
585 0.592316
590 1.37347
595 0.8384
600 0.470339
Ex : 303
200 0.302668
205 0.452839
210 0.295528
215 0.298317
220 0.22423
225 0.479469
230 0.365611
235 0.22265
240 0.43689
245 0.431405
250 0.934228
255 0.42905
260 0.480247
265 0.498286
270 0.249543
275 0.227384
280 0.436477
285 0.286466
290 0.272925
295 0.583376
300 0.668564
305 0.338777
310 0.39346
315 0.498032
320 0.480712
325 0.531287
330 0.484341
335 0.436237
340 0.732817
345 0.609263
350 0.406075
355 0.473715
360 0.478361
365 0.493105
370 0.748315
375 0.480528
380 0.441112
385 0.79987
390 0.95516
395 0.614841
400 0.641803
405 0.619213
410 0.704631
415 0.544149
420 0.775355
425 0.674879
430 0.535891
435 0.493953
440 0.716126
445 0.574144
450 0.721168
455 0.562568
460 0.482335
465 0.523867
470 0.503968
475 0.621459
480 0.440767
485 0.523959
490 0.574793
495 0.537884
500 0.260051
505 0.340895
510 0.300464
515 0.490441
520 0.398869
525 0.606864
530 0.508261
535 0.338106
540 0.568132
545 0.333652
550 0.546358
555 0.363102
560 0.336602
565 0.334419
570 0.320405
575 0.350725
580 0.328922
585 0.237851
590 0.274792
595 0.695745
600 0.3195
Ex : 308
200 0.175567
205 0.199292
210 0.296647
215 0.25754
220 0.418243
225 0.442949
230 0.208499
235 0.259758
240 0.277647
245 0.35006
250 0.225487
255 0.281493
260 0.423662
265 0.3465
270 0.428443
275 0.263799
280 0.227747
285 0.369477
290 0.305461
295 0.303166
300 0.489299
305 0.570522
310 0.36911
315 0.238074
320 0.260039
325 0.227768
330 0.295917
335 0.431842
340 0.399278
345 0.325683
350 0.46558
355 0.472762
360 0.421469
365 0.367144
370 0.480694
375 0.38971
380 0.537442
385 0.462083
390 0.659112
395 0.513152
400 1.0059
405 0.543766
410 0.565701
415 0.615509
420 0.599653
425 0.677035
430 0.688327
435 0.592929
440 0.645785
445 0.527871
450 0.477346
455 0.648423
460 0.345163
465 0.463618
470 0.480924
475 0.580263
480 0.50246
485 0.505115
490 0.52198
495 0.394871
500 0.439735
505 0.558862
510 0.285996
515 0.187368
520 0.519299
525 0.288538
530 0.487761
535 0.225689
540 0.315991
545 0.359122
550 0.290581
555 0.264685
560 0.264987
565 0.169951
570 0.353411
575 0.37095
580 0.434768
585 0.221947
590 0.170892
595 0.287203
600 0.0326826
Ex : 313
200 0.225386
205 0.169041
210 0.358239
215 0.215607
220 0.238633
225 0.278804
230 0.272839
235 0.338156
240 0.347615
245 0.24957
250 0.449381
255 0.303281
260 0.258309
265 0.160271
270 0.123105
275 0.188211
280 0.205249
285 0.18595
290 0.138976
295 0.524355
300 0.266496
305 0.369521
310 0.559025
315 0.460217
320 0.360427
325 0.415874
330 0.544571
335 0.420124
340 0.35545
345 0.378956
350 0.446068
355 0.473977
360 0.572402
365 0.534465
370 0.565817
375 0.970217
380 0.624553
385 0.501201
390 0.923582
395 0.591285
400 0.721101
405 0.714708
410 0.598576
415 0.726656
420 0.716163
425 0.78295
430 0.954909
435 0.710125
440 0.630033
445 0.680175
450 0.546246
455 0.472013
460 0.697214
465 0.537412
470 0.532206
475 0.599161
480 0.654141
485 0.493233
490 0.598979
495 0.363381
500 0.359309
505 0.397504
510 0.482762
515 0.300225
520 0.232155
525 0.429015
530 0.274802
535 0.284822
540 0.295486
545 0.268862
550 0.453347
555 0.240358
560 0.312447
565 0.263882
570 0.308011
575 0.452646
580 0.24708
585 0.203988
590 0.349451
595 0.480841
600 0.736413
Ex : 318
200 0.173467
205 0.169208
210 0.278779
215 0.239608
220 0.32555
225 0.195409
230 0.163565
235 0.191666
240 0.444607
245 0.387429
250 0.301535
255 0.191936
260 0.565131
265 0.293538
270 0.301972
275 0.179888
280 0.16801
285 0.235184
290 0.270584
295 0.310632
300 0.155865
305 0.22351
310 0.431471
315 1.32526
320 0.579571
325 0.401633
330 0.746604
335 0.915217
340 0.930743
345 1.06127
350 1.38169
355 2.04308
360 2.36387
365 3.05963
370 3.52801
375 4.29082
380 5.35628
385 5.76718
390 6.18058
395 6.60469
400 6.31422
405 6.86205
410 7.085
415 6.591
420 6.89973
425 6.40393
430 6.04621
435 5.70264
440 5.47721
445 5.30241
450 5.2132
455 5.10974
460 4.36848
465 4.20154
470 3.77992
475 3.0275
480 2.88615
485 2.44347
490 2.64718
495 2.04388
500 2.04525
505 1.72689
510 1.55335
515 1.23848
520 1.03738
525 1.11172
530 0.92419
535 0.795491
540 0.833807
545 0.597259
550 0.544986
555 0.584439
560 0.441607
565 0.338263
570 0.405979
575 0.416095
580 0.311784
585 0.319393
590 0.237286
595 0.272435
600 0.031002
Ex : 323
200 0.253835
205 0.225292
210 0.199717
215 0.18602
220 0.202491
225 0.193467
230 0.180677
235 0.241361
240 0.28392
245 0.414075
250 0.186053
255 0.232509
260 0.300013
265 0.254082
270 0.184861
275 0.267765
280 0.226402
285 0.298557
290 0.234113
295 0.166725
300 0.185216
305 0.170891
310 0.375216
315 5.0683
320 26.6093
325 11.2696
330 2.49964
335 2.54803
340 3.93912
345 5.40448
350 7.69354
355 10.5687
360 13.0404
365 15.1311
370 17.763
375 20.528
380 24.2254
385 26.3328
390 28.1376
395 30.676
400 31.8904
405 31.8118
410 31.8822
415 32.9583
420 30.964
425 30.5195
430 29.3869
435 27.9158
440 26.2004
445 25.7872
450 22.9893
455 22.3189
460 20.967
465 19.2781
470 18.0262
475 16.5333
480 14.2456
485 13.422
490 11.3431
495 10.8289
500 9.66037
505 7.83489
510 6.84342
515 6.05434
520 5.63972
525 4.48157
530 4.12038
535 3.6596
540 2.67232
545 2.34928
550 1.74599
555 1.57211
560 1.42424
565 1.15072
570 1.21059
575 0.901325
580 0.857402
585 0.410222
590 0.49064
595 0.268248
600 0.0305256
Ex : 328
200 0.106122
205 0.150426
210 0.242669
215 0.267207
220 0.104996
225 0.175953
230 0.105115
235 0.176529
240 0.230407
245 0.294471
250 0.270462
255 0.205671
260 0.257413
265 0.195156
270 0.235926
275 0.234167
280 0.227471
285 0.295032
290 0.185621
295 0.207047
300 0.199305
305 0.321098
310 0.288689
315 1.46178
320 64.7167
325 159
330 48.7375
335 8.93002
340 5.67564
345 7.3536
350 9.19311
355 13.3311
360 18.5682
365 19.8076
370 22.623
375 26.3426
380 29.1509
385 31.6813
390 35.0399
395 37.0995
400 37.4493
405 38.8866
410 39.8295
415 38.0881
420 36.6368
425 36.2013
430 34.5795
435 32.9076
440 30.3967
445 29.0074
450 27.3672
455 25.4034
460 24.4033
465 22.5173
470 20.2298
475 19.0345
480 17.7299
485 15.7789
490 13.5742
495 12.2087
500 11.3154
505 9.51222
510 8.56687
515 7.56847
520 6.0869
525 5.48539
530 4.54249
535 4.03436
540 3.60985
545 2.74234
550 2.58782
555 2.01625
560 2.09858
565 1.58974
570 1.25718
575 1.27414
580 1.0493
585 0.646904
590 0.594752
595 0.384842
600 0.578709
Ex : 333
200 0.199331
205 0.136057
210 0.157555
215 0.151287
220 0.190494
225 0.158422
230 0.164436
235 0.137152
240 0.138396
245 0.270241
250 0.108787
255 0.159121
260 0.262613
265 0.222447
270 0.185313
275 0.175811
280 0.271302
285 0.158221
290 0.175355
295 0.157685
300 0.174633
305 0.169185
310 0.166343
315 0.255704
320 9.31251
325 194.783
330 339.624
335 90.856
340 14.4571
345 6.19478
350 6.21165
355 6.70859
360 9.89498
365 14.535
370 15.4273
375 15.0232
380 16.7475
385 19.6537
390 21.5374
395 22.7809
400 23.7823
405 23.5703
410 23.9297
415 24.7999
420 23.8508
425 22.4359
430 20.8531
435 20.2227
440 18.8893
445 17.3215
450 16.4457
455 15.0921
460 13.827
465 13.2803
470 11.9084
475 11.145
480 9.82302
485 9.12831
490 8.74956
495 7.3449
500 6.84546
505 6.10667
510 5.02532
515 4.62755
520 4.00791
525 3.70967
530 2.90662
535 2.56611
540 2.28065
545 1.89495
550 1.93487
555 1.48713
560 1.13255
565 1.06733
570 0.895546
575 0.652118
580 0.663856
585 0.541562
590 0.592021
595 0.525595
600 0.0598107
Ex : 338
200 0.221731
205 0.228727
210 0.257053
215 0.112472
220 0.158203
225 0.121054
230 0.18573
235 0.297153
240 0.185476
245 0.266842
250 0.151915
255 0.200097
260 0.12528
265 0.21321
270 0.149185
275 0.234061
280 0.247239
285 0.228092
290 0.144191
295 0.160956
300 0.161722
305 0.210254
310 0.266728
315 0.272638
320 0.397992
325 18.6548
330 306.129
335 454.967
340 114.882
345 16.1213
350 5.63656
355 4.26989
360 4.30187
365 5.88326
370 10.4171
375 10.9099
380 9.56089
385 10.781
390 13.3472
395 13.9599
400 13.7376
405 13.4242
410 14.703
415 15.4902
420 14.8664
425 13.1318
430 12.1439
435 11.3915
440 11.119
445 10.8675
450 10.0864
455 8.78938
460 8.51436
465 7.76875
470 7.32604
475 6.62919
480 6.00479
485 5.18204
490 4.98715
495 4.41383
500 4.0632
505 3.38574
510 3.33982
515 2.80502
520 2.4819
525 2.06192
530 1.78677
535 1.45271
540 1.4324
545 1.23185
550 1.06102
555 0.964404
560 0.875254
565 0.924502
570 0.532504
575 0.503144
580 0.459873
585 0.563884
590 0.457563
595 0.355447
600 0.111604
Ex : 343
200 0.169194
205 0.205565
210 0.143916
215 0.274949
220 0.163678
225 0.107419
230 0.134113
235 0.163665
240 0.222023
245 0.122756
250 0.130051
255 0.196163
260 0.116314
265 0.137623
270 0.18769
275 0.125736
280 0.0835317
285 0.192485
290 0.204758
295 0.187021
300 0.188638
305 0.265882
310 0.220219
315 0.235792
320 0.259617
325 0.488666
330 21.7354
335 353.312
340 522.109
345 126.645
350 16.9212
355 4.81034
360 3.41405
365 2.65388
370 3.80482
375 7.38877
380 9.32687
385 9.58296
390 10.613
395 10.9027
400 10.7753
405 11.123
410 12.4932
415 12.7304
420 12.42
425 10.5879
430 10.1974
435 10.2661
440 9.66598
445 9.17468
450 8.17105
455 7.40181
460 6.92748
465 6.38498
470 6.15655
475 5.54694
480 5.12028
485 4.56582
490 4.48364
495 3.78912
500 3.47351
505 3.00414
510 2.721
515 2.34305
520 2.00225
525 1.77035
530 1.47249
535 1.51636
540 1.31149
545 1.10271
550 1.09428
555 0.897526
560 0.818918
565 0.794124
570 0.665223
575 0.472456
580 0.535721
585 0.556538
590 0.29555
595 0.318706
600 1.11064
Ex : 348
200 0.21809
205 0.202615
210 0.194069
215 0.129218
220 0.127694
225 0.104995
230 0.103148
235 0.177539
240 0.190099
245 0.112325
250 0.152232
255 0.145828
260 0.143195
265 0.149193
270 0.16329
275 0.27599
280 0.143363
285 0.180874
290 0.127709
295 0.155463
300 0.0998104
305 0.169396
310 0.179054
315 0.263085
320 0.215493
325 0.367819
330 0.654893
335 23.3928
340 362.296
345 554.319
350 143.935
355 18.6971
360 4.50123
365 2.58559
370 2.06074
375 2.86996
380 7.31407
385 12.5049
390 13.3871
395 13.0056
400 11.5251
405 12.3956
410 14.2852
415 15.0314
420 14.2099
425 12.2943
430 11.0717
435 10.7717
440 10.6953
445 10.5671
450 9.73957
455 8.3778
460 7.97624
465 6.84354
470 6.55141
475 5.8953
480 5.33205
485 5.02123
490 4.91485
495 4.02457
500 3.73826
505 3.42215
510 2.87032
515 2.55428
520 2.28837
525 2.01125
530 1.80371
535 1.70505
540 1.44621
545 1.30228
550 1.14458
555 0.985673
560 0.919171
565 0.764276
570 0.755358
575 0.584198
580 0.549779
585 0.520177
590 0.42677
595 0.225143
600 0.823204
Ex : 353
200 0.109186
205 0.14334
210 0.148427
215 0.153192
220 0.14889
225 0.116638
230 0.13744
235 0.175992
240 0.120807
245 0.131883
250 0.178034
255 0.104106
260 0.117758
265 0.142381
270 0.167398
275 0.210697
280 0.150349
285 0.16105
290 0.181926
295 0.14983
300 0.144125
305 0.129342
310 0.158727
315 0.144035
320 0.227896
325 0.347004
330 0.332661
335 0.529742
340 23.6855
345 374.596
350 552.186
355 137.745
360 17.8512
365 4.12119
370 2.57877
375 2.20836
380 3.39688
385 8.86129
390 16.0118
395 16.8116
400 14.1467
405 13.6205
410 14.6779
415 17.0977
420 16.463
425 13.8785
430 12.1732
435 12.0348
440 12.3264
445 11.133
450 10.5055
455 9.03402
460 8.04183
465 7.42227
470 7.07944
475 6.65541
480 6.0702
485 5.81548
490 4.89082
495 4.28365
500 3.91815
505 3.53332
510 3.28236
515 3.07273
520 2.52762
525 1.96385
530 1.88556
535 1.61788
540 1.482
545 1.2571
550 1.03134
555 1.04357
560 0.913332
565 0.753694
570 0.760655
575 0.558802
580 0.416364
585 0.41944
590 0.340074
595 0.333854
600 0.323206
Ex : 358
200 0.114523
205 0.0749241
210 0.0802766
215 0.156251
220 0.0702788
225 0.0847607
230 0.112181
235 0.111672
240 0.124933
245 0.147353
250 0.230325
255 0.0978065
260 0.164671
265 0.13126
270 0.170726
275 0.123801
280 0.157267
285 0.108897
290 0.116212
295 0.126195
300 0.244932
305 0.15223
310 0.166389
315 0.179867
320 0.129213
325 0.142587
330 0.204963
335 0.462462
340 0.697035
345 23.3651
350 370.183
355 572.698
360 144.553
365 18.3057
370 4.02471
375 2.70423
380 3.26333
385 5.93713
390 11.3091
395 16.3791
400 15.018
405 13.8245
410 14.6798
415 15.2018
420 14.7145
425 13.147
430 11.3802
435 11.4884
440 11.4398
445 11.1209
450 10.031
455 8.70195
460 8.0842
465 7.3899
470 7.39211
475 6.83943
480 6.35891
485 5.35479
490 4.80426
495 4.6818
500 3.92307
505 3.57447
510 3.158
515 2.86389
520 2.54424
525 2.43432
530 1.9492
535 1.77888
540 1.62079
545 1.28464
550 1.25431
555 1.13327
560 1.04739
565 0.874006
570 0.688548
575 0.626503
580 0.465301
585 0.328909
590 0.324815
595 0.313795
600 0.599657
Ex : 363
200 0.140584
205 0.178906
210 0.247236
215 0.1898
220 0.108806
225 0.156168
230 0.12045
235 0.152868
240 0.111334
245 0.120904
250 0.167303
255 0.181856
260 0.15921
265 0.290453
270 0.147676
275 0.120588
280 0.0930477
285 0.102928
290 0.117725
295 0.207701
300 0.24886
305 0.13261
310 0.0996021
315 0.147632
320 0.142793
325 0.204403
330 0.3116
335 0.304929
340 0.457999
345 0.648643
350 21.4838
355 363.615
360 575.425
365 147.703
370 18.728
375 4.11273
380 4.82362
385 8.08544
390 11.5095
395 13.1797
400 15.6759
405 16.985
410 17.4985
415 18.0213
420 16.17
425 14.015
430 13.0641
435 13.1002
440 12.7619
445 12.5014
450 10.8457
455 9.83051
460 9.04514
465 8.66476
470 8.02318
475 7.51244
480 6.42584
485 5.93191
490 5.50445
495 5.19067
500 4.47979
505 3.95909
510 3.70785
515 3.31214
520 2.72323
525 2.31717
530 2.20972
535 1.98499
540 1.72101
545 1.57727
550 1.29965
555 1.14977
560 0.970535
565 0.94676
570 0.62182
575 0.63658
580 0.425504
585 0.38745
590 0.371928
595 0.415095
600 0.100144
Ex : 368
200 0.0856092
205 0.0995519
210 0.0946663
215 0.100254
220 0.10344
225 0.116281
230 0.0954226
235 0.0754552
240 0.122926
245 0.135295
250 0.135239
255 0.138849
260 0.138673
265 0.103983
270 0.0862863
275 0.152533
280 0.0731224
285 0.094019
290 0.144781
295 0.141728
300 0.0902506
305 0.117764
310 0.13067
315 0.0935886
320 0.0998065
325 0.132316
330 0.137417
335 0.191093
340 0.392347
345 0.411007
350 0.658872
355 18.5339
360 357.398
365 599.415
370 159.654
375 20.6019
380 6.25456
385 9.92338
390 14.4288
395 16.3425
400 15.5118
405 18.2451
410 22.9369
415 23.9053
420 21.7983
425 18.3415
430 15.8164
435 15.5774
440 16.0528
445 14.9545
450 13.3596
455 11.4443
460 10.5072
465 10.1073
470 9.10812
475 8.44796
480 7.9634
485 7.06752
490 6.07521
495 5.72441
500 5.14228
505 4.40019
510 3.91156
515 3.57652
520 2.95636
525 2.55551
530 2.34685
535 2.06352
540 1.9098
545 1.73322
550 1.39768
555 1.26944
560 1.11012
565 0.934719
570 0.855571
575 0.780357
580 0.533876
585 0.452905
590 0.3663
595 0.294771
600 0.52361
Ex : 373
200 0.211913
205 0.117429
210 0.219346
215 0.106319
220 0.127731
225 0.128863
230 0.0746138
235 0.125445
240 0.11268
245 0.118425
250 0.0942954
255 0.123066
260 0.103388
265 0.127661
270 0.0891052
275 0.131028
280 0.127768
285 0.102585
290 0.173757
295 0.1224
300 0.0772223
305 0.111446
310 0.0976875
315 0.150178
320 0.149183
325 0.14785
330 0.104474
335 0.218251
340 0.302335
345 0.217227
350 0.345538
355 0.5691
360 21.1804
365 359.351
370 587.534
375 156.265
380 21.2216
385 9.18398
390 14.134
395 17.066
400 15.3631
405 14.9833
410 19.2485
415 24.7926
420 23.3664
425 19.1631
430 16.271
435 14.9809
440 15.5368
445 14.432
450 12.9762
455 11.4999
460 10.241
465 9.23662
470 8.7295
475 8.4109
480 7.35853
485 6.76502
490 5.86043
495 5.23638
500 4.72212
505 4.55058
510 4.01453
515 3.40795
520 3.09712
525 2.90848
530 2.44129
535 2.06968
540 1.89071
545 1.66569
550 1.59606
555 1.348
560 1.17643
565 0.999446
570 0.749512
575 0.651322
580 0.55779
585 0.386434
590 0.286787
595 0.250172
600 0.0757328
Ex : 378
200 0.0963452
205 0.178683
210 0.106061
215 0.0661569
220 0.135766
225 0.131362
230 0.11684
235 0.14553
240 0.0774355
245 0.098191
250 0.0933588
255 0.11452
260 0.0764015
265 0.0904594
270 0.0694565
275 0.165516
280 0.101248
285 0.142765
290 0.0883955
295 0.0891543
300 0.155879
305 0.187147
310 0.118144
315 0.170968
320 0.180407
325 0.131382
330 0.172859
335 0.155309
340 0.188535
345 0.21099
350 0.254704
355 0.34129
360 0.722214
365 19.467
370 367.643
375 609.342
380 164.47
385 24.9913
390 12.1342
395 12.7165
400 11.4569
405 11.095
410 13.0193
415 16.9636
420 18.8091
425 16.1276
430 13.0035
435 12.5007
440 12.1139
445 11.645
450 10.4031
455 9.38632
460 8.3535
465 7.79913
470 7.60946
475 7.25924
480 6.65105
485 6.07532
490 5.3127
495 5.00047
500 4.38764
505 4.01135
510 3.58762
515 3.46516
520 2.90607
525 2.6392
530 2.3235
535 1.93833
540 1.99087
545 1.82658
550 1.52515
555 1.22347
560 1.09871
565 0.824244
570 0.802335
575 0.619669
580 0.493911
585 0.494085
590 0.290821
595 0.235786
600 0.504867
Ex : 383
200 0.0742836
205 0.096071
210 0.0817284
215 0.0900624
220 0.0958772
225 0.190702
230 0.1014
235 0.121872
240 0.0940562
245 0.184674
250 0.0861461
255 0.114296
260 0.0980538
265 0.115991
270 0.110304
275 0.13871
280 0.113699
285 0.0873552
290 0.0818314
295 0.0762383
300 0.124191
305 0.0892843
310 0.190614
315 0.0934319
320 0.121345
325 0.100987
330 0.139861
335 0.145684
340 0.1275
345 0.256163
350 0.174631
355 0.244269
360 0.410943
365 0.673779
370 18.8238
375 369.06
380 639.826
385 177.14
390 30.109
395 13.0397
400 10.9511
405 11.8372
410 13.889
415 15.7861
420 15.1026
425 15.469
430 14.8884
435 13.6371
440 13.289
445 11.8985
450 10.1851
455 9.3143
460 8.55741
465 8.39342
470 7.85032
475 7.21734
480 6.52922
485 5.95594
490 5.62569
495 5.158
500 4.63416
505 4.11082
510 3.80226
515 3.3384
520 2.94933
525 2.63891
530 2.30909
535 2.22473
540 1.79242
545 1.46836
550 1.46172
555 1.29734
560 1.14961
565 1.02606
570 0.782921
575 0.742574
580 0.457663
585 0.480047
590 0.341422
595 0.32153
600 0.371532
Ex : 388
200 0.0997653
205 0.140611
210 0.0726241
215 0.137117
220 0.123247
225 0.102169
230 0.153315
235 0.0908313
240 0.0865323
245 0.0917224
250 0.136231
255 0.0998418
260 0.100617
265 0.110977
270 0.0867559
275 0.121782
280 0.145306
285 0.0677164
290 0.0713279
295 0.0687043
300 0.0670226
305 0.0876639
310 0.123372
315 0.108171
320 0.102935
325 0.126822
330 0.233054
335 0.0981894
340 0.13052
345 0.162513
350 0.135781
355 0.211194
360 0.24932
365 0.399283
370 0.615421
375 20.9015
380 382.348
385 647.053
390 182.942
395 33.5357
400 15.2283
405 14.1737
410 16.7974
415 18.685
420 18.1096
425 15.7802
430 16.1548
435 17.2541
440 16.2393
445 15.0458
450 12.6571
455 10.6524
460 9.81857
465 9.58635
470 8.38307
475 8.28019
480 7.53423
485 6.69216
490 5.95003
495 5.20467
500 4.90784
505 4.49784
510 3.86229
515 3.71904
520 3.09688
525 2.87898
530 2.66391
535 2.16289
540 1.97253
545 1.87212
550 1.50266
555 1.28776
560 1.08397
565 1.00028
570 0.823861
575 0.691618
580 0.55201
585 0.46248
590 0.328757
595 0.288884
600 0.675541
Ex : 393
200 0.0961965
205 0.0818736
210 0.0716748
215 0.113582
220 0.0755853
225 0.102151
230 0.0844443
235 0.074952
240 0.115827
245 0.107545
250 0.0954437
255 0.0675361
260 0.173405
265 0.0592791
270 0.0703186
275 0.102313
280 0.0971772
285 0.0840993
290 0.0959081
295 0.0737242
300 0.130638
305 0.133382
310 0.116494
315 0.0867701
320 0.0946388
325 0.0938583
330 0.125133
335 0.101547
340 0.121146
345 0.135547
350 0.140637
355 0.177153
360 0.218099
365 0.393521
370 0.375436
375 0.736383
380 18.4041
385 374.447
390 649.048
395 189.113
400 34.3792
405 15.3642
410 15.808
415 19.9545
420 19.1992
425 15.9231
430 13.6127
435 14.5634
440 16.6508
445 15.7045
450 13.382
455 11.0672
460 9.39805
465 8.54425
470 8.50196
475 7.63831
480 7.08054
485 6.36083
490 5.7882
495 5.24203
500 4.62886
505 4.22675
510 3.83038
515 3.4734
520 3.21156
525 2.79066
530 2.44977
535 2.02094
540 1.81274
545 1.65904
550 1.43657
555 1.3391
560 1.16292
565 0.998084
570 0.838418
575 0.667507
580 0.502956
585 0.468927
590 0.391231
595 0.319087
600 0.175571
Ex : 398
200 0.0602906
205 0.0951356
210 0.128179
215 0.101482
220 0.0540709
225 0.0817958
230 0.12638
235 0.136916
240 0.0960984
245 0.0844138
250 0.108282
255 0.134959
260 0.0794391
265 0.0650343
270 0.0845432
275 0.104762
280 0.099737
285 0.0713331
290 0.0732773
295 0.0781569
300 0.073436
305 0.111392
310 0.08997
315 0.0782747
320 0.0551635
325 0.0730763
330 0.111788
335 0.093829
340 0.130378
345 0.137012
350 0.145638
355 0.130419
360 0.155999
365 0.233926
370 0.306774
375 0.423719
380 0.887657
385 20.6983
390 393.198
395 673.862
400 186.465
405 28.6559
410 11.3841
415 12.6544
420 12.4757
425 10.7229
430 8.67994
435 8.44682
440 9.665
445 12.0731
450 10.9585
455 8.578
460 7.36892
465 6.57751
470 6.42481
475 6.13284
480 5.42688
485 5.07156
490 4.51871
495 4.35291
500 4.20645
505 3.69837
510 3.45325
515 3.02662
520 2.88905
525 2.36863
530 2.18967
535 2.06268
540 1.82313
545 1.63905
550 1.31137
555 1.19101
560 1.03271
565 0.9046
570 0.876442
575 0.593506
580 0.518897
585 0.486386
590 0.387304
595 0.284235
600 0.0323448
Ex : 403
200 0.0709766
205 0.112319
210 0.103506
215 0.102029
220 0.0917777
225 0.137471
230 0.124541
235 0.0735713
240 0.101817
245 0.0542232
250 0.0924791
255 0.0956122
260 0.0728439
265 0.117293
270 0.0952843
275 0.123018
280 0.114279
285 0.127984
290 0.102667
295 0.0676005
300 0.0735602
305 0.0933861
310 0.10064
315 0.145972
320 0.100162
325 0.170483
330 0.0847254
335 0.156065
340 0.0930088
345 0.168206
350 0.157724
355 0.184762
360 0.173854
365 0.201577
370 0.241073
375 0.273088
380 0.375524
385 1.20455
390 22.2497
395 398.28
400 666.862
405 184.251
410 25.8544
415 8.36051
420 6.79666
425 6.16531
430 5.35529
435 5.36271
440 5.72527
445 6.2729
450 7.87284
455 8.1026
460 6.36219
465 5.82043
470 5.4034
475 4.89505
480 4.86273
485 4.41021
490 4.2147
495 3.88387
500 3.48947
505 3.25216
510 3.06095
515 2.81918
520 2.50682
525 2.34073
530 2.15857
535 1.81263
540 1.52163
545 1.45162
550 1.34231
555 1.09305
560 1.02019
565 0.911563
570 0.762439
575 0.663898
580 0.589736
585 0.441299
590 0.34591
595 0.261656
600 0.340404
Ex : 408
200 0.0803014
205 0.11324
210 0.0701565
215 0.0680322
220 0.105521
225 0.175571
230 0.0865142
235 0.101247
240 0.0851981
245 0.137445
250 0.108326
255 0.0638793
260 0.156542
265 0.0905258
270 0.0937021
275 0.124972
280 0.0945811
285 0.089527
290 0.11988
295 0.101154
300 0.105532
305 0.0897209
310 0.0921884
315 0.125793
320 0.112066
325 0.108969
330 0.111127
335 0.142585
340 0.0830872
345 0.140699
350 0.134224
355 0.172532
360 0.151691
365 0.134969
370 0.170265
375 0.208247
380 0.368908
385 0.483017
390 0.952215
395 20.6951
400 406.599
405 675.328
410 179.43
415 25.5288
420 7.67872
425 5.26468
430 5.3583
435 5.50174
440 5.60244
445 5.7638
450 5.65349
455 6.79349
460 7.61768
465 6.512
470 5.89946
475 5.40657
480 4.98976
485 4.54114
490 4.29787
495 3.74498
500 3.48811
505 3.14618
510 3.0446
515 2.73139
520 2.36518
525 2.39116
530 2.29725
535 1.93778
540 1.73652
545 1.44285
550 1.37188
555 1.06106
560 1.00868
565 0.820889
570 0.686214
575 0.644782
580 0.489589
585 0.371987
590 0.267117
595 0.353072
600 0.50438
Ex : 413
200 0.175934
205 0.083149
210 0.0778115
215 0.112608
220 0.0912947
225 0.102283
230 0.103612
235 0.0924967
240 0.073153
245 0.0830074
250 0.102053
255 0.123256
260 0.107767
265 0.125912
270 0.0851706
275 0.146567
280 0.106344
285 0.08008
290 0.125384
295 0.104928
300 0.0685067
305 0.0870509
310 0.0956609
315 0.15692
320 0.127161
325 0.123614
330 0.0824885
335 0.0772238
340 0.128976
345 0.11203
350 0.180271
355 0.124149
360 0.162817
365 0.132849
370 0.1028
375 0.143069
380 0.227738
385 0.237301
390 0.433304
395 0.833599
400 22.6943
405 417.128
410 677.963
415 177.957
420 24.9457
425 6.80946
430 4.56739
435 5.18535
440 5.21302
445 5.20859
450 5.04567
455 4.67264
460 5.69283
465 7.22498
470 6.39046
475 5.31996
480 4.83387
485 4.28038
490 3.74239
495 3.70903
500 3.42279
505 2.98268
510 2.93311
515 2.46041
520 2.46327
525 2.23206
530 1.97904
535 1.72669
540 1.61474
545 1.447
550 1.46197
555 1.11724
560 1.09331
565 0.902972
570 0.775536
575 0.596304
580 0.456723
585 0.429598
590 0.309585
595 0.338283
600 0.410701
Ex : 418
200 0.0753828
205 0.104284
210 0.0904457
215 0.101472
220 0.0621431
225 0.0899398
230 0.0958823
235 0.166793
240 0.0682454
245 0.0530921
250 0.0576115
255 0.0858575
260 0.0586371
265 0.134783
270 0.105711
275 0.0940815
280 0.0764678
285 0.10328
290 0.108784
295 0.0787009
300 0.0769688
305 0.0726268
310 0.0958452
315 0.10081
320 0.147767
325 0.0785752
330 0.0766053
335 0.0478249
340 0.170718
345 0.147002
350 0.122782
355 0.114354
360 0.12513
365 0.129053
370 0.125787
375 0.213388
380 0.169288
385 0.192968
390 0.277708
395 0.481337
400 0.832252
405 21.6851
410 410.086
415 680.995
420 182.898
425 23.9452
430 5.25861
435 3.34077
440 3.50899
445 3.45512
450 3.05746
455 2.91339
460 3.07735
465 3.62976
470 5.45556
475 5.66939
480 4.28132
485 3.95893
490 3.31136
495 3.00397
500 2.73163
505 2.52825
510 2.36488
515 2.22646
520 2.01291
525 1.88522
530 1.68313
535 1.61637
540 1.32579
545 1.25692
550 1.093
555 1.02252
560 1.07157
565 0.857559
570 0.727682
575 0.54128
580 0.429207
585 0.426697
590 0.317365
595 0.236893
600 0.1264
Ex : 423
200 0.0993644
205 0.058314
210 0.0699263
215 0.119124
220 0.0896293
225 0.0631775
230 0.0953082
235 0.0973181
240 0.107195
245 0.0715383
250 0.0700577
255 0.0769975
260 0.091822
265 0.131703
270 0.121637
275 0.0879116
280 0.0781895
285 0.105554
290 0.0631762
295 0.111926
300 0.106654
305 0.107763
310 0.129111
315 0.0924502
320 0.0956604
325 0.0704224
330 0.0694669
335 0.0959344
340 0.0900398
345 0.118873
350 0.0910096
355 0.0918083
360 0.114572
365 0.157675
370 0.150473
375 0.140634
380 0.136127
385 0.166519
390 0.215667
395 0.266991
400 0.427868
405 0.90824
410 22.6687
415 428.354
420 677.181
425 171.28
430 21.7414
435 4.19025
440 2.31778
445 2.40419
450 2.26066
455 1.88776
460 1.95254
465 1.9843
470 2.46504
475 4.26048
480 4.77537
485 3.73457
490 3.14133
495 2.83191
500 2.38267
505 2.30012
510 2.10625
515 1.98165
520 1.8295
525 1.73929
530 1.61961
535 1.34874
540 1.26894
545 1.26856
550 1.0485
555 0.991153
560 0.865084
565 0.778333
570 0.766554
575 0.579155
580 0.548091
585 0.360169
590 0.252889
595 0.268124
600 0.12029
Ex : 428
200 0.121965
205 0.0877943
210 0.102699
215 0.0754546
220 0.0807416
225 0.148734
230 0.0954036
235 0.102443
240 0.11117
245 0.057994
250 0.0896436
255 0.110676
260 0.116265
265 0.112399
270 0.068165
275 0.0885656
280 0.0812005
285 0.112396
290 0.101617
295 0.105269
300 0.100881
305 0.125204
310 0.096981
315 0.0680508
320 0.0950912
325 0.0899615
330 0.115942
335 0.0975334
340 0.171531
345 0.0877973
350 0.130901
355 0.0717049
360 0.120427
365 0.125273
370 0.155548
375 0.132066
380 0.127983
385 0.172586
390 0.22481
395 0.203419
400 0.346028
405 0.434634
410 0.806412
415 24.3217
420 427.592
425 688.572
430 179.25
435 22.1948
440 4.0113
445 1.71463
450 1.72362
455 1.77658
460 1.54813
465 1.44894
470 1.62927
475 1.89613
480 3.01708
485 4.66656
490 3.64966
495 2.75552
500 2.44159
505 2.09631
510 1.82053
515 1.84508
520 1.74708
525 1.53516
530 1.51952
535 1.31494
540 1.26665
545 1.20063
550 1.04085
555 0.96184
560 0.880625
565 0.873998
570 0.665078
575 0.563443
580 0.491611
585 0.380366
590 0.242319
595 0.2605
600 0.0296439
Ex : 433
200 0.0314666
205 0.0672571
210 0.114776
215 0.0597146
220 0.134324
225 0.0923623
230 0.0921128
235 0.0969945
240 0.0700799
245 0.0685974
250 0.0881638
255 0.0894869
260 0.115148
265 0.0690862
270 0.0929384
275 0.07919
280 0.0805072
285 0.086294
290 0.103677
295 0.118512
300 0.096443
305 0.0721317
310 0.125072
315 0.0676296
320 0.0733407
325 0.122394
330 0.131782
335 0.122124
340 0.0797633
345 0.101653
350 0.110509
355 0.116969
360 0.1253
365 0.106438
370 0.0922496
375 0.118507
380 0.133857
385 0.129905
390 0.167297
395 0.199507
400 0.219724
405 0.316419
410 0.483499
415 0.790268
420 26.8349
425 458.517
430 699.686
435 177.086
440 21.7454
445 3.78393
450 1.62441
455 1.64405
460 1.75653
465 1.52439
470 1.3184
475 1.4232
480 1.56392
485 2.48467
490 4.02848
495 3.45911
500 2.6757
505 2.38154
510 1.81479
515 1.64493
520 1.5661
525 1.53709
530 1.24374
535 1.22451
540 1.12047
545 1.09615
550 1.05129
555 0.928445
560 0.871267
565 0.805722
570 0.718225
575 0.489696
580 0.411245
585 0.379196
590 0.324296
595 0.254735
600 0.525619
Ex : 438
200 0.0982115
205 0.117706
210 0.0870581
215 0.0712183
220 0.150027
225 0.104981
230 0.110028
235 0.0484716
240 0.061805
245 0.142563
250 0.0853916
255 0.103372
260 0.100159
265 0.101235
270 0.0714809
275 0.0773348
280 0.0928134
285 0.137666
290 0.0800489
295 0.111
300 0.103531
305 0.101585
310 0.0747393
315 0.0879549
320 0.0743988
325 0.0907481
330 0.130189
335 0.171312
340 0.125121
345 0.140336
350 0.0925691
355 0.144099
360 0.108633
365 0.140712
370 0.131971
375 0.136706
380 0.156908
385 0.163205
390 0.124352
395 0.28158
400 0.211448
405 0.191053
410 0.324495
415 0.517693
420 0.828232
425 25.8451
430 460.712
435 738.177
440 186.809
445 22.9886
450 3.91528
455 1.58624
460 1.62817
465 1.81581
470 1.57
475 1.33637
480 1.4149
485 1.58449
490 1.93809
495 3.72362
500 3.83209
505 2.53832
510 2.12656
515 1.96653
520 1.59046
525 1.55819
530 1.48057
535 1.33928
540 1.3194
545 0.998344
550 0.93951
555 0.889376
560 0.760662
565 0.778563
570 0.572899
575 0.530139
580 0.50096
585 0.408503
590 0.306448
595 0.258328
600 0.498735
Ex : 443
200 0.101476
205 0.0905739
210 0.0728131
215 0.07557
220 0.0505791
225 0.0609393
230 0.107831
235 0.0744442
240 0.078362
245 0.0422626
250 0.115603
255 0.0627622
260 0.0953653
265 0.0862844
270 0.087744
275 0.103382
280 0.100166
285 0.111979
290 0.147187
295 0.0726149
300 0.0707602
305 0.124671
310 0.159807
315 0.10764
320 0.0963132
325 0.145558
330 0.102511
335 0.082667
340 0.102329
345 0.0979595
350 0.102969
355 0.0944034
360 0.111536
365 0.120536
370 0.165462
375 0.12638
380 0.119875
385 0.127386
390 0.112979
395 0.16891
400 0.145133
405 0.165129
410 0.257467
415 0.354963
420 0.394832
425 0.828225
430 29.272
435 492.524
440 750.718
445 185.878
450 22.7846
455 3.96175
460 1.65827
465 1.58965
470 1.74082
475 1.55879
480 1.44995
485 1.32574
490 1.41241
495 1.6813
500 2.98406
505 3.78719
510 2.53163
515 2.14501
520 1.79595
525 1.51336
530 1.23387
535 1.30563
540 1.20505
545 1.05567
550 0.925365
555 0.902432
560 0.86309
565 0.74733
570 0.639169
575 0.472023
580 0.441822
585 0.338557
590 0.311709
595 0.242015
600 0.192965
Ex : 448
200 0.107525
205 0.11138
210 0.0582374
215 0.100614
220 0.0897356
225 0.147112
230 0.15067
235 0.102671
240 0.0755305
245 0.0650047
250 0.0743114
255 0.0634807
260 0.0908533
265 0.0894237
270 0.0901295
275 0.152669
280 0.0930844
285 0.123226
290 0.0933089
295 0.0727745
300 0.0767718
305 0.118632
310 0.0877063
315 0.091079
320 0.0773787
325 0.123182
330 0.0788967
335 0.0522854
340 0.101932
345 0.0742375
350 0.109529
355 0.0919742
360 0.101337
365 0.110726
370 0.0713646
375 0.120412
380 0.14996
385 0.126508
390 0.103761
395 0.0898439
400 0.145839
405 0.165562
410 0.138882
415 0.253281
420 0.339421
425 0.444272
430 0.852428
435 29.3127
440 516.387
445 797.654
450 198.899
455 24.5508
460 4.30957
465 1.78371
470 1.55353
475 1.60011
480 1.49424
485 1.3506
490 1.32375
495 1.34401
500 1.38243
505 2.1431
510 3.62155
515 2.94163
520 1.8814
525 1.73832
530 1.43447
535 1.21166
540 1.17915
545 1.17564
550 1.12011
555 0.978546
560 0.870262
565 0.771635
570 0.590138
575 0.564323
580 0.406189
585 0.321735
590 0.266998
595 0.19776
600 0.285733
Ex : 453
200 0.0789769
205 0.0676798
210 0.0947938
215 0.100467
220 0.0549242
225 0.0683825
230 0.0909722
235 0.0944309
240 0.0754558
245 0.112213
250 0.0791595
255 0.0992757
260 0.068011
265 0.0828175
270 0.139827
275 0.120629
280 0.0712139
285 0.065005
290 0.0857421
295 0.0803326
300 0.120392
305 0.0836058
310 0.129929
315 0.0914916
320 0.134203
325 0.0889272
330 0.12309
335 0.072709
340 0.098496
345 0.0855939
350 0.158109
355 0.148096
360 0.11031
365 0.111302
370 0.110911
375 0.117932
380 0.133763
385 0.116399
390 0.119294
395 0.176293
400 0.172458
405 0.21575
410 0.192799
415 0.22208
420 0.234534
425 0.324327
430 0.548054
435 0.851353
440 31.6457
445 565.52
450 831.278
455 197.396
460 24.1794
465 4.41949
470 1.67361
475 1.41056
480 1.5314
485 1.53022
490 1.36853
495 1.26952
500 1.18704
505 1.27386
510 1.71248
515 2.99274
520 2.97154
525 2.06965
530 1.61644
535 1.59593
540 1.21046
545 1.05418
550 1.00083
555 0.937477
560 0.809447
565 0.770343
570 0.680212
575 0.499178
580 0.393022
585 0.370563
590 0.33577
595 0.255531
600 0.242893
Ex : 458
200 0.087441
205 0.0779234
210 0.113652
215 0.0638098
220 0.0865024
225 0.0818782
230 0.122919
235 0.113512
240 0.0995174
245 0.0780944
250 0.0541451
255 0.0852362
260 0.110499
265 0.0939217
270 0.10652
275 0.149651
280 0.0933373
285 0.109818
290 0.0770209
295 0.088294
300 0.0912852
305 0.135256
310 0.0812539
315 0.0816825
320 0.0701306
325 0.101932
330 0.0904792
335 0.130212
340 0.136672
345 0.0869717
350 0.158969
355 0.133628
360 0.149845
365 0.143425
370 0.133568
375 0.079691
380 0.149281
385 0.14818
390 0.105138
395 0.132886
400 0.209673
405 0.172036
410 0.162372
415 0.264722
420 0.208082
425 0.226616
430 0.32704
435 0.421064
440 0.88605
445 35.2567
450 586.443
455 888.878
460 216.21
465 26.5813
470 4.60578
475 1.71484
480 1.44795
485 1.6513
490 1.42704
495 1.23898
500 1.18429
505 1.1702
510 1.27208
515 1.4117
520 2.57295
525 3.18754
530 2.25176
535 1.69184
540 1.50598
545 1.19502
550 1.06944
555 1.04164
560 0.87122
565 0.80705
570 0.599849
575 0.571927
580 0.459396
585 0.3562
590 0.344391
595 0.33681
600 0.0642232
Ex : 463
200 0.137423
205 0.0815909
210 0.0833559
215 0.076685
220 0.101667
225 0.0568322
230 0.0928354
235 0.0863292
240 0.0913273
245 0.0821629
250 0.0669099
255 0.0596715
260 0.104017
265 0.11262
270 0.0958668
275 0.0792341
280 0.0854635
285 0.0870504
290 0.0880013
295 0.081429
300 0.0865534
305 0.10138
310 0.0855268
315 0.0991216
320 0.0881148
325 0.111205
330 0.093403
335 0.125471
340 0.0824227
345 0.123678
350 0.0905538
355 0.105966
360 0.111991
365 0.16992
370 0.124699
375 0.125984
380 0.08789
385 0.134704
390 0.132958
395 0.144664
400 0.110991
405 0.100299
410 0.153227
415 0.15432
420 0.20835
425 0.24377
430 0.240172
435 0.333945
440 0.475338
445 1.01784
450 35.2452
455 619.717
460 957.079
465 231.626
470 28.2193
475 4.73261
480 1.73384
485 1.43588
490 1.66503
495 1.58551
500 1.31606
505 1.15945
510 1.04914
515 1.27237
520 1.19529
525 1.83328
530 3.01408
535 2.37547
540 1.79449
545 1.52931
550 1.23193
555 1.04093
560 0.876217
565 0.8032
570 0.701236
575 0.590264
580 0.433004
585 0.473907
590 0.375276
595 0.313251
600 0.0976003
Ex : 468
200 0.0773717
205 0.0922243
210 0.0536623
215 0.0961329
220 0.0915352
225 0.0956372
230 0.0672425
235 0.127204
240 0.107195
245 0.109802
250 0.0887089
255 0.0743535
260 0.0813704
265 0.0673287
270 0.0461698
275 0.0608231
280 0.0681824
285 0.0897987
290 0.116873
295 0.0782411
300 0.157504
305 0.111049
310 0.0799677
315 0.122392
320 0.0768771
325 0.119618
330 0.112552
335 0.0864181
340 0.0919146
345 0.0947774
350 0.0827991
355 0.120147
360 0.131659
365 0.0895971
370 0.0873321
375 0.130128
380 0.0849029
385 0.151637
390 0.0695251
395 0.130906
400 0.118326
405 0.116241
410 0.124961
415 0.169215
420 0.13019
425 0.204328
430 0.183367
435 0.25952
440 0.383282
445 0.510018
450 0.940447
455 38.8196
460 637.022
465 1018.73
470 246.945
475 29.8223
480 4.73667
485 1.65241
490 1.2987
495 1.53846
500 1.49157
505 1.30781
510 1.17913
515 1.07715
520 1.15538
525 1.09937
530 1.49763
535 2.50974
540 2.75333
545 1.80066
550 1.45523
555 1.27429
560 1.13844
565 0.886795
570 0.717189
575 0.559719
580 0.506681
585 0.447567
590 0.358785
595 0.31269
600 0.0789299
Ex : 473
200 0.0596135
205 0.106402
210 0.072005
215 0.0794998
220 0.099047
225 0.0890322
230 0.0868796
235 0.0548836
240 0.0631864
245 0.0623784
250 0.100855
255 0.100343
260 0.126206
265 0.0934281
270 0.0912181
275 0.100112
280 0.0584637
285 0.0750157
290 0.113593
295 0.0574753
300 0.0670832
305 0.0937578
310 0.087605
315 0.0683805
320 0.067723
325 0.094803
330 0.0808212
335 0.11171
340 0.115116
345 0.12219
350 0.108233
355 0.145079
360 0.130767
365 0.1078
370 0.065534
375 0.116768
380 0.103144
385 0.134738
390 0.139545
395 0.137508
400 0.120832
405 0.137509
410 0.106588
415 0.166378
420 0.215649
425 0.163835
430 0.23398
435 0.210849
440 0.267803
445 0.361289
450 0.563347
455 1.00151
460 45.0713
465 707.142
470 1007.3
475 234.029
480 28.3618
485 4.73111
490 1.76861
495 1.34263
500 1.32719
505 1.40771
510 1.2072
515 1.06614
520 1.09433
525 1.16867
530 1.21454
535 1.31442
540 2.18979
545 2.71855
550 1.83136
555 1.23688
560 1.15112
565 0.978117
570 0.711333
575 0.619931
580 0.448478
585 0.458221
590 0.393081
595 0.353796
600 0.818265
Ex : 478
200 0.0863489
205 0.1056
210 0.0907823
215 0.113915
220 0.10303
225 0.0959212
230 0.0970286
235 0.0833482
240 0.0795795
245 0.116484
250 0.0993934
255 0.0621778
260 0.0838701
265 0.0757877
270 0.116714
275 0.083574
280 0.0815364
285 0.0777968
290 0.072763
295 0.0811649
300 0.0740151
305 0.103004
310 0.15542
315 0.114986
320 0.124587
325 0.103777
330 0.102263
335 0.153091
340 0.0882522
345 0.0874405
350 0.143522
355 0.130333
360 0.0942207
365 0.144406
370 0.136433
375 0.124045
380 0.15938
385 0.201418
390 0.160788
395 0.186878
400 0.190162
405 0.133947
410 0.143808
415 0.154706
420 0.18001
425 0.161869
430 0.170347
435 0.208883
440 0.232898
445 0.309597
450 0.466359
455 0.662479
460 1.187
465 50.442
470 746.063
475 1042.97
480 251.715
485 30.6724
490 4.9966
495 1.65458
500 1.23115
505 1.31211
510 1.35829
515 1.28706
520 1.13205
525 1.08306
530 1.13668
535 1.23629
540 1.27706
545 1.8245
550 2.48453
555 2.0732
560 1.31936
565 1.05326
570 0.88443
575 0.701818
580 0.538455
585 0.485529
590 0.366695
595 0.351097
600 0.24518
Ex : 483
200 0.157614
205 0.0950419
210 0.112476
215 0.0918403
220 0.155516
225 0.165007
230 0.141344
235 0.0913149
240 0.0819866
245 0.113974
250 0.0878809
255 0.120592
260 0.130175
265 0.0964909
270 0.110802
275 0.10736
280 0.153083
285 0.0995591
290 0.124546
295 0.114025
300 0.12832
305 0.135916
310 0.0988802
315 0.164464
320 0.102528
325 0.126682
330 0.13943
335 0.1177
340 0.148323
345 0.131379
350 0.103087
355 0.165423
360 0.10591
365 0.123499
370 0.0943966
375 0.0663235
380 0.0969416
385 0.110203
390 0.152848
395 0.172867
400 0.140762
405 0.126637
410 0.151684
415 0.18773
420 0.130525
425 0.129443
430 0.244181
435 0.213986
440 0.240913
445 0.358601
450 0.295622
455 0.4932
460 0.565248
465 1.38145
470 39.3817
475 726.51
480 1119
485 272.037
490 32.9092
495 5.07843
500 1.66734
505 1.08075
510 1.20426
515 1.46675
520 1.37424
525 1.27973
530 1.1349
535 1.15664
540 1.12387
545 0.971269
550 1.24731
555 2.1528
560 2.31796
565 1.40855
570 1.01285
575 0.831954
580 0.709661
585 0.557359
590 0.47712
595 0.341193
600 0.685847
Ex : 488
200 0.107081
205 0.211224
210 0.175322
215 0.141358
220 0.119396
225 0.0903792
230 0.0723934
235 0.0522705
240 0.0875937
245 0.133522
250 0.12249
255 0.150215
260 0.111534
265 0.0918713
270 0.0914994
275 0.175726
280 0.156524
285 0.120452
290 0.149671
295 0.129356
300 0.0754191
305 0.16971
310 0.0915457
315 0.126757
320 0.157679
325 0.0913928
330 0.10732
335 0.163721
340 0.202551
345 0.116973
350 0.15061
355 0.16286
360 0.129675
365 0.157666
370 0.122402
375 0.0830706
380 0.138443
385 0.158462
390 0.151568
395 0.151025
400 0.11397
405 0.202701
410 0.134178
415 0.207026
420 0.172168
425 0.149425
430 0.1158
435 0.177692
440 0.241079
445 0.198999
450 0.223838
455 0.322971
460 0.441702
465 0.826281
470 1.38132
475 49.0097
480 816.846
485 1147.29
490 270.047
495 32.6216
500 5.16643
505 1.78321
510 1.2268
515 1.1603
520 1.3738
525 1.29249
530 1.19873
535 1.01975
540 1.07393
545 0.995523
550 0.951537
555 1.13937
560 1.65525
565 2.17132
570 1.43522
575 0.921318
580 0.634611
585 0.644008
590 0.500409
595 0.372068
600 0.433213
Ex : 493
200 0.155005
205 0.127578
210 0.135182
215 0.153682
220 0.094069
225 0.0930415
230 0.0796824
235 0.104889
240 0.111877
245 0.101544
250 0.133743
255 0.115301
260 0.132047
265 0.12074
270 0.170435
275 0.140982
280 0.101252
285 0.140069
290 0.129537
295 0.138112
300 0.154153
305 0.184564
310 0.136503
315 0.105649
320 0.148448
325 0.162127
330 0.114527
335 0.13352
340 0.120622
345 0.185065
350 0.164138
355 0.0878427
360 0.160359
365 0.121963
370 0.121905
375 0.141345
380 0.201452
385 0.141203
390 0.115731
395 0.13589
400 0.136017
405 0.196095
410 0.199781
415 0.139323
420 0.134111
425 0.177454
430 0.227598
435 0.175075
440 0.215961
445 0.247458
450 0.257371
455 0.294221
460 0.379487
465 0.503459
470 0.776616
475 1.3179
480 46.7584
485 807.414
490 1195.92
495 277.289
500 33.4697
505 5.11303
510 1.762
515 1.12826
520 1.17691
525 1.44637
530 1.32928
535 1.42566
540 1.08145
545 1.04397
550 0.911596
555 0.97742
560 0.873075
565 1.0972
570 1.67368
575 1.47905
580 0.929553
585 0.598151
590 0.441808
595 0.385226
600 0.463441
Ex : 498
200 0.134359
205 0.182698
210 0.155141
215 0.135277
220 0.0989395
225 0.144065
230 0.136371
235 0.130619
240 0.131664
245 0.1401
250 0.135181
255 0.134321
260 0.0994151
265 0.116405
270 0.14996
275 0.13645
280 0.146689
285 0.115268
290 0.118626
295 0.115675
300 0.0890224
305 0.0850435
310 0.0764147
315 0.105699
320 0.147923
325 0.159435
330 0.114721
335 0.0927856
340 0.152111
345 0.118879
350 0.125007
355 0.208799
360 0.114833
365 0.101253
370 0.161609
375 0.149867
380 0.120267
385 0.110677
390 0.127939
395 0.175129
400 0.17914
405 0.101499
410 0.142433
415 0.153814
420 0.216656
425 0.146277
430 0.177774
435 0.147134
440 0.24049
445 0.209266
450 0.179912
455 0.313597
460 0.360058
465 0.509847
470 0.539537
475 0.860216
480 1.43163
485 57.2981
490 872.209
495 1200.5
500 279.98
505 33.6106
510 5.08106
515 1.80933
520 1.20199
525 1.23417
530 1.38116
535 1.33647
540 1.20516
545 1.05065
550 0.948711
555 1.02527
560 0.922651
565 0.70762
570 0.91877
575 1.26336
580 1.37462
585 0.809937
590 0.51005
595 0.453244
600 1.14087
Ex : 503
200 0.14107
205 0.104805
210 0.133649
215 0.121662
220 0.137798
225 0.129222
230 0.156141
235 0.154403
240 0.132437
245 0.157964
250 0.158061
255 0.0913548
260 0.1526
265 0.117012
270 0.111919
275 0.154619
280 0.0814159
285 0.0768407
290 0.16145
295 0.102885
300 0.113088
305 0.175859
310 0.170208
315 0.157889
320 0.12934
325 0.08779
330 0.131154
335 0.114973
340 0.169661
345 0.183214
350 0.127866
355 0.0951402
360 0.109522
365 0.131543
370 0.140778
375 0.191281
380 0.190315
385 0.128054
390 0.185862
395 0.105114
400 0.157564
405 0.224035
410 0.168147
415 0.153482
420 0.166153
425 0.188944
430 0.208356
435 0.191
440 0.251732
445 0.178113
450 0.249813
455 0.268437
460 0.264935
465 0.389375
470 0.383557
475 0.456802
480 0.652556
485 1.43606
490 53.2345
495 888.66
500 1264.96
505 291.77
510 35.397
515 5.57688
520 1.83496
525 1.30045
530 1.0636
535 1.25756
540 1.36526
545 1.05351
550 1.0223
555 0.864379
560 0.780167
565 0.679489
570 0.750793
575 0.689526
580 0.812724
585 1.07245
590 0.761126
595 0.522347
600 0.987279
Ex : 508
200 0.0837826
205 0.0707951
210 0.134268
215 0.127192
220 0.110078
225 0.12158
230 0.179761
235 0.135604
240 0.199474
245 0.0838705
250 0.105134
255 0.140489
260 0.170621
265 0.259448
270 0.18173
275 0.166936
280 0.131642
285 0.12178
290 0.100086
295 0.0965715
300 0.142717
305 0.129369
310 0.181789
315 0.121357
320 0.216537
325 0.177736
330 0.114943
335 0.140129
340 0.11882
345 0.218201
350 0.117926
355 0.155873
360 0.21254
365 0.189967
370 0.12856
375 0.167126
380 0.142078
385 0.154692
390 0.120412
395 0.150683
400 0.124056
405 0.235644
410 0.169007
415 0.140584
420 0.182913
425 0.146486
430 0.173998
435 0.188629
440 0.13868
445 0.225039
450 0.227788
455 0.23225
460 0.26979
465 0.270396
470 0.352051
475 0.417939
480 0.677999
485 0.769769
490 1.414
495 57.9803
500 884.299
505 1248.19
510 302.973
515 36.5745
520 5.63054
525 2.01723
530 1.35879
535 1.15241
540 1.14853
545 1.12986
550 1.1491
555 0.976976
560 0.755697
565 0.681981
570 0.647379
575 0.656359
580 0.530558
585 0.677614
590 0.883713
595 0.827111
600 0.228272
Ex : 513
200 0.153812
205 0.161231
210 0.123038
215 0.102661
220 0.0932416
225 0.106944
230 0.109923
235 0.125403
240 0.136735
245 0.174856
250 0.189719
255 0.180611
260 0.155919
265 0.143862
270 0.0877258
275 0.0929339
280 0.182362
285 0.112781
290 0.12584
295 0.10549
300 0.134472
305 0.154641
310 0.104354
315 0.110563
320 0.130854
325 0.149341
330 0.168743
335 0.132938
340 0.162234
345 0.181739
350 0.168299
355 0.145439
360 0.133969
365 0.149096
370 0.139783
375 0.143873
380 0.188375
385 0.136392
390 0.140903
395 0.151025
400 0.185902
405 0.213326
410 0.160446
415 0.170775
420 0.258388
425 0.207419
430 0.130493
435 0.217164
440 0.216655
445 0.24489
450 0.157746
455 0.207354
460 0.246762
465 0.236041
470 0.310947
475 0.387576
480 0.386632
485 0.583923
490 0.801175
495 1.42977
500 52.0574
505 880.246
510 1278.26
515 315.308
520 37.9729
525 5.68659
530 1.80175
535 1.22916
540 1.18812
545 1.03143
550 1.10325
555 0.936073
560 0.868492
565 0.705701
570 0.595319
575 0.5656
580 0.572263
585 0.47584
590 0.549527
595 0.623713
600 0.754264
Ex : 518
200 0.135138
205 0.149822
210 0.120951
215 0.0984006
220 0.128621
225 0.157648
230 0.0962583
235 0.103924
240 0.137296
245 0.112826
250 0.194316
255 0.138829
260 0.13583
265 0.119603
270 0.0984185
275 0.169476
280 0.111379
285 0.142678
290 0.104755
295 0.131102
300 0.106427
305 0.169486
310 0.129807
315 0.126476
320 0.160721
325 0.133828
330 0.138521
335 0.141051
340 0.125246
345 0.172138
350 0.169352
355 0.15012
360 0.139258
365 0.11428
370 0.200017
375 0.20535
380 0.207806
385 0.126137
390 0.17217
395 0.152569
400 0.129855
405 0.190994
410 0.10779
415 0.19571
420 0.115128
425 0.1799
430 0.149774
435 0.148568
440 0.154074
445 0.144758
450 0.1687
455 0.187202
460 0.220976
465 0.24822
470 0.209013
475 0.25122
480 0.348045
485 0.418493
490 0.530942
495 0.924743
500 1.40528
505 53.5543
510 860.65
515 1288.27
520 319.25
525 38.2646
530 5.75836
535 1.78921
540 1.13164
545 1.02929
550 1.0259
555 1.0551
560 0.923294
565 0.704124
570 0.583536
575 0.65555
580 0.449979
585 0.429336
590 0.433503
595 0.407861
600 0.178491
Ex : 523
200 0.148884
205 0.192526
210 0.134085
215 0.109722
220 0.132436
225 0.139552
230 0.11356
235 0.132742
240 0.207304
245 0.178988
250 0.127093
255 0.162024
260 0.191739
265 0.107594
270 0.116374
275 0.101884
280 0.140178
285 0.127881
290 0.218883
295 0.164239
300 0.171512
305 0.112015
310 0.163935
315 0.161734
320 0.182373
325 0.191024
330 0.125172
335 0.152344
340 0.177729
345 0.109097
350 0.123504
355 0.145601
360 0.15513
365 0.145673
370 0.180032
375 0.169906
380 0.254941
385 0.178678
390 0.19323
395 0.196506
400 0.161057
405 0.163078
410 0.158534
415 0.177151
420 0.124388
425 0.20035
430 0.251296
435 0.191029
440 0.258568
445 0.15534
450 0.158419
455 0.211901
460 0.199182
465 0.209378
470 0.26349
475 0.236202
480 0.268685
485 0.341318
490 0.468202
495 0.524589
500 0.769245
505 1.54548
510 49.7213
515 837.749
520 1288.66
525 333.326
530 40.0702
535 5.94131
540 1.88713
545 1.26036
550 1.05886
555 0.897668
560 0.920435
565 0.86309
570 0.650101
575 0.608217
580 0.453959
585 0.456071
590 0.474016
595 0.366725
600 0.0417319
Ex : 528
200 0.0992874
205 0.132606
210 0.135149
215 0.127676
220 0.146054
225 0.13338
230 0.119309
235 0.172529
240 0.176442
245 0.163618
250 0.144236
255 0.140705
260 0.145455
265 0.11986
270 0.178379
275 0.117367
280 0.130149
285 0.133065
290 0.14368
295 0.242353
300 0.26886
305 0.179251
310 0.154658
315 0.135241
320 0.161258
325 0.180403
330 0.122021
335 0.146454
340 0.174028
345 0.265503
350 0.186182
355 0.139983
360 0.13376
365 0.195528
370 0.166143
375 0.141575
380 0.161367
385 0.207238
390 0.154904
395 0.16882
400 0.191396
405 0.291438
410 0.233397
415 0.271671
420 0.168169
425 0.141617
430 0.165895
435 0.193724
440 0.133307
445 0.196065
450 0.240125
455 0.183301
460 0.243632
465 0.210887
470 0.179342
475 0.280102
480 0.258068
485 0.223201
490 0.312198
495 0.418741
500 0.477901
505 0.813078
510 1.32962
515 46.7155
520 838.742
525 1281.49
530 322.427
535 38.7035
540 5.64927
545 1.81295
550 1.15716
555 0.914657
560 0.951094
565 0.833937
570 0.687533
575 0.794459
580 0.495688
585 0.40307
590 0.361223
595 0.370174
600 0.693213
Ex : 533
200 0.130745
205 0.100367
210 0.153672
215 0.129165
220 0.16136
225 0.12005
230 0.130802
235 0.165217
240 0.105173
245 0.168219
250 0.150268
255 0.142894
260 0.194174
265 0.10207
270 0.201516
275 0.156881
280 0.158445
285 0.0850945
290 0.0929045
295 0.0971451
300 0.149678
305 0.127333
310 0.101011
315 0.154064
320 0.142685
325 0.210986
330 0.241336
335 0.149756
340 0.215252
345 0.213736
350 0.144469
355 0.144106
360 0.10942
365 0.232721
370 0.188198
375 0.168895
380 0.17817
385 0.134696
390 0.168699
395 0.101043
400 0.163959
405 0.167492
410 0.162232
415 0.164478
420 0.189436
425 0.191095
430 0.170362
435 0.200358
440 0.281955
445 0.209638
450 0.180599
455 0.151223
460 0.183434
465 0.242036
470 0.332935
475 0.250455
480 0.285001
485 0.364758
490 0.265949
495 0.336847
500 0.429628
505 0.5347
510 0.86968
515 1.26446
520 47.1609
525 801.561
530 1262.69
535 326.955
540 39.127
545 5.5846
550 1.64295
555 1.14808
560 0.764063
565 0.651047
570 0.648344
575 0.680176
580 0.544029
585 0.461881
590 0.34418
595 0.374063
600 0.369063
Ex : 538
200 0.119401
205 0.196544
210 0.149179
215 0.102047
220 0.14512
225 0.120044
230 0.101145
235 0.175376
240 0.182645
245 0.20029
250 0.122873
255 0.169192
260 0.150186
265 0.17722
270 0.231261
275 0.127411
280 0.164635
285 0.188144
290 0.114919
295 0.208954
300 0.144459
305 0.112655
310 0.113478
315 0.126094
320 0.157414
325 0.160153
330 0.14945
335 0.14723
340 0.201323
345 0.140014
350 0.158736
355 0.203511
360 0.210954
365 0.142197
370 0.160748
375 0.169099
380 0.218831
385 0.186627
390 0.265545
395 0.168934
400 0.154597
405 0.190965
410 0.212266
415 0.149784
420 0.153164
425 0.150732
430 0.134024
435 0.220785
440 0.245871
445 0.203009
450 0.210092
455 0.201585
460 0.198779
465 0.229091
470 0.210466
475 0.332598
480 0.220151
485 0.279234
490 0.242361
495 0.275224
500 0.282102
505 0.396248
510 0.547235
515 0.706011
520 1.3351
525 40.2201
530 779.876
535 1284.41
540 349.445
545 41.7356
550 5.75496
555 1.55406
560 0.873742
565 0.603342
570 0.464487
575 0.558554
580 0.622936
585 0.482176
590 0.46037
595 0.338817
600 0.653572
Ex : 543
200 0.192465
205 0.107541
210 0.130978
215 0.128944
220 0.184758
225 0.259369
230 0.141124
235 0.122002
240 0.136797
245 0.198984
250 0.185586
255 0.118669
260 0.203606
265 0.247863
270 0.13163
275 0.231115
280 0.219494
285 0.150285
290 0.163456
295 0.293621
300 0.217055
305 0.167
310 0.134672
315 0.135819
320 0.194368
325 0.253199
330 0.32187
335 0.21122
340 0.181375
345 0.191018
350 0.138514
355 0.120927
360 0.121408
365 0.124488
370 0.220623
375 0.190261
380 0.212469
385 0.156662
390 0.211961
395 0.283726
400 0.186593
405 0.184302
410 0.219686
415 0.174381
420 0.22522
425 0.159314
430 0.178244
435 0.255806
440 0.294383
445 0.267002
450 0.175056
455 0.259432
460 0.226391
465 0.24151
470 0.245275
475 0.326334
480 0.22205
485 0.221153
490 0.312245
495 0.350616
500 0.284734
505 0.383667
510 0.38366
515 0.624372
520 0.813788
525 1.19653
530 36.5847
535 753.38
540 1277.83
545 350.775
550 42.094
555 5.8889
560 1.4347
565 0.79467
570 0.658639
575 0.537665
580 0.469569
585 0.5125
590 0.446101
595 0.347687
600 0.245204
Ex : 548
200 0.147773
205 0.139644
210 0.225772
215 0.148692
220 0.126836
225 0.187348
230 0.102138
235 0.124356
240 0.138986
245 0.134681
250 0.203119
255 0.15558
260 0.217908
265 0.18367
270 0.16729
275 0.192488
280 0.155179
285 0.185439
290 0.1772
295 0.116349
300 0.241996
305 0.139113
310 0.183653
315 0.165868
320 0.176697
325 0.24178
330 0.223692
335 0.295519
340 0.147814
345 0.157105
350 0.191897
355 0.177341
360 0.224523
365 0.216689
370 0.175959
375 0.292385
380 0.176801
385 0.163203
390 0.235435
395 0.225578
400 0.207889
405 0.250467
410 0.195806
415 0.215548
420 0.34561
425 0.180613
430 0.162648
435 0.183434
440 0.199128
445 0.24385
450 0.216658
455 0.271059
460 0.223913
465 0.156159
470 0.275733
475 0.199682
480 0.260967
485 0.282864
490 0.231066
495 0.249718
500 0.302209
505 0.329993
510 0.388923
515 0.464936
520 0.488445
525 0.692273
530 1.11813
535 38.8526
540 739.017
545 1244.4
550 345.88
555 41.2417
560 5.58948
565 1.39342
570 0.843045
575 0.607067
580 0.52282
585 0.486606
590 0.506688
595 0.369139
600 0.10243
Ex : 553
200 0.12358
205 0.16444
210 0.153619
215 0.13827
220 0.121206
225 0.191083
230 0.174092
235 0.184529
240 0.116091
245 0.162172
250 0.147101
255 0.144499
260 0.1718
265 0.165171
270 0.204057
275 0.123736
280 0.131778
285 0.128232
290 0.132071
295 0.129852
300 0.129523
305 0.180225
310 0.180494
315 0.204874
320 0.149684
325 0.131716
330 0.167548
335 0.175873
340 0.272661
345 0.184809
350 0.172659
355 0.170844
360 0.201526
365 0.187151
370 0.136911
375 0.174725
380 0.169664
385 0.215717
390 0.134935
395 0.163223
400 0.220375
405 0.17758
410 0.223224
415 0.198987
420 0.149316
425 0.173843
430 0.252816
435 0.208993
440 0.146082
445 0.15461
450 0.214112
455 0.146193
460 0.170164
465 0.290831
470 0.252904
475 0.22191
480 0.228201
485 0.348642
490 0.294951
495 0.224259
500 0.331826
505 0.280633
510 0.286255
515 0.324201
520 0.451319
525 0.582906
530 0.726863
535 1.08282
540 34.1687
545 704.436
550 1245.67
555 352.709
560 42.2789
565 5.68078
570 1.34213
575 0.717359
580 0.465404
585 0.431767
590 0.474785
595 0.377483
600 0.0429561
Ex : 558
200 0.290726
205 0.137169
210 0.156427
215 0.146761
220 0.243824
225 0.148487
230 0.194526
235 0.137577
240 0.230116
245 0.231921
250 0.148613
255 0.0849627
260 0.110575
265 0.213102
270 0.122931
275 0.223856
280 0.236438
285 0.17981
290 0.207861
295 0.2956
300 0.203299
305 0.214785
310 0.136169
315 0.193174
320 0.171631
325 0.144147
330 0.180616
335 0.14482
340 0.328138
345 0.192067
350 0.140956
355 0.218656
360 0.153871
365 0.24595
370 0.181842
375 0.162475
380 0.23802
385 0.241927
390 0.260471
395 0.23403
400 0.168045
405 0.131113
410 0.226755
415 0.243192
420 0.191976
425 0.128961
430 0.123605
435 0.134702
440 0.211041
445 0.176925
450 0.220104
455 0.231213
460 0.198854
465 0.252695
470 0.229723
475 0.198759
480 0.191737
485 0.290381
490 0.258959
495 0.238652
500 0.282478
505 0.298815
510 0.306544
515 0.263548
520 0.388921
525 0.431554
530 0.576336
535 0.66427
540 1.17738
545 31.4397
550 676.188
555 1214.19
560 347.999
565 41.864
570 5.57075
575 1.12849
580 0.659245
585 0.461799
590 0.341044
595 0.389998
600 0.102753
Ex : 563
200 0.242071
205 0.198529
210 0.197735
215 0.306092
220 0.207698
225 0.131291
230 0.102066
235 0.213982
240 0.196915
245 0.154418
250 0.299276
255 0.208346
260 0.25499
265 0.143654
270 0.154908
275 0.222678
280 0.274432
285 0.244769
290 0.28901
295 0.18649
300 0.226912
305 0.169645
310 0.158548
315 0.222622
320 0.153819
325 0.180787
330 0.179067
335 0.179544
340 0.150133
345 0.168941
350 0.180993
355 0.145647
360 0.179839
365 0.138256
370 0.137872
375 0.186864
380 0.223566
385 0.153212
390 0.164298
395 0.155066
400 0.178882
405 0.183266
410 0.247303
415 0.212273
420 0.181653
425 0.271935
430 0.231447
435 0.237433
440 0.190316
445 0.328257
450 0.203758
455 0.194633
460 0.218243
465 0.24539
470 0.23452
475 0.212353
480 0.204985
485 0.189845
490 0.360252
495 0.197074
500 0.272002
505 0.183263
510 0.207208
515 0.256742
520 0.288654
525 0.380285
530 0.374105
535 0.618472
540 0.729717
545 1.1853
550 32.7804
555 658.884
560 1160.08
565 336.424
570 40.2739
575 5.19966
580 1.11725
585 0.619782
590 0.499457
595 0.349948
600 0.615855
Ex : 568
200 0.145468
205 0.132484
210 0.131804
215 0.178767
220 0.0965609
225 0.259594
230 0.152758
235 0.165789
240 0.172657
245 0.157968
250 0.251288
255 0.154825
260 0.22391
265 0.241389
270 0.213007
275 0.113408
280 0.155343
285 0.174107
290 0.156288
295 0.182294
300 0.267366
305 0.156266
310 0.270028
315 0.142154
320 0.234078
325 0.188248
330 0.112709
335 0.270842
340 0.181455
345 0.209829
350 0.199299
355 0.283102
360 0.29545
365 0.199292
370 0.21139
375 0.153926
380 0.171686
385 0.222982
390 0.319184
395 0.234982
400 0.330609
405 0.25411
410 0.181573
415 0.199024
420 0.184024
425 0.177162
430 0.197567
435 0.263913
440 0.222116
445 0.188405
450 0.285561
455 0.277872
460 0.325383
465 0.228875
470 0.347709
475 0.274518
480 0.271176
485 0.338443
490 0.276459
495 0.261111
500 0.232601
505 0.276986
510 0.193767
515 0.382893
520 0.249122
525 0.260324
530 0.375503
535 0.38934
540 0.53154
545 0.73584
550 0.924
555 24.4616
560 591.583
565 1129.6
570 341.636
575 41.177
580 5.52234
585 1.20177
590 0.566502
595 0.43458
600 0.423501
Ex : 573
200 0.188211
205 0.149326
210 0.160839
215 0.19529
220 0.140281
225 0.178633
230 0.162976
235 0.169568
240 0.100922
245 0.150204
250 0.227023
255 0.153456
260 0.182957
265 0.142121
270 0.189924
275 0.191389
280 0.266777
285 0.196854
290 0.211379
295 0.119963
300 0.169173
305 0.121803
310 0.142455
315 0.158894
320 0.317045
325 0.192237
330 0.19632
335 0.187975
340 0.127594
345 0.232734
350 0.16054
355 0.238867
360 0.182331
365 0.189301
370 0.28017
375 0.246469
380 0.18736
385 0.165359
390 0.219348
395 0.235588
400 0.23527
405 0.182514
410 0.213147
415 0.183929
420 0.244719
425 0.216295
430 0.255988
435 0.26562
440 0.209796
445 0.196579
450 0.205262
455 0.230477
460 0.23696
465 0.196417
470 0.208022
475 0.339086
480 0.198937
485 0.231322
490 0.210967
495 0.217961
500 0.314472
505 0.316527
510 0.312757
515 0.246197
520 0.245829
525 0.247233
530 0.330478
535 0.340841
540 0.390945
545 0.500616
550 0.620364
555 0.927343
560 20.7837
565 517.031
570 1056.6
575 326.419
580 39.0624
585 4.90348
590 0.953128
595 0.476478
600 1.34217
Ex : 578
200 0.160578
205 0.144355
210 0.136235
215 0.163011
220 0.216433
225 0.188435
230 0.156357
235 0.168329
240 0.186788
245 0.226343
250 0.133908
255 0.220617
260 0.132756
265 0.246253
270 0.225438
275 0.14047
280 0.198434
285 0.193965
290 0.172873
295 0.241079
300 0.14634
305 0.166528
310 0.154688
315 0.202307
320 0.217262
325 0.150537
330 0.270144
335 0.163701
340 0.25771
345 0.249975
350 0.276415
355 0.186403
360 0.126516
365 0.175196
370 0.188496
375 0.18059
380 0.144877
385 0.171158
390 0.218097
395 0.211594
400 0.146844
405 0.168038
410 0.144647
415 0.177535
420 0.199852
425 0.18214
430 0.183205
435 0.33107
440 0.198842
445 0.24396
450 0.27598
455 0.149296
460 0.169092
465 0.258303
470 0.15328
475 0.215164
480 0.194162
485 0.262853
490 0.214188
495 0.255242
500 0.211389
505 0.2749
510 0.265683
515 0.25352
520 0.329931
525 0.248276
530 0.210488
535 0.295864
540 0.342597
545 0.348225
550 0.509423
555 0.621839
560 0.952915
565 18.2895
570 466.793
575 915.582
580 280.034
585 33.6258
590 4.30364
595 0.916084
600 0.259931
Ex : 583
200 0.223592
205 0.230431
210 0.190686
215 0.120513
220 0.106231
225 0.169371
230 0.274273
235 0.227243
240 0.181708
245 0.158184
250 0.207551
255 0.293088
260 0.179151
265 0.208446
270 0.172413
275 0.190462
280 0.122557
285 0.185179
290 0.147779
295 0.196991
300 0.183301
305 0.24445
310 0.361897
315 0.203855
320 0.205813
325 0.16142
330 0.199365
335 0.195008
340 0.247082
345 0.152245
350 0.352228
355 0.14614
360 0.182627
365 0.281639
370 0.167592
375 0.249351
380 0.189693
385 0.133565
390 0.299235
395 0.213156
400 0.178082
405 0.255891
410 0.268429
415 0.171795
420 0.148757
425 0.136898
430 0.180927
435 0.202435
440 0.193449
445 0.201123
450 0.151781
455 0.182071
460 0.213359
465 0.273552
470 0.258217
475 0.2285
480 0.198626
485 0.234296
490 0.270881
495 0.179834
500 0.193739
505 0.151746
510 0.317114
515 0.429691
520 0.232106
525 0.198162
530 0.306734
535 0.36618
540 0.349355
545 0.285808
550 0.253704
555 0.464387
560 0.60488
565 0.853672
570 15.2848
575 413.565
580 781.205
585 227.996
590 27.3183
595 3.57326
600 0.406623
Ex : 588
200 0.112536
205 0.223068
210 0.259391
215 0.307707
220 0.184984
225 0.220607
230 0.209678
235 0.223862
240 0.189695
245 0.180806
250 0.158575
255 0.117636
260 0.216488
265 0.185121
270 0.168434
275 0.143584
280 0.211503
285 0.225387
290 0.206481
295 0.172094
300 0.147569
305 0.0792618
310 0.10403
315 0.199774
320 0.264873
325 0.151828
330 0.173884
335 0.128243
340 0.141348
345 0.272359
350 0.124149
355 0.170947
360 0.222201
365 0.177312
370 0.15284
375 0.174511
380 0.171061
385 0.186286
390 0.160271
395 0.198101
400 0.29883
405 0.228757
410 0.234874
415 0.208955
420 0.21115
425 0.26087
430 0.206405
435 0.224343
440 0.174076
445 0.274721
450 0.234897
455 0.217091
460 0.289268
465 0.290262
470 0.155906
475 0.189438
480 0.223302
485 0.297795
490 0.187697
495 0.269921
500 0.233062
505 0.157755
510 0.191289
515 0.311228
520 0.310138
525 0.277668
530 0.203825
535 0.332132
540 0.37372
545 0.317074
550 0.343528
555 0.417451
560 0.503866
565 0.576523
570 0.848888
575 14.125
580 351.838
585 671.755
590 203.174
595 24.3786
600 4.41174
Ex : 593
200 0.180675
205 0.225512
210 0.0983151
215 0.202571
220 0.145931
225 0.17174
230 0.145317
235 0.158724
240 0.23391
245 0.232335
250 0.151552
255 0.238757
260 0.361168
265 0.105719
270 0.181814
275 0.166176
280 0.207739
285 0.302609
290 0.175641
295 0.341516
300 0.225963
305 0.198272
310 0.14209
315 0.191177
320 0.113355
325 0.164546
330 0.159305
335 0.153065
340 0.183572
345 0.23861
350 0.185632
355 0.201202
360 0.151918
365 0.160363
370 0.298069
375 0.21231
380 0.250149
385 0.212189
390 0.157943
395 0.199521
400 0.207877
405 0.223885
410 0.147712
415 0.204937
420 0.262909
425 0.161997
430 0.176893
435 0.328193
440 0.190954
445 0.265101
450 0.215671
455 0.22631
460 0.212914
465 0.323523
470 0.240183
475 0.250843
480 0.246248
485 0.244632
490 0.180802
495 0.254873
500 0.237484
505 0.337909
510 0.269888
515 0.245667
520 0.326703
525 0.352053
530 0.173033
535 0.257566
540 0.206775
545 0.24014
550 0.416212
555 0.355615
560 0.368603
565 0.386277
570 0.516011
575 0.629255
580 11.4094
585 303.177
590 562.987
595 173.104
600 27.6745
Ex : 598
200 0.199022
205 0.182645
210 0.212913
215 0.155518
220 0.249954
225 0.188902
230 0.169001
235 0.274913
240 0.154154
245 0.225175
250 0.170057
255 0.131447
260 0.155435
265 0.131691
270 0.185919
275 0.190358
280 0.214942
285 0.183996
290 0.169195
295 0.271184
300 0.171292
305 0.178812
310 0.125502
315 0.143117
320 0.251222
325 0.252869
330 0.222144
335 0.377404
340 0.252558
345 0.153434
350 0.288866
355 0.200455
360 0.377899
365 0.284543
370 0.267987
375 0.242363
380 0.12886
385 0.147821
390 0.273045
395 0.157217
400 0.170904
405 0.249601
410 0.264011
415 0.140819
420 0.118137
425 0.26858
430 0.208539
435 0.202911
440 0.177322
445 0.213458
450 0.169251
455 0.164749
460 0.189996
465 0.189917
470 0.212414
475 0.286035
480 0.274302
485 0.243917
490 0.19506
495 0.290866
500 0.196166
505 0.208521
510 0.187382
515 0.164616
520 0.272198
525 0.276324
530 0.160216
535 0.177523
540 0.297592
545 0.240635
550 0.237336
555 0.204921
560 0.317425
565 0.370779
570 0.39497
575 0.344861
580 0.645896
585 11.6826
590 275.818
595 505.074
600 321.066
Ex : 603
200 0.251799
205 0.183013
210 0.228563
215 0.290606
220 0.186653
225 0.139471
230 0.246553
235 0.206101
240 0.198075
245 0.277934
250 0.268194
255 0.267827
260 0.210551
265 0.179536
270 0.256471
275 0.162064
280 0.230345
285 0.174877
290 0.197594
295 0.265973
300 0.338854
305 0.150251
310 0.215236
315 0.416512
320 0.297008
325 0.242842
330 0.264954
335 0.266925
340 0.290808
345 0.153923
350 0.159804
355 0.28297
360 0.206777
365 0.249268
370 0.241934
375 0.215804
380 0.178239
385 0.168042
390 0.162047
395 0.178505
400 0.150673
405 0.286222
410 0.277721
415 0.300363
420 0.164458
425 0.23083
430 0.326776
435 0.245859
440 0.215892
445 0.259469
450 0.337224
455 0.388944
460 0.305001
465 0.239486
470 0.175971
475 0.1791
480 0.208691
485 0.154675
490 0.223879
495 0.224021
500 0.255398
505 0.220548
510 0.269573
515 0.209649
520 0.19453
525 0.384533
530 0.276804
535 0.222363
540 0.202615
545 0.307373
550 0.171613
555 0.204198
560 0.315212
565 0.346269
570 0.289551
575 0.308472
580 0.54113
585 0.610819
590 10.6899
595 237.04
600 470.097
