File format V 1.0
ven. 6. janv. 00:25:12 2017
Operator : 
Comments : 

=============================================
SpectroFluorometer parameters
Mode : 3D measurement
Data : Fluorescence
Phospho. : Ordinary
Spectrum : Fluorescence

Scan speed : 2400 nm/mn
Response : 100 ms
PM Voltage : 700 V
Shutter : On

Lambda Ex. Start : 203
Lambda Ex. End : 603
Lambda Ex. Step : 5
Ex. Slit : 5 nm

Lambda Em. Start : 200
Lambda Em. End : 600
Lambda Em. Step : 5
Em. Slit : 5 nm

Repetition : 1
Decal lambda em : 10
=============================================
DATA
Ex : 203
200 3.90196
205 2.29932
210 5.74706
215 2.80133
220 5.26223
225 4.88022
230 2.88089
235 2.9064
240 2.84534
245 5.51938
250 2.24097
255 3.50865
260 2.39323
265 2.68281
270 4.94786
275 5.09052
280 4.01484
285 2.5228
290 6.81917
295 6.56027
300 4.8429
305 3.18236
310 3.92857
315 4.27002
320 4.54919
325 7.3729
330 3.63484
335 2.35117
340 8.00827
345 7.7528
350 5.67253
355 2.3651
360 2.29391
365 3.21896
370 1.66484
375 4.4525
380 6.3432
385 2.38199
390 5.15894
395 3.04117
400 7.26356
405 3.6506
410 5.44099
415 2.89375
420 7.6126
425 7.52418
430 8.04696
435 4.10724
440 8.68594
445 4.84564
450 5.73188
455 5.77916
460 8.15172
465 4.12781
470 5.90388
475 5.36986
480 3.32876
485 6.52275
490 3.19163
495 2.16401
500 5.9686
505 4.62576
510 4.47198
515 4.42748
520 5.69882
525 3.91496
530 5.54547
535 7.59054
540 8.84556
545 3.95656
550 2.44125
555 4.48406
560 4.82752
565 6.79049
570 5.07377
575 5.75348
580 4.87992
585 3.18478
590 7.18076
595 2.91634
600 0.331868
Ex : 208
200 3.29167
205 3.27968
210 6.06207
215 8.4966
220 4.60032
225 7.54636
230 5.74815
235 3.56331
240 6.69332
245 3.76202
250 5.68876
255 2.40803
260 3.51385
265 4.80074
270 6.19002
275 3.8711
280 2.74964
285 5.03353
290 5.30109
295 3.26185
300 5.2271
305 2.93169
310 3.48518
315 6.4876
320 8.13895
325 2.81789
330 3.29374
335 5.36403
340 2.88922
345 5.70588
350 4.20556
355 5.49841
360 5.13456
365 8.00625
370 5.41494
375 7.37871
380 3.0229
385 2.25819
390 2.22052
395 3.69571
400 8.19946
405 4.41458
410 4.25434
415 5.87381
420 2.95054
425 4.91918
430 4.50186
435 2.08516
440 5.39173
445 6.0006
450 3.43562
455 4.80515
460 4.98373
465 2.94916
470 3.14376
475 3.13494
480 1.19504
485 2.30605
490 4.52174
495 5.76756
500 5.72868
505 3.7093
510 1.81386
515 3.8008
520 4.12974
525 3.9448
530 2.04524
535 3.69585
540 5.48631
545 4.11006
550 4.07884
555 4.76056
560 4.69547
565 9.22503
570 7.55669
575 7.65828
580 4.58833
585 5.2263
590 2.47648
595 4.52948
600 0.515438
Ex : 213
200 5.32
205 4.02777
210 8.78294
215 6.70784
220 2.83301
225 4.95509
230 2.96673
235 4.16171
240 4.22246
245 4.66724
250 3.92204
255 4.66489
260 4.36206
265 3.28698
270 2.87757
275 4.34307
280 5.26829
285 4.1502
290 2.1944
295 3.23422
300 5.48254
305 5.06665
310 3.734
315 3.80696
320 4.64268
325 6.26783
330 3.88986
335 2.87558
340 6.37202
345 2.37857
350 4.51422
355 4.29628
360 4.03372
365 2.38214
370 9.94495
375 5.56272
380 5.56959
385 6.24051
390 3.2617
395 2.83988
400 4.74824
405 5.82347
410 6.96257
415 3.14218
420 3.45646
425 3.99285
430 1.66438
435 3.07589
440 5.91961
445 5.22708
450 4.8611
455 2.03597
460 7.39415
465 6.27076
470 5.7111
475 5.79222
480 3.96332
485 3.87274
490 5.90563
495 5.67403
500 5.42999
505 3.66907
510 2.83898
515 12.8385
520 10.5064
525 4.56316
530 3.37799
535 5.55215
540 2.8618
545 4.26435
550 2.86944
555 1.41815
560 2.32962
565 3.32537
570 4.72887
575 6.30406
580 5.88969
585 6.03289
590 3.27696
595 4.98003
600 0.566708
Ex : 218
200 3.24026
205 4.70675
210 4.3932
215 2.94807
220 3.65874
225 5.42113
230 3.36526
235 7.08598
240 6.05874
245 1.52096
250 4.10561
255 1.36477
260 3.01207
265 1.63424
270 7.40441
275 4.52034
280 4.95103
285 2.35704
290 3.1415
295 6.28076
300 7.10388
305 5.75543
310 2.07396
315 3.56468
320 4.36516
325 8.141
330 6.22702
335 3.93693
340 4.76158
345 7.68327
350 4.37483
355 2.82823
360 5.22298
365 5.37548
370 3.57666
375 3.4179
380 5.35048
385 4.78979
390 6.43474
395 3.80025
400 4.66716
405 2.2925
410 3.22197
415 3.78312
420 4.47274
425 5.02521
430 6.55504
435 3.08884
440 2.96407
445 3.17315
450 3.19262
455 6.74398
460 2.21036
465 5.06956
470 5.07423
475 4.73716
480 2.4634
485 1.68916
490 4.91683
495 4.95025
500 6.81249
505 7.07649
510 4.45504
515 2.01942
520 3.88096
525 4.20936
530 3.84218
535 4.25788
540 1.77306
545 5.9103
550 4.64387
555 3.8288
560 4.15987
565 1.62651
570 3.68683
575 4.38665
580 5.04836
585 5.66105
590 3.37714
595 3.45024
600 0.392624
Ex : 223
200 1.7929
205 2.78068
210 2.03804
215 3.39323
220 4.4559
225 2.58581
230 4.07977
235 8.39672
240 3.16297
245 4.37392
250 2.30053
255 3.76831
260 2.14652
265 2.41998
270 7.02549
275 4.89316
280 6.17679
285 8.56947
290 3.63378
295 3.93063
300 7.70597
305 1.77386
310 2.83845
315 3.45012
320 5.25565
325 1.42991
330 5.39295
335 4.88308
340 3.12298
345 2.10656
350 3.99026
355 4.76765
360 6.61386
365 4.1567
370 3.02355
375 6.46259
380 5.79536
385 6.91936
390 6.71322
395 2.88261
400 3.59763
405 2.54229
410 4.35362
415 4.54664
420 7.59615
425 5.6845
430 3.08947
435 2.35661
440 2.68978
445 6.15192
450 6.3011
455 3.8161
460 3.9735
465 4.21853
470 3.52324
475 3.90958
480 2.18144
485 2.53522
490 2.20956
495 3.2205
500 4.11712
505 7.46375
510 4.78431
515 3.44318
520 1.69443
525 2.86427
530 2.91913
535 4.05198
540 5.56333
545 3.8825
550 6.32249
555 5.00101
560 4.09216
565 3.58187
570 2.45986
575 5.26553
580 3.28946
585 4.13662
590 2.10349
595 2.9037
600 0.33043
Ex : 228
200 3.94022
205 2.26826
210 1.83535
215 10.0782
220 2.9591
225 5.43114
230 4.10778
235 2.58897
240 3.17881
245 1.93605
250 3.08465
255 2.38038
260 3.74095
265 3.19385
270 2.6387
275 2.16878
280 5.81966
285 5.15345
290 2.97038
295 7.20751
300 5.54661
305 2.17123
310 9.23152
315 4.41394
320 3.16644
325 4.43574
330 2.98614
335 6.1362
340 3.35205
345 5.25822
350 3.32911
355 6.53746
360 4.72645
365 3.52609
370 5.74769
375 4.76749
380 5.90245
385 5.15254
390 2.19424
395 1.35875
400 3.60776
405 2.38974
410 6.17167
415 7.40902
420 6.26608
425 3.46081
430 4.91784
435 2.42756
440 4.76163
445 3.71536
450 5.85014
455 3.99883
460 4.50055
465 3.48227
470 2.90805
475 7.47331
480 6.58271
485 7.44072
490 5.09954
495 3.8472
500 3.6075
505 2.17225
510 3.51102
515 3.22648
520 2.73555
525 4.43013
530 1.38469
535 7.2472
540 3.541
545 6.30079
550 3.58292
555 5.42954
560 3.01111
565 2.99114
570 4.05836
575 2.9235
580 5.41069
585 5.58283
590 1.90278
595 3.33934
600 4.22022
Ex : 233
200 2.96133
205 4.48791
210 1.31635
215 3.34203
220 6.1314
225 2.28095
230 2.08765
235 2.35967
240 1.63514
245 7.11331
250 2.63457
255 1.70179
260 4.95759
265 1.89794
270 3.91136
275 3.26265
280 4.47185
285 2.65214
290 2.08489
295 1.49193
300 2.85566
305 5.50202
310 4.37007
315 6.20081
320 5.07471
325 2.57271
330 1.88215
335 3.12814
340 2.19909
345 2.71077
350 7.13084
355 6.13827
360 3.8908
365 3.41755
370 3.41301
375 5.18218
380 3.83097
385 5.41749
390 2.83447
395 5.02039
400 4.68515
405 3.18263
410 2.64034
415 3.42652
420 2.53934
425 5.67963
430 3.83954
435 3.60394
440 3.04103
445 2.6284
450 2.96767
455 2.60678
460 3.5492
465 4.63797
470 1.84805
475 4.54829
480 3.04377
485 3.25685
490 2.62774
495 3.93246
500 3.88037
505 3.29219
510 2.52469
515 1.70425
520 4.77947
525 3.77071
530 4.8881
535 3.93677
540 4.2559
545 3.11338
550 2.44005
555 3.35359
560 1.85863
565 5.88719
570 4.03285
575 3.09739
580 4.74517
585 5.39002
590 4.99542
595 4.00789
600 8.65347
Ex : 238
200 1.89671
205 3.54451
210 2.24889
215 4.49856
220 3.25453
225 2.82719
230 2.69473
235 3.32324
240 2.08444
245 2.28655
250 3.41839
255 2.14453
260 6.00436
265 3.40877
270 2.42949
275 2.31954
280 0.522431
285 1.96886
290 2.4952
295 5.19987
300 3.02354
305 2.66508
310 4.60579
315 2.96118
320 3.38679
325 2.50221
330 3.09802
335 4.52397
340 3.83262
345 2.54699
350 2.64301
355 4.7932
360 3.7015
365 3.16757
370 3.0321
375 2.12601
380 5.27976
385 4.79324
390 4.83468
395 5.36535
400 4.33844
405 3.17903
410 2.77374
415 3.28421
420 5.73295
425 3.74755
430 2.23667
435 4.00553
440 2.54835
445 4.47084
450 2.94047
455 1.7788
460 2.86959
465 4.02048
470 5.67726
475 3.95341
480 2.92671
485 2.75935
490 3.4201
495 6.24062
500 3.67127
505 4.08132
510 3.37869
515 3.43498
520 3.78123
525 2.1019
530 2.76865
535 3.09676
540 4.05795
545 3.89482
550 4.01462
555 2.57145
560 1.9084
565 3.0277
570 2.51175
575 2.97836
580 1.91194
585 3.06117
590 3.46204
595 2.60948
600 0.296948
Ex : 243
200 3.3375
205 2.03677
210 1.20362
215 1.3852
220 3.02584
225 1.52717
230 1.51739
235 1.91171
240 1.84644
245 1.10726
250 1.74764
255 1.4691
260 3.53699
265 2.05098
270 6.49437
275 2.59371
280 2.81972
285 3.31744
290 2.27163
295 3.41156
300 1.61747
305 2.68628
310 2.27422
315 1.22159
320 3.20947
325 3.36949
330 2.99424
335 0.922991
340 4.19058
345 2.04941
350 3.11971
355 3.44375
360 1.92087
365 2.93091
370 1.94847
375 4.71494
380 3.17142
385 2.51097
390 1.40899
395 4.60212
400 5.01828
405 4.16823
410 2.1401
415 3.06854
420 2.53491
425 1.92294
430 2.04639
435 1.81852
440 3.35153
445 4.76339
450 3.8253
455 1.84451
460 2.28764
465 5.00677
470 2.27859
475 1.05651
480 2.48834
485 3.80476
490 5.16763
495 4.01905
500 1.79578
505 2.43728
510 4.89315
515 3.80988
520 2.34407
525 1.70539
530 4.78852
535 2.85498
540 2.16085
545 2.21567
550 0.899321
555 4.74165
560 2.55437
565 2.80159
570 2.63847
575 2.41729
580 3.98373
585 2.63362
590 2.99154
595 1.64522
600 0.18722
Ex : 248
200 2.69759
205 1.19936
210 1.49755
215 2.64477
220 1.86721
225 3.21892
230 1.02709
235 0.576616
240 1.49031
245 2.10058
250 1.29816
255 2.26545
260 2.22165
265 2.01576
270 2.03885
275 2.94055
280 1.57296
285 1.25368
290 0.911939
295 2.60526
300 1.55854
305 1.20128
310 3.57382
315 2.48911
320 1.36885
325 3.3177
330 2.32971
335 3.01203
340 3.11997
345 1.99041
350 2.46715
355 1.12015
360 2.27335
365 2.90176
370 1.18872
375 1.05765
380 4.02529
385 3.21724
390 2.12324
395 3.63718
400 1.6615
405 2.2782
410 2.14011
415 2.48059
420 3.70139
425 2.40655
430 2.80587
435 1.5164
440 3.52077
445 4.73628
450 2.9064
455 2.3247
460 2.42601
465 2.35619
470 2.42393
475 3.09614
480 1.42356
485 1.67305
490 2.03533
495 2.64004
500 2.74891
505 1.78354
510 3.80177
515 2.35529
520 1.1021
525 2.75156
530 2.96544
535 3.87917
540 4.74361
545 2.16451
550 1.19707
555 3.93562
560 3.94416
565 3.85237
570 2.11232
575 1.46994
580 4.11024
585 2.20229
590 1.19053
595 1.83192
600 0.651568
Ex : 253
200 1.44972
205 1.78763
210 1.32682
215 2.18848
220 1.35866
225 1.10287
230 2.01088
235 3.00817
240 2.72081
245 2.51202
250 1.7374
255 1.17707
260 1.84199
265 1.75095
270 0.950271
275 2.06899
280 1.6203
285 3.33988
290 3.32554
295 2.75255
300 1.85413
305 1.89427
310 1.3465
315 2.37001
320 1.58634
325 1.58113
330 1.67059
335 1.31031
340 3.05983
345 3.23777
350 1.38923
355 2.88291
360 1.10834
365 2.27126
370 2.6276
375 2.01268
380 1.87965
385 4.39749
390 1.71737
395 1.25589
400 2.69075
405 2.15687
410 0.691168
415 1.49212
420 0.970886
425 1.68823
430 1.83864
435 2.70695
440 2.81368
445 2.02367
450 2.69455
455 2.38946
460 2.24238
465 1.68395
470 0.660948
475 1.4836
480 2.04417
485 2.32302
490 1.74393
495 1.94378
500 2.21642
505 2.65246
510 2.13952
515 1.93827
520 2.43481
525 2.625
530 1.04018
535 2.63012
540 0.808993
545 1.75782
550 1.26869
555 2.60228
560 2.75042
565 2.20522
570 1.26665
575 1.82313
580 1.52175
585 2.6479
590 1.47474
595 1.66011
600 6.68774
Ex : 258
200 0.925926
205 1.35624
210 3.27282
215 1.48587
220 0.983274
225 1.46979
230 1.68503
235 0.57434
240 0.977393
245 0.854751
250 1.29708
255 1.27604
260 1.48445
265 1.05716
270 1.41285
275 2.19276
280 0.585395
285 1.10826
290 1.32188
295 1.32751
300 1.23001
305 1.35477
310 1.14791
315 0.820352
320 1.26463
325 2.67793
330 2.90946
335 1.61407
340 1.05999
345 2.13509
350 1.74083
355 0.859329
360 1.01123
365 1.23894
370 1.26687
375 2.88535
380 2.63247
385 1.97879
390 1.80295
395 1.45204
400 2.53914
405 2.32272
410 1.64814
415 1.86059
420 1.56816
425 0.868819
430 1.89589
435 1.06847
440 1.26042
445 2.59891
450 2.30528
455 1.50062
460 1.12827
465 1.8249
470 1.71243
475 1.66373
480 2.9341
485 2.54537
490 1.55947
495 0.853878
500 0.814477
505 2.12898
510 1.76662
515 1.38332
520 2.9158
525 1.89351
530 1.11578
535 2.05589
540 1.50967
545 3.43528
550 2.88102
555 1.41627
560 1.46188
565 2.1613
570 2.10056
575 1.75565
580 1.70954
585 1.06042
590 1.76505
595 1.72665
600 0.639588
Ex : 263
200 1.05684
205 1.06502
210 0.967907
215 1.44337
220 0.975032
225 1.16699
230 1.29387
235 1.26723
240 0.765966
245 1.10512
250 0.631712
255 1.51637
260 1.06498
265 1.53943
270 1.85881
275 1.46126
280 1.49559
285 0.547792
290 1.67319
295 1.19934
300 0.851414
305 0.856048
310 0.540517
315 1.41769
320 1.5862
325 1.84771
330 1.11577
335 0.94611
340 2.77891
345 1.59161
350 1.54251
355 1.77165
360 1.67608
365 1.59125
370 3.14447
375 1.33234
380 1.54964
385 1.72836
390 1.64626
395 0.947839
400 1.62685
405 0.973726
410 0.541111
415 1.31352
420 1.16384
425 1.63726
430 1.24976
435 1.03314
440 1.12391
445 1.2032
450 1.66651
455 1.08665
460 0.869365
465 0.744149
470 1.29484
475 1.7053
480 1.89326
485 1.45423
490 2.09021
495 1.70812
500 1.09003
505 0.594045
510 0.749049
515 2.24894
520 1.33302
525 0.870839
530 2.34404
535 0.83151
540 0.616823
545 0.988046
550 1.21391
555 1.04726
560 0.995967
565 0.866839
570 0.965924
575 1.42468
580 1.68836
585 0.89152
590 0.842042
595 1.08357
600 0.123306
Ex : 268
200 0.352227
205 0.82375
210 1.72435
215 0.602045
220 1.11371
225 0.559533
230 0.725568
235 0.611372
240 0.898086
245 0.666925
250 1.18087
255 0.905204
260 0.637936
265 0.859225
270 1.23435
275 0.984179
280 0.542925
285 0.40479
290 0.590375
295 0.868694
300 1.33152
305 1.40861
310 0.606452
315 2.64
320 0.886718
325 1.39369
330 0.595562
335 0.840712
340 1.08006
345 0.635909
350 0.737631
355 0.897504
360 0.647304
365 0.870624
370 1.13649
375 1.12631
380 1.32887
385 0.984517
390 1.45666
395 1.63377
400 1.27282
405 1.43331
410 1.56777
415 0.929405
420 1.6318
425 1.7689
430 0.919837
435 0.896187
440 1.35223
445 0.699331
450 0.791948
455 0.929946
460 0.906464
465 1.32046
470 0.855144
475 1.75066
480 0.75096
485 0.804335
490 0.706195
495 0.613782
500 0.99943
505 0.9187
510 1.52199
515 1.54034
520 1.42807
525 1.15525
530 0.707926
535 1.10244
540 1.95371
545 1.2213
550 0.895919
555 0.418889
560 0.63643
565 1.06463
570 1.10909
575 0.77634
580 1.00642
585 0.684663
590 0.706629
595 0.993323
600 0.113036
Ex : 273
200 0.32854
205 0.377705
210 0.579682
215 0.567983
220 0.52143
225 0.77143
230 0.668609
235 1.05211
240 0.902952
245 0.651921
250 0.539321
255 0.756317
260 0.931536
265 0.530582
270 0.323548
275 0.507272
280 0.782443
285 0.95913
290 0.42239
295 0.68582
300 0.666206
305 0.509154
310 1.05922
315 1.18754
320 0.713481
325 0.669
330 0.723058
335 1.19754
340 1.36158
345 0.816668
350 0.4484
355 0.511341
360 0.968479
365 1.32306
370 0.807556
375 1.23707
380 0.6889
385 2.17107
390 0.903434
395 0.748499
400 0.456099
405 1.12493
410 1.54056
415 1.18385
420 0.923558
425 0.535108
430 1.43545
435 1.67049
440 0.715975
445 0.759102
450 0.700672
455 0.761734
460 0.594217
465 0.853913
470 1.74734
475 1.22323
480 1.26592
485 1.10566
490 0.648729
495 0.502187
500 0.925587
505 0.5819
510 0.781694
515 0.969176
520 0.717466
525 1.1555
530 0.567067
535 1.11159
540 0.67638
545 0.833132
550 0.465044
555 1.09401
560 0.740502
565 1.41995
570 1.25557
575 0.79863
580 0.727464
585 0.771182
590 2.00371
595 0.885266
600 0.438341
Ex : 278
200 0.913591
205 1.04385
210 0.814686
215 0.636714
220 0.642674
225 0.347377
230 0.495937
235 0.290949
240 0.851762
245 0.313035
250 0.36254
255 0.942067
260 0.51572
265 0.488698
270 0.306839
275 0.385072
280 0.391971
285 0.520499
290 0.320352
295 0.334018
300 0.729249
305 1.02056
310 0.463226
315 0.715565
320 1.36687
325 1.15706
330 0.661614
335 0.777534
340 0.751504
345 0.584617
350 1.02483
355 0.750771
360 1.15948
365 0.605811
370 0.42743
375 0.921965
380 0.540794
385 0.450002
390 0.822858
395 1.0634
400 0.754476
405 0.79238
410 0.602181
415 1.25822
420 0.64334
425 0.94151
430 1.08107
435 0.968324
440 0.438712
445 0.978289
450 0.734412
455 0.355449
460 0.783428
465 0.639377
470 0.633434
475 0.762338
480 0.569552
485 0.751036
490 0.447132
495 0.561481
500 0.58686
505 0.321696
510 0.442379
515 0.476169
520 0.344549
525 0.723013
530 0.698167
535 1.04025
540 0.657033
545 0.420467
550 1.45187
555 0.913531
560 0.764537
565 0.849344
570 0.421674
575 1.05847
580 0.36369
585 0.404875
590 0.855992
595 0.977243
600 0.111206
Ex : 283
200 0.468212
205 0.825971
210 0.443002
215 0.388638
220 0.229293
225 0.357837
230 0.422808
235 0.136935
240 0.824667
245 0.479643
250 0.427581
255 0.795914
260 0.563703
265 0.504912
270 0.586406
275 0.560909
280 0.387057
285 0.701163
290 0.256364
295 0.548922
300 0.636597
305 0.170465
310 0.550325
315 0.322018
320 0.525792
325 0.636632
330 0.842767
335 0.696787
340 0.891921
345 0.444091
350 0.494308
355 0.359672
360 0.540668
365 0.500999
370 0.483923
375 0.533391
380 0.444151
385 0.651177
390 0.936136
395 0.888005
400 0.65735
405 0.452724
410 0.893012
415 0.844206
420 0.543185
425 0.669743
430 0.625326
435 1.05657
440 0.512847
445 0.663409
450 0.525545
455 0.588733
460 0.591416
465 0.452866
470 0.621093
475 0.481213
480 0.617992
485 1.266
490 0.634037
495 0.479647
500 0.747178
505 0.627466
510 0.482002
515 0.266826
520 0.522401
525 0.794909
530 0.767985
535 0.398192
540 0.350421
545 0.309939
550 0.828646
555 0.428537
560 0.456065
565 0.312663
570 0.594724
575 0.734827
580 0.399083
585 0.507638
590 0.536476
595 0.477498
600 0.0543375
Ex : 288
200 0.50615
205 0.719208
210 0.493117
215 0.406109
220 0.407321
225 0.481943
230 0.291611
235 0.287639
240 0.33092
245 0.334718
250 0.528936
255 0.424197
260 0.609553
265 0.448929
270 0.360291
275 0.131475
280 0.305318
285 0.353447
290 0.262877
295 0.542424
300 0.180587
305 0.508832
310 0.310229
315 0.216584
320 0.383017
325 0.428581
330 0.721546
335 0.45385
340 0.41431
345 0.416398
350 0.382569
355 0.482755
360 0.720971
365 0.822018
370 0.520131
375 0.392419
380 0.417271
385 0.367978
390 1.07238
395 0.711542
400 0.479707
405 0.665134
410 0.621384
415 0.571948
420 0.329248
425 0.628822
430 0.583084
435 0.78044
440 0.379737
445 0.739319
450 0.397301
455 0.600618
460 0.726262
465 0.52215
470 1.01473
475 0.688411
480 0.336559
485 0.368551
490 0.405129
495 0.441017
500 0.260106
505 0.435498
510 0.388368
515 0.584182
520 0.455502
525 0.563602
530 0.382318
535 0.490775
540 0.421414
545 0.398469
550 0.244504
555 0.332491
560 0.234647
565 0.510536
570 0.605683
575 0.450301
580 0.566296
585 0.519952
590 0.218146
595 0.635481
600 0.0723153
Ex : 293
200 0.264398
205 0.106608
210 0.394157
215 0.212821
220 0.392603
225 0.354331
230 0.288535
235 0.129926
240 0.338401
245 0.357751
250 0.271463
255 0.467878
260 0.257535
265 0.219511
270 0.134276
275 0.241983
280 0.168502
285 0.20386
290 0.440486
295 0.342063
300 0.312109
305 0.626164
310 0.383866
315 0.268068
320 0.233201
325 0.200303
330 0.140607
335 0.738619
340 0.792921
345 0.676599
350 0.382258
355 0.487077
360 0.663312
365 0.399288
370 0.342106
375 0.497197
380 0.582277
385 0.535149
390 0.573198
395 0.696141
400 0.641075
405 0.655968
410 0.547384
415 0.629328
420 0.662575
425 0.629571
430 0.32444
435 0.70536
440 0.643267
445 0.420852
450 0.490052
455 0.56788
460 0.655268
465 0.840032
470 0.55475
475 0.447878
480 0.467142
485 0.341922
490 0.373666
495 0.474517
500 0.522226
505 0.191255
510 0.596111
515 0.481301
520 0.232295
525 0.725154
530 0.667614
535 0.333393
540 0.293511
545 0.15588
550 0.47881
555 0.364518
560 0.232022
565 0.382206
570 0.369019
575 0.609482
580 0.575759
585 0.468725
590 0.290665
595 0.203318
600 0.0231369
Ex : 298
200 0.267542
205 0.387309
210 0.240097
215 0.331152
220 0.304759
225 0.187781
230 0.343251
235 0.514744
240 0.172086
245 0.334003
250 0.265878
255 0.125206
260 0.24271
265 0.407421
270 0.269646
275 0.437065
280 0.394005
285 0.333139
290 0.258648
295 0.222764
300 0.21432
305 0.239475
310 0.18875
315 0.164991
320 0.177806
325 0.569436
330 0.493913
335 0.417327
340 0.368336
345 0.41669
350 0.296522
355 0.560763
360 0.460724
365 0.392836
370 0.639563
375 0.568939
380 0.42076
385 0.389697
390 0.430672
395 0.299289
400 0.503344
405 0.396772
410 0.471782
415 0.479573
420 0.586706
425 0.53897
430 0.240546
435 0.608765
440 0.409273
445 0.316554
450 0.451481
455 0.591107
460 0.392139
465 0.3639
470 0.330169
475 0.426387
480 0.280448
485 0.224172
490 0.442981
495 0.529878
500 0.295964
505 0.383658
510 0.317539
515 0.184038
520 0.201119
525 0.576458
530 0.382514
535 0.296261
540 0.257304
545 0.391055
550 0.207598
555 0.174718
560 0.188175
565 0.114914
570 0.286571
575 0.234807
580 0.360876
585 0.210973
590 0.448078
595 0.435367
600 0.0495431
Ex : 303
200 0.367209
205 0.389686
210 0.234597
215 0.271884
220 0.317736
225 0.297261
230 0.204088
235 0.255158
240 0.497055
245 0.308956
250 0.20236
255 0.256682
260 0.342746
265 0.38698
270 0.247184
275 0.390119
280 0.392822
285 0.285684
290 0.186739
295 0.215096
300 0.258696
305 0.324722
310 0.389035
315 0.140382
320 0.283282
325 0.210892
330 0.340933
335 0.356759
340 0.587866
345 0.654992
350 0.43099
355 0.432798
360 0.458944
365 0.389258
370 0.240641
375 0.449655
380 0.232248
385 0.393896
390 0.354606
395 0.438897
400 0.482351
405 0.396952
410 0.409582
415 0.565891
420 0.414019
425 0.472252
430 0.580177
435 0.479889
440 0.494534
445 0.3168
450 0.290606
455 0.428269
460 0.286249
465 0.375035
470 0.221811
475 0.310142
480 0.193493
485 0.784435
490 0.398767
495 0.46573
500 0.404594
505 0.246572
510 0.378081
515 0.226014
520 0.375416
525 0.231193
530 0.437127
535 0.428375
540 0.27884
545 0.324787
550 0.230983
555 0.289486
560 0.211806
565 0.356254
570 0.308812
575 0.16235
580 0.0806645
585 0.152376
590 0.217222
595 0.549264
600 0.294951
Ex : 308
200 0.0711111
205 0.277899
210 0.200927
215 0.391988
220 0.471207
225 0.337945
230 0.378638
235 0.281301
240 0.170413
245 0.346018
250 0.404446
255 0.199947
260 0.240848
265 0.23516
270 0.260823
275 0.104146
280 0.136652
285 0.232712
290 0.207068
295 0.226807
300 0.369202
305 0.385268
310 0.211253
315 0.311198
320 0.176885
325 0.393866
330 0.308921
335 0.607077
340 0.444635
345 0.454512
350 0.588777
355 0.380122
360 0.460547
365 0.341503
370 0.403878
375 0.697444
380 0.509773
385 0.477904
390 0.460354
395 0.33498
400 0.611672
405 0.580331
410 0.666709
415 0.567309
420 0.534901
425 0.434462
430 0.438307
435 0.591292
440 0.474637
445 0.654413
450 0.294949
455 0.463944
460 0.302512
465 0.477991
470 0.4133
475 0.735169
480 0.319139
485 0.417394
490 0.181696
495 0.288198
500 0.32215
505 0.275584
510 0.279952
515 0.190983
520 0.257478
525 0.216289
530 0.200361
535 0.204245
540 0.243715
545 0.359752
550 0.397082
555 0.12738
560 0.251866
565 0.124184
570 0.302078
575 0.36236
580 0.2531
585 0.361859
590 0.223777
595 0.182889
600 0.0208121
Ex : 313
200 0.175401
205 0.174621
210 0.256986
215 0.190936
220 0.169965
225 0.215347
230 0.173298
235 0.307561
240 0.375413
245 0.15998
250 0.128779
255 0.262629
260 0.307417
265 0.126631
270 0.117225
275 0.0684599
280 0.0925485
285 0.0923309
290 0.0852795
295 0.22381
300 0.136445
305 0.131632
310 0.123721
315 0.140564
320 0.215519
325 0.292322
330 0.33213
335 0.453119
340 0.417592
345 0.436888
350 0.244854
355 0.422656
360 0.442897
365 0.427266
370 0.412144
375 0.590928
380 0.719811
385 0.570173
390 0.923351
395 0.761863
400 0.881038
405 0.825212
410 0.981463
415 0.967276
420 1.24255
425 0.814097
430 0.809656
435 0.999233
440 0.533136
445 0.770654
450 0.71008
455 0.613865
460 0.621343
465 0.543748
470 0.531406
475 0.368297
480 0.451238
485 0.58437
490 0.313447
495 0.406946
500 0.351692
505 0.397994
510 0.33437
515 0.254131
520 0.204762
525 0.26519
530 0.250368
535 0.179019
540 0.270873
545 0.304952
550 0.328773
555 0.336861
560 0.27267
565 0.10241
570 0.127526
575 0.0843898
580 0.162948
585 0.206339
590 0.256466
595 0.379682
600 0.0432064
Ex : 318
200 0.145817
205 0.18205
210 0.146186
215 0.110396
220 0.163604
225 0.179636
230 0.152755
235 0.0563633
240 0.174795
245 0.147451
250 0.23815
255 0.105677
260 0.0748803
265 0.283895
270 0.203883
275 0.304639
280 0.173324
285 0.0718111
290 0.211897
295 0.108808
300 0.224467
305 0.352306
310 0.344075
315 1.39606
320 1.01079
325 0.455394
330 0.65717
335 0.715153
340 0.934112
345 1.61779
350 1.84184
355 2.49244
360 3.36503
365 4.38802
370 5.69873
375 5.78348
380 7.18869
385 7.9628
390 8.4529
395 9.35685
400 9.34435
405 9.49362
410 9.88967
415 9.8057
420 9.73715
425 9.00858
430 8.43045
435 8.71828
440 7.62875
445 7.44395
450 7.07821
455 6.14998
460 6.31564
465 5.82786
470 5.56891
475 4.72242
480 4.30721
485 3.94259
490 3.16888
495 3.18929
500 2.61272
505 2.09136
510 1.63251
515 1.56957
520 1.35239
525 0.926771
530 1.01951
535 1.05065
540 0.606456
545 0.507808
550 0.399951
555 0.552705
560 0.413875
565 0.331122
570 0.298835
575 0.252105
580 0.251568
585 0.270649
590 0.375775
595 0.153028
600 0.17323
Ex : 323
200 0.220767
205 0.118776
210 0.154513
215 0.108585
220 0.0748548
225 0.118474
230 0.0628461
235 0.259317
240 0.236383
245 0.156235
250 0.189432
255 0.0787515
260 0.172698
265 0.291447
270 0.105261
275 0.126375
280 0.148686
285 0.110339
290 0.105148
295 0.0889526
300 0.0902977
305 0.176863
310 0.167226
315 13.1075
320 57.5191
325 23.4635
330 4.43456
335 3.16452
340 4.16355
345 5.69614
350 8.92056
355 12.157
360 14.0651
365 17.5893
370 20.4973
375 23.76
380 27.7925
385 31.1315
390 34.029
395 35.3632
400 37.3106
405 37.0751
410 37.5337
415 36.5584
420 36.658
425 34.4872
430 33.1828
435 31.4602
440 31.2859
445 28.9089
450 27.6694
455 25.5674
460 23.8875
465 21.9763
470 19.5026
475 18.3834
480 16.9917
485 14.9523
490 14.2799
495 11.6659
500 10.5028
505 9.62707
510 8.44557
515 7.44883
520 5.92849
525 5.58776
530 3.92402
535 3.94691
540 3.03005
545 2.66698
550 2.19735
555 1.76125
560 1.31425
565 1.05486
570 1.02005
575 0.856903
580 0.694879
585 0.35705
590 0.345895
595 0.286694
600 0.766652
Ex : 328
200 0.211424
205 0.117585
210 0.1743
215 0.238372
220 0.175531
225 0.0991578
230 0.109986
235 0.204645
240 0.232246
245 0.162472
250 0.131483
255 0.126098
260 0.185355
265 0.123074
270 0.125503
275 0.136431
280 0.177241
285 0.181626
290 0.20144
295 0.237889
300 0.21016
305 0.20184
310 0.250448
315 3.07362
320 132.337
325 307.638
330 90.544
335 14.0904
340 7.0871
345 7.29427
350 9.24881
355 13.1737
360 18.3031
365 20.3728
370 23.186
375 26.1932
380 30.1843
385 32.2352
390 36.4857
395 37.8307
400 39.3902
405 39.3606
410 39.9356
415 39.5327
420 36.7883
425 35.6508
430 34.7824
435 32.8621
440 32.3662
445 29.7268
450 27.9723
455 25.8026
460 24.3338
465 22.6003
470 20.1896
475 18.8225
480 16.8702
485 15.2894
490 13.9877
495 12.2086
500 11.4568
505 9.7455
510 8.51551
515 7.65439
520 6.65496
525 5.04576
530 4.71475
535 4.28376
540 3.591
545 3.22746
550 2.20816
555 1.87815
560 1.67109
565 1.44551
570 1.25349
575 0.975079
580 0.812938
585 0.570588
590 0.448133
595 0.421737
600 0.184951
Ex : 333
200 0.0767278
205 0.112209
210 0.142584
215 0.101135
220 0.171975
225 0.158572
230 0.17652
235 0.136356
240 0.0914771
245 0.114006
250 0.159717
255 0.0894251
260 0.0942307
265 0.190593
270 0.16063
275 0.172326
280 0.0862014
285 0.120585
290 0.16475
295 0.125461
300 0.148912
305 0.322944
310 0.175062
315 0.351836
320 18.7467
325 356.347
330 597.921
335 153.042
340 22.0473
345 7.71673
350 6.56888
355 7.09982
360 9.90638
365 14.3092
370 15.7399
375 15.6984
380 16.7753
385 18.6351
390 21.9523
395 22.6965
400 23.4788
405 23.7421
410 24.096
415 24.2442
420 23.8072
425 21.6814
430 20.5586
435 19.306
440 19.1962
445 16.7915
450 15.7821
455 14.9054
460 13.6085
465 12.2788
470 11.6514
475 11.2527
480 9.62428
485 8.48418
490 8.2895
495 7.06818
500 6.69853
505 5.4495
510 4.63743
515 4.07341
520 3.73393
525 2.92899
530 2.88334
535 2.56717
540 1.92511
545 1.68967
550 1.57174
555 1.41729
560 1.00137
565 0.979159
570 0.781523
575 0.682861
580 0.488192
585 0.436868
590 0.350356
595 0.456043
600 0.101523
Ex : 338
200 0.0965929
205 0.116878
210 0.15618
215 0.209631
220 0.135787
225 0.162734
230 0.101318
235 0.185577
240 0.268328
245 0.10247
250 0.155755
255 0.155006
260 0.15004
265 0.171437
270 0.149408
275 0.143133
280 0.0738865
285 0.160477
290 0.120084
295 0.158198
300 0.152137
305 0.221991
310 0.200712
315 0.303985
320 0.479182
325 32.9185
330 520.387
335 767.474
340 186.954
345 24.9904
350 6.47901
355 4.42653
360 4.12261
365 5.91946
370 10.7939
375 10.8442
380 9.63112
385 10.5359
390 12.9639
395 13.6627
400 13.6224
405 13.8407
410 14.5202
415 15.606
420 14.0566
425 13.1544
430 11.9849
435 10.8165
440 11.1794
445 10.7772
450 9.65097
455 8.30024
460 7.67486
465 7.27797
470 7.06064
475 6.53657
480 5.87187
485 4.98125
490 4.8976
495 4.41008
500 3.55387
505 3.43389
510 3.1481
515 2.63653
520 2.35238
525 1.93386
530 1.88279
535 1.40767
540 1.41559
545 1.1449
550 1.18025
555 0.8384
560 0.830593
565 0.784172
570 0.684435
575 0.617369
580 0.492706
585 0.392569
590 0.219435
595 0.338326
600 0.0385003
Ex : 343
200 0.119974
205 0.141099
210 0.0846154
215 0.0936123
220 0.109691
225 0.0830004
230 0.110368
235 0.175652
240 0.0746392
245 0.14198
250 0.133761
255 0.101613
260 0.110764
265 0.147618
270 0.23117
275 0.196475
280 0.0967743
285 0.189521
290 0.185198
295 0.119304
300 0.214012
305 0.125791
310 0.351546
315 0.197075
320 0.336923
325 0.695926
330 39.5771
335 600.272
340 866.605
345 205.519
350 26.6635
355 5.86911
360 3.341
365 2.45931
370 3.57513
375 7.71887
380 9.62122
385 10.2694
390 10.8328
395 11.124
400 10.6435
405 10.7107
410 12.1466
415 13.1187
420 12.4196
425 10.8938
430 9.62586
435 9.51855
440 9.39125
445 9.08049
450 7.73386
455 7.63294
460 6.5654
465 6.37574
470 5.84328
475 5.69269
480 4.91367
485 4.63655
490 4.21947
495 3.68822
500 3.15418
505 3.13279
510 2.39107
515 2.39115
520 2.1211
525 1.87778
530 1.70631
535 1.39244
540 1.36398
545 1.24073
550 1.17065
555 0.849001
560 0.957378
565 0.759548
570 0.585899
575 0.382724
580 0.376882
585 0.431732
590 0.410813
595 0.362994
600 0.182161
Ex : 348
200 0.122013
205 0.0971645
210 0.154598
215 0.210504
220 0.0946083
225 0.128188
230 0.0908442
235 0.107036
240 0.11316
245 0.179254
250 0.130332
255 0.086425
260 0.0781461
265 0.107448
270 0.209952
275 0.175779
280 0.151725
285 0.140633
290 0.0931162
295 0.163113
300 0.118929
305 0.145127
310 0.217005
315 0.211625
320 0.1758
325 0.248362
330 0.919787
335 39.7406
340 607.013
345 905.236
350 228.335
355 28.9582
360 5.73995
365 2.88818
370 2.15789
375 3.14459
380 7.26352
385 12.6607
390 14.0546
395 13.6658
400 11.8332
405 12.233
410 14.1622
415 15.0844
420 14.7043
425 12.5219
430 11.3654
435 11.7622
440 10.7831
445 10.3287
450 9.37893
455 8.81116
460 7.7757
465 7.13529
470 6.78354
475 6.34511
480 5.56736
485 4.9183
490 4.67119
495 4.19007
500 3.669
505 3.24817
510 2.92491
515 2.50173
520 2.42538
525 2.03101
530 1.7002
535 1.40925
540 1.46019
545 1.29868
550 1.21724
555 1.06506
560 0.696514
565 0.680453
570 0.593648
575 0.540443
580 0.436494
585 0.551326
590 0.336536
595 0.319178
600 0.0363213
Ex : 353
200 0.109323
205 0.120418
210 0.0809087
215 0.187497
220 0.165374
225 0.101082
230 0.140825
235 0.116897
240 0.119926
245 0.0877522
250 0.125115
255 0.163289
260 0.127274
265 0.0770274
270 0.17679
275 0.0986517
280 0.231184
285 0.157134
290 0.122892
295 0.142411
300 0.0779686
305 0.0868692
310 0.129001
315 0.130835
320 0.364495
325 0.343618
330 0.401101
335 0.951286
340 40.698
345 626.657
350 903.972
355 221.181
360 27.8961
365 5.63532
370 2.81381
375 2.30645
380 3.43073
385 8.84897
390 16.5611
395 16.4984
400 14.4737
405 13.4737
410 15.2115
415 17.278
420 16.266
425 13.9211
430 12.4175
435 12.7755
440 12.2625
445 11.2149
450 10.3815
455 9.42082
460 7.8614
465 7.76622
470 7.08416
475 6.65351
480 6.4392
485 5.55591
490 4.49725
495 4.37882
500 4.03736
505 3.60383
510 3.15396
515 2.79335
520 2.52294
525 2.37972
530 1.84231
535 1.64039
540 1.61458
545 1.39335
550 1.23522
555 0.997961
560 0.95536
565 0.734718
570 0.694294
575 0.612551
580 0.537901
585 0.298034
590 0.336509
595 0.323005
600 0.811552
Ex : 358
200 0.0441736
205 0.0882576
210 0.110813
215 0.109098
220 0.169972
225 0.0758771
230 0.190073
235 0.0747836
240 0.069445
245 0.080687
250 0.083812
255 0.121447
260 0.0809155
265 0.116034
270 0.0927946
275 0.160053
280 0.223456
285 0.178238
290 0.13086
295 0.109571
300 0.152527
305 0.163717
310 0.1302
315 0.158085
320 0.145687
325 0.240718
330 0.452201
335 0.576495
340 0.911057
345 39.4525
350 600.882
355 913.354
360 227.657
365 28.3976
370 5.55578
375 3.21607
380 3.37541
385 5.952
390 11.6305
395 16.7475
400 15.6382
405 13.5749
410 14.5411
415 15.9332
420 15.5992
425 13.0873
430 11.5097
435 11.3706
440 11.5734
445 11.3504
450 10.2189
455 8.72338
460 8.02619
465 7.57868
470 7.16538
475 6.60356
480 5.94791
485 5.4643
490 4.96508
495 4.50919
500 4.18103
505 3.694
510 3.32002
515 3.10355
520 2.45544
525 2.31431
530 2.18465
535 1.64727
540 1.62742
545 1.33916
550 1.26438
555 1.20896
560 1.11873
565 0.76863
570 0.621433
575 0.52446
580 0.431075
585 0.400315
590 0.311154
595 0.251051
600 0.127036
Ex : 363
200 0.0584699
205 0.0360276
210 0.0937303
215 0.076796
220 0.0978563
225 0.124679
230 0.0907016
235 0.0719105
240 0.076638
245 0.114506
250 0.0993353
255 0.0886188
260 0.0935744
265 0.11334
270 0.10137
275 0.101768
280 0.167695
285 0.0713756
290 0.159583
295 0.135441
300 0.124024
305 0.13418
310 0.148911
315 0.113563
320 0.0915302
325 0.126714
330 0.240862
335 0.234013
340 0.531019
345 1.0788
350 35.9017
355 582.883
360 916.628
365 235.012
370 29.4615
375 5.90302
380 5.08188
385 8.29654
390 11.8321
395 13.4388
400 16.0277
405 17.516
410 17.8156
415 18.5338
420 16.6157
425 14.1907
430 12.8046
435 13.0966
440 12.8418
445 12.0112
450 10.4662
455 9.60705
460 8.67533
465 8.68842
470 8.07401
475 7.34311
480 6.54519
485 6.12853
490 5.7865
495 5.03187
500 4.48146
505 4.06407
510 3.41035
515 3.34783
520 2.93051
525 2.41169
530 2.27355
535 1.94127
540 1.72995
545 1.49309
550 1.45573
555 1.08828
560 0.972732
565 0.781137
570 0.657547
575 0.648252
580 0.454718
585 0.27744
590 0.341303
595 0.27064
600 0.377382
Ex : 368
200 0.068992
205 0.0791434
210 0.0496305
215 0.0823021
220 0.12459
225 0.210354
230 0.0830244
235 0.128857
240 0.113392
245 0.183801
250 0.0915753
255 0.100789
260 0.123643
265 0.103871
270 0.0567646
275 0.0514148
280 0.087026
285 0.0757265
290 0.154519
295 0.0862095
300 0.214691
305 0.119537
310 0.138402
315 0.182602
320 0.166164
325 0.153916
330 0.145104
335 0.260376
340 0.317233
345 0.414686
350 0.882646
355 29.708
360 560.805
365 922.999
370 242.843
375 30.8
380 7.85942
385 9.76875
390 15.0455
395 16.7364
400 16.1368
405 18.9044
410 23.3852
415 24.4432
420 21.6941
425 18.3599
430 16.305
435 15.6951
440 15.7408
445 14.9334
450 13.6117
455 11.971
460 10.4601
465 9.89071
470 9.03795
475 8.67154
480 7.76081
485 6.80307
490 6.28077
495 5.63121
500 5.0291
505 4.47726
510 4.24843
515 3.52755
520 2.96662
525 2.843
530 2.44516
535 2.17848
540 1.92904
545 1.58493
550 1.40506
555 1.32648
560 1.18997
565 0.941394
570 0.819049
575 0.705787
580 0.521644
585 0.345154
590 0.353724
595 0.233206
600 0.241935
Ex : 373
200 0.0697699
205 0.0547828
210 0.0614005
215 0.053341
220 0.0606013
225 0.117999
230 0.0879885
235 0.0591017
240 0.0715128
245 0.0566459
250 0.100757
255 0.183172
260 0.0648337
265 0.0861081
270 0.136239
275 0.142623
280 0.106666
285 0.123194
290 0.0786323
295 0.0673046
300 0.105236
305 0.104554
310 0.118681
315 0.133823
320 0.185919
325 0.136291
330 0.170918
335 0.12451
340 0.225747
345 0.361277
350 0.512324
355 0.947857
360 34.1092
365 573.945
370 916.117
375 242.608
380 31.5221
385 10.5299
390 14.9012
395 18.3996
400 16.0573
405 14.9128
410 19.9225
415 24.9214
420 23.8792
425 19.8107
430 16.215
435 14.9059
440 15.3656
445 15.3333
450 13.021
455 11.8685
460 10.0258
465 9.34353
470 8.6269
475 8.52563
480 7.82779
485 6.72798
490 6.07418
495 5.67772
500 5.19287
505 4.47024
510 3.97336
515 3.55912
520 3.23391
525 3.10058
530 2.53616
535 2.17341
540 1.92282
545 1.73357
550 1.60066
555 1.36062
560 1.15495
565 0.916709
570 0.861984
575 0.650646
580 0.569237
585 0.410613
590 0.279879
595 0.257897
600 0.798432
Ex : 378
200 0.184843
205 0.10377
210 0.0665409
215 0.0735604
220 0.0755795
225 0.0829121
230 0.0457717
235 0.109785
240 0.0844971
245 0.118852
250 0.0789671
255 0.0545769
260 0.081256
265 0.128448
270 0.0801445
275 0.0791765
280 0.0915299
285 0.0665426
290 0.077252
295 0.0733251
300 0.100698
305 0.0869409
310 0.0996726
315 0.110386
320 0.081512
325 0.164288
330 0.137859
335 0.196222
340 0.178298
345 0.241486
350 0.361296
355 0.465123
360 0.955087
365 31.8621
370 571.203
375 928.289
380 249.395
385 34.8976
390 13.9112
395 13.6476
400 12.2188
405 11.5743
410 13.5481
415 16.9456
420 19.2095
425 16.4264
430 13.5859
435 12.0681
440 12.265
445 11.9545
450 10.6246
455 9.29243
460 8.48552
465 7.81689
470 7.92425
475 7.05178
480 6.97574
485 6.38775
490 5.57145
495 5.05039
500 4.39171
505 4.33945
510 3.76443
515 3.70137
520 3.03708
525 2.75909
530 2.42567
535 2.25934
540 1.98049
545 1.68184
550 1.41649
555 1.39724
560 1.14735
565 1.04207
570 0.81664
575 0.595201
580 0.536618
585 0.377522
590 0.355723
595 0.311963
600 0.215683
Ex : 383
200 0.104715
205 0.0479884
210 0.0650759
215 0.106944
220 0.0789294
225 0.0799423
230 0.0353519
235 0.0716862
240 0.0473941
245 0.0753589
250 0.105854
255 0.10287
260 0.115643
265 0.0825835
270 0.109354
275 0.0949987
280 0.0523474
285 0.125185
290 0.0914858
295 0.109992
300 0.048462
305 0.0543173
310 0.105575
315 0.0964745
320 0.0995567
325 0.123455
330 0.118478
335 0.16692
340 0.168451
345 0.134248
350 0.205878
355 0.292418
360 0.456955
365 0.952979
370 29.7474
375 565.48
380 968.813
385 263.984
390 40.7964
395 14.9287
400 11.2702
405 12.1667
410 14.0754
415 15.6971
420 15.4165
425 15.91
430 15.1556
435 14.1531
440 13.4259
445 12.0365
450 10.6704
455 9.55641
460 8.81593
465 8.20588
470 7.69918
475 7.50597
480 7.13732
485 6.25736
490 5.76598
495 5.24711
500 4.9341
505 4.40868
510 3.92193
515 3.34258
520 2.99315
525 2.80297
530 2.41769
535 2.15618
540 2.06904
545 1.94711
550 1.47917
555 1.38946
560 1.05915
565 0.862459
570 0.725949
575 0.620582
580 0.445723
585 0.456263
590 0.342233
595 0.329487
600 0.26079
Ex : 388
200 0.0866921
205 0.0417925
210 0.0563926
215 0.0882182
220 0.147457
225 0.0616819
230 0.0647262
235 0.0969031
240 0.0819461
245 0.0420453
250 0.113342
255 0.0619199
260 0.0346163
265 0.0553613
270 0.069531
275 0.0624555
280 0.107959
285 0.12452
290 0.110076
295 0.0707824
300 0.0740847
305 0.0499448
310 0.0667035
315 0.074147
320 0.129707
325 0.145386
330 0.153585
335 0.144877
340 0.210758
345 0.155594
350 0.182786
355 0.160973
360 0.386135
365 0.588875
370 1.08013
375 32.6961
380 583.648
385 967.853
390 268.396
395 44.2289
400 16.6782
405 14.8414
410 17.3988
415 19.5693
420 18.5132
425 16.2521
430 16.6273
435 17.5039
440 16.5002
445 15.479
450 13.0253
455 11.3855
460 10.391
465 9.61874
470 9.33716
475 8.47638
480 7.94552
485 7.04403
490 6.21495
495 5.68784
500 5.4074
505 4.68505
510 4.37101
515 3.79296
520 3.45854
525 2.81953
530 2.6255
535 2.30705
540 2.13427
545 1.86201
550 1.65879
555 1.3297
560 1.29431
565 1.00007
570 0.830244
575 0.710531
580 0.41291
585 0.396784
590 0.345978
595 0.251275
600 0.183008
Ex : 393
200 0.0412512
205 0.0762496
210 0.0593853
215 0.0478538
220 0.0728062
225 0.0499121
230 0.0618264
235 0.109023
240 0.0681054
245 0.0489084
250 0.0813528
255 0.0710199
260 0.0628309
265 0.041726
270 0.0700676
275 0.126542
280 0.0757255
285 0.0788856
290 0.080371
295 0.137018
300 0.115504
305 0.120166
310 0.0872702
315 0.116827
320 0.108177
325 0.118968
330 0.102859
335 0.119739
340 0.157449
345 0.166817
350 0.178838
355 0.227695
360 0.243088
365 0.339941
370 0.482513
375 1.09164
380 28.5614
385 577.941
390 986.28
395 278.162
400 45.7991
405 17.1799
410 16.2164
415 19.8005
420 20.0029
425 16.4092
430 14.2555
435 15.2709
440 17.4606
445 16.2667
450 13.9899
455 11.4487
460 9.69631
465 8.9398
470 8.74079
475 8.54325
480 7.37015
485 6.82441
490 6.21318
495 5.44654
500 5.05936
505 4.58293
510 4.35028
515 3.8551
520 3.33152
525 3.00384
530 2.606
535 2.31514
540 2.08742
545 1.93313
550 1.49301
555 1.32515
560 1.18816
565 0.915217
570 0.774077
575 0.625131
580 0.604857
585 0.464818
590 0.348806
595 0.299304
600 0.0629576
Ex : 398
200 0.0761159
205 0.0695565
210 0.0398087
215 0.0712855
220 0.0845027
225 0.0723414
230 0.0883236
235 0.0653072
240 0.0995152
245 0.0508787
250 0.0984917
255 0.0827378
260 0.10341
265 0.0436168
270 0.0902448
275 0.0824317
280 0.0610032
285 0.040207
290 0.123487
295 0.120755
300 0.103394
305 0.0457976
310 0.0523447
315 0.0915645
320 0.0865171
325 0.0757542
330 0.112315
335 0.0945006
340 0.123501
345 0.177391
350 0.152244
355 0.159085
360 0.184706
365 0.245071
370 0.373041
375 0.528497
380 1.28953
385 30.9191
390 585.297
395 1003.43
400 273.635
405 39.384
410 13.6247
415 12.7419
420 13.0014
425 11.2006
430 9.3405
435 8.6981
440 10.2159
445 12.3788
450 11.3329
455 8.95702
460 7.94493
465 6.98551
470 6.34373
475 6.20798
480 6.05598
485 5.36794
490 4.81055
495 4.6349
500 4.32443
505 4.08692
510 3.82104
515 3.3786
520 2.84422
525 2.6562
530 2.49157
535 2.26731
540 1.78766
545 1.58113
550 1.53207
555 1.33169
560 1.20074
565 1.03782
570 0.777131
575 0.601356
580 0.480616
585 0.393639
590 0.321244
595 0.280669
600 0.0771535
Ex : 403
200 0.0591024
205 0.0527472
210 0.0802519
215 0.132862
220 0.0711562
225 0.107701
230 0.0977907
235 0.135412
240 0.0824853
245 0.0862001
250 0.0619389
255 0.0483604
260 0.066388
265 0.072154
270 0.0523569
275 0.0824878
280 0.0445611
285 0.0479482
290 0.0875688
295 0.107735
300 0.0886128
305 0.131193
310 0.0833397
315 0.0874406
320 0.0725789
325 0.0584423
330 0.0774823
335 0.101406
340 0.133375
345 0.0856073
350 0.181797
355 0.115259
360 0.252849
365 0.146255
370 0.217686
375 0.351845
380 0.508318
385 1.3623
390 33.4819
395 598.623
400 990.397
405 269.916
410 35.8455
415 10.0023
420 6.7161
425 6.37095
430 5.51538
435 5.35458
440 5.93068
445 6.29779
450 8.05714
455 7.93679
460 6.68664
465 6.08525
470 5.59255
475 4.98366
480 5.01798
485 4.5504
490 4.29082
495 4.2723
500 3.76396
505 3.5262
510 3.38624
515 3.04665
520 2.65958
525 2.45985
530 2.23238
535 2.0234
540 1.95346
545 1.58721
550 1.40641
555 1.36553
560 1.05856
565 0.864435
570 0.734784
575 0.483376
580 0.516852
585 0.326194
590 0.303503
595 0.19054
600 0.0879973
Ex : 408
200 0.0540868
205 0.0488792
210 0.0240445
215 0.110278
220 0.05262
225 0.113573
230 0.0747676
235 0.0477382
240 0.0913392
245 0.0687274
250 0.0382674
255 0.0515318
260 0.0768968
265 0.0412133
270 0.0922672
275 0.0419762
280 0.053102
285 0.0762858
290 0.0546431
295 0.0468997
300 0.054675
305 0.094415
310 0.104915
315 0.113139
320 0.114791
325 0.0683916
330 0.143306
335 0.111766
340 0.0999573
345 0.119231
350 0.119968
355 0.112555
360 0.12492
365 0.159083
370 0.253001
375 0.223848
380 0.39533
385 0.63562
390 1.3485
395 31.8187
400 604.62
405 1000.32
410 265.189
415 35.7438
420 8.84996
425 5.43638
430 5.15016
435 5.35193
440 5.24849
445 5.50043
450 5.54795
455 6.66757
460 8.02936
465 6.72598
470 6.06116
475 5.13411
480 5.11537
485 4.50627
490 4.35118
495 4.22395
500 3.84633
505 3.71629
510 3.48495
515 3.16721
520 2.71977
525 2.62117
530 2.33256
535 1.98354
540 1.76348
545 1.59317
550 1.40797
555 1.39248
560 0.925481
565 0.856842
570 0.72941
575 0.674944
580 0.532074
585 0.421291
590 0.293977
595 0.338734
600 0.0745956
Ex : 413
200 0.0509782
205 0.0714115
210 0.111729
215 0.0661677
220 0.0935083
225 0.0842541
230 0.0691283
235 0.0712733
240 0.0646949
245 0.0425594
250 0.101297
255 0.0837702
260 0.0826833
265 0.0598845
270 0.0578396
275 0.0607012
280 0.0717046
285 0.0970285
290 0.0916442
295 0.0395989
300 0.0470672
305 0.0619677
310 0.0939484
315 0.119223
320 0.115868
325 0.0783767
330 0.100724
335 0.0876969
340 0.0972298
345 0.0936273
350 0.0804494
355 0.0703607
360 0.107587
365 0.103148
370 0.186808
375 0.201515
380 0.174677
385 0.297455
390 0.611323
395 1.24275
400 35.7209
405 621.599
410 992.819
415 256.083
420 34.1321
425 7.99947
430 4.91096
435 4.947
440 5.28379
445 4.91506
450 4.82461
455 4.63
460 5.43311
465 7.28215
470 6.63313
475 5.49036
480 5.1008
485 4.53527
490 4.14056
495 3.84584
500 3.51309
505 3.33954
510 3.06818
515 2.83922
520 2.5071
525 2.29947
530 2.12417
535 1.92034
540 1.64531
545 1.51689
550 1.319
555 1.31754
560 1.03954
565 1.08643
570 0.718584
575 0.646993
580 0.483075
585 0.337853
590 0.2848
595 0.292659
600 0.182496
Ex : 418
200 0.0993362
205 0.0659915
210 0.0889939
215 0.0448182
220 0.111248
225 0.0924186
230 0.0879679
235 0.0671238
240 0.0809857
245 0.0928134
250 0.117287
255 0.0479171
260 0.086942
265 0.051703
270 0.025777
275 0.054051
280 0.0783156
285 0.077421
290 0.0602735
295 0.0477833
300 0.052272
305 0.0629872
310 0.0817095
315 0.0684957
320 0.111212
325 0.0884391
330 0.0834895
335 0.155064
340 0.0966684
345 0.127896
350 0.108104
355 0.0685743
360 0.0924476
365 0.169808
370 0.166111
375 0.191457
380 0.222084
385 0.272083
390 0.338392
395 0.603236
400 1.16653
405 33.2325
410 616.09
415 1008.4
420 268.623
425 34.1111
430 6.58349
435 3.37199
440 3.49563
445 3.64409
450 3.2096
455 3.1235
460 3.02134
465 3.66398
470 5.75269
475 5.83112
480 4.45588
485 4.03242
490 3.51396
495 3.3625
500 3.01561
505 2.81315
510 2.72205
515 2.4827
520 2.28339
525 2.0849
530 1.96515
535 1.73128
540 1.57766
545 1.37804
550 1.29564
555 1.11862
560 1.04505
565 0.807982
570 0.694485
575 0.567664
580 0.483073
585 0.374501
590 0.280738
595 0.251998
600 0.23477
Ex : 423
200 0.0459628
205 0.0781775
210 0.0256552
215 0.0493377
220 0.0819289
225 0.03948
230 0.06303
235 0.0422512
240 0.145976
245 0.0482419
250 0.036874
255 0.0849948
260 0.0423355
265 0.0563934
270 0.0533406
275 0.102603
280 0.0473936
285 0.0797396
290 0.0623874
295 0.0911857
300 0.0535822
305 0.0460065
310 0.0581927
315 0.0654926
320 0.0590736
325 0.105143
330 0.0509434
335 0.115291
340 0.120368
345 0.11191
350 0.0779173
355 0.10185
360 0.108304
365 0.117302
370 0.120637
375 0.1358
380 0.16973
385 0.18186
390 0.249509
395 0.375955
400 0.618437
405 1.20985
410 34.3164
415 634.857
420 1007.7
425 257.892
430 31.9517
435 5.62324
440 2.4144
445 2.43443
450 2.32128
455 1.97154
460 1.99231
465 2.18706
470 2.57244
475 4.32873
480 5.06355
485 3.77072
490 3.26283
495 3.10629
500 2.71573
505 2.42949
510 2.29825
515 2.2599
520 2.11569
525 2.02815
530 1.85
535 1.68438
540 1.4561
545 1.34712
550 1.38773
555 1.08229
560 1.05821
565 0.945807
570 0.660683
575 0.552998
580 0.421768
585 0.334357
590 0.280492
595 0.251072
600 0.0720124
Ex : 428
200 0.0552704
205 0.0475281
210 0.0635365
215 0.0705203
220 0.071104
225 0.0617239
230 0.0766409
235 0.0473106
240 0.0660448
245 0.063879
250 0.0552027
255 0.0697237
260 0.0409804
265 0.0767635
270 0.0515147
275 0.0899354
280 0.0499416
285 0.0613512
290 0.0793778
295 0.0846681
300 0.109842
305 0.0764473
310 0.078092
315 0.0583636
320 0.0803624
325 0.0833081
330 0.0762906
335 0.0745811
340 0.0805811
345 0.0766354
350 0.0634553
355 0.0869399
360 0.146984
365 0.105696
370 0.162379
375 0.101511
380 0.157995
385 0.210713
390 0.204613
395 0.342972
400 0.367982
405 0.58822
410 1.21959
415 37.2309
420 635.815
425 1013.85
430 263.428
435 32.4308
440 5.42755
445 1.96458
450 1.88612
455 1.65785
460 1.61084
465 1.65833
470 1.72791
475 1.94045
480 3.14987
485 4.65534
490 3.79503
495 3.0398
500 2.88292
505 2.30335
510 2.06265
515 1.97416
520 1.81128
525 1.73987
530 1.66365
535 1.66194
540 1.39149
545 1.19456
550 1.19399
555 1.02073
560 0.960781
565 0.846139
570 0.683795
575 0.525046
580 0.411505
585 0.380043
590 0.252358
595 0.199032
600 0.343567
Ex : 433
200 0.115511
205 0.0482072
210 0.0659363
215 0.0624117
220 0.0456854
225 0.060747
230 0.075027
235 0.0507957
240 0.064187
245 0.0832013
250 0.0749703
255 0.0416039
260 0.0515414
265 0.0477314
270 0.0532474
275 0.0872525
280 0.100884
285 0.058291
290 0.0730236
295 0.116839
300 0.0800617
305 0.148503
310 0.148695
315 0.0627786
320 0.0809349
325 0.0531227
330 0.0765698
335 0.0852278
340 0.107717
345 0.0906092
350 0.0726764
355 0.0970984
360 0.0908683
365 0.0765356
370 0.104396
375 0.123129
380 0.113262
385 0.142819
390 0.155973
395 0.197839
400 0.287961
405 0.324962
410 0.646427
415 1.10834
420 41.2483
425 680.633
430 1022.88
435 256.061
440 31.471
445 5.25239
450 1.86136
455 1.77441
460 1.8129
465 1.71219
470 1.46133
475 1.68877
480 1.83609
485 2.51529
490 4.26945
495 3.80619
500 2.78967
505 2.55746
510 2.22082
515 1.79092
520 1.83456
525 1.63686
530 1.5627
535 1.40601
540 1.26691
545 1.13645
550 0.937123
555 0.921874
560 0.992947
565 0.807855
570 0.557642
575 0.449046
580 0.470752
585 0.354779
590 0.25013
595 0.243876
600 0.153497
Ex : 438
200 0.0627327
205 0.106764
210 0.0432293
215 0.0384168
220 0.081519
225 0.0904253
230 0.136048
235 0.0944657
240 0.0742418
245 0.0870113
250 0.127309
255 0.0535918
260 0.122459
265 0.0477675
270 0.0674877
275 0.103821
280 0.0787724
285 0.0446216
290 0.0773303
295 0.0877244
300 0.0405073
305 0.0487581
310 0.070274
315 0.0786518
320 0.0453686
325 0.0578738
330 0.0707209
335 0.0539152
340 0.107412
345 0.102227
350 0.136716
355 0.0877638
360 0.0974182
365 0.0737752
370 0.120201
375 0.153153
380 0.130896
385 0.121497
390 0.119821
395 0.178894
400 0.181082
405 0.249985
410 0.340657
415 0.561295
420 1.10411
425 39.9615
430 673.824
435 1078.53
440 270.648
445 33.0676
450 5.26898
455 1.85394
460 1.72542
465 1.76691
470 1.71765
475 1.51283
480 1.56758
485 1.73815
490 2.15918
495 3.52638
500 3.82812
505 2.70551
510 2.35413
515 2.14492
520 1.70858
525 1.56356
530 1.53965
535 1.31007
540 1.237
545 1.21897
550 1.09141
555 0.988415
560 0.848065
565 0.66573
570 0.675683
575 0.609148
580 0.462225
585 0.335501
590 0.221261
595 0.235652
600 0.0268163
Ex : 443
200 0.0576138
205 0.0729433
210 0.0784108
215 0.0716541
220 0.0469958
225 0.0607625
230 0.0675703
235 0.0656945
240 0.0407799
245 0.0490255
250 0.0772094
255 0.0565516
260 0.0916994
265 0.0677848
270 0.06541
275 0.0570207
280 0.0754955
285 0.0840963
290 0.0608207
295 0.0869543
300 0.0668138
305 0.0720763
310 0.0659345
315 0.0574915
320 0.0754907
325 0.110714
330 0.0718033
335 0.0619642
340 0.0742614
345 0.0910229
350 0.0926811
355 0.0958528
360 0.149771
365 0.112521
370 0.112936
375 0.112492
380 0.134522
385 0.141473
390 0.18336
395 0.144141
400 0.184197
405 0.231663
410 0.258336
415 0.405883
420 0.600868
425 1.23362
430 42.7842
435 713.715
440 1089.33
445 269.618
450 33.0256
455 5.49314
460 1.97517
465 1.87274
470 1.79258
475 1.71044
480 1.45573
485 1.55253
490 1.61025
495 1.77447
500 3.13399
505 4.02253
510 2.8551
515 2.25408
520 2.05968
525 1.75076
530 1.38762
535 1.3113
540 1.1477
545 1.1639
550 1.1285
555 0.976504
560 0.764137
565 0.729386
570 0.509644
575 0.502347
580 0.462136
585 0.390405
590 0.289982
595 0.20751
600 0.46227
Ex : 448
200 0.0970316
205 0.0427864
210 0.100479
215 0.117391
220 0.0429534
225 0.0742727
230 0.0981923
235 0.0425765
240 0.063205
245 0.0685647
250 0.0561266
255 0.0781818
260 0.0765659
265 0.0444618
270 0.0554737
275 0.0624294
280 0.0911567
285 0.0909437
290 0.11219
295 0.071201
300 0.0653434
305 0.0764639
310 0.0708562
315 0.0646551
320 0.0628031
325 0.0496321
330 0.0725488
335 0.062079
340 0.0930595
345 0.0798979
350 0.11179
355 0.0769781
360 0.0745762
365 0.117408
370 0.0772784
375 0.0892413
380 0.119007
385 0.116487
390 0.130737
395 0.163356
400 0.218697
405 0.225584
410 0.219388
415 0.248149
420 0.385505
425 0.644875
430 1.09262
435 43.6441
440 754.858
445 1142.07
450 282.411
455 34.4156
460 5.49815
465 2.0123
470 1.89494
475 1.90229
480 1.64994
485 1.43856
490 1.46181
495 1.43943
500 1.51638
505 2.42449
510 3.66277
515 2.99332
520 2.02429
525 1.76322
530 1.50391
535 1.1951
540 1.27536
545 1.02692
550 0.940753
555 0.912507
560 0.772851
565 0.716432
570 0.686235
575 0.487537
580 0.413847
585 0.373561
590 0.337699
595 0.265361
600 0.46743
Ex : 453
200 0.0879741
205 0.0198414
210 0.0619417
215 0.0699195
220 0.0712091
225 0.0506416
230 0.0609983
235 0.0419583
240 0.0855332
245 0.0641759
250 0.0375015
255 0.0444183
260 0.0626846
265 0.0632738
270 0.0426807
275 0.0418184
280 0.0683613
285 0.069024
290 0.0784396
295 0.0869664
300 0.0709677
305 0.0653041
310 0.119648
315 0.075108
320 0.0596522
325 0.0649689
330 0.0589159
335 0.093704
340 0.10272
345 0.0697008
350 0.0586063
355 0.126922
360 0.112821
365 0.124807
370 0.088092
375 0.0806678
380 0.111656
385 0.140018
390 0.11044
395 0.154064
400 0.144822
405 0.183275
410 0.182575
415 0.249693
420 0.30179
425 0.420545
430 0.625099
435 1.12984
440 46.3819
445 820.964
450 1195.22
455 280.766
460 34.4511
465 5.71627
470 1.9035
475 1.76854
480 1.69743
485 1.6269
490 1.43671
495 1.2655
500 1.40106
505 1.3424
510 1.57173
515 3.1828
520 3.17948
525 2.05879
530 1.80452
535 1.6319
540 1.28269
545 1.16495
550 1.03018
555 0.906821
560 0.816711
565 0.675257
570 0.599876
575 0.513477
580 0.438291
585 0.326693
590 0.274277
595 0.236765
600 1.03895
Ex : 458
200 0.0564334
205 0.116998
210 0.0805874
215 0.0616115
220 0.0733286
225 0.0617728
230 0.0618974
235 0.112594
240 0.0860889
245 0.109297
250 0.0748659
255 0.0807805
260 0.0342105
265 0.0610204
270 0.0587585
275 0.0875034
280 0.0510583
285 0.0692293
290 0.0759567
295 0.0776606
300 0.0741024
305 0.074749
310 0.0852689
315 0.0560575
320 0.0773116
325 0.0821325
330 0.0869031
335 0.0890604
340 0.0600833
345 0.0963429
350 0.119699
355 0.0892788
360 0.105962
365 0.106002
370 0.0765037
375 0.104624
380 0.127985
385 0.124421
390 0.143014
395 0.107659
400 0.0851985
405 0.11866
410 0.190494
415 0.205718
420 0.23395
425 0.271183
430 0.445462
435 0.59875
440 1.26187
445 53.2917
450 849.342
455 1262.76
460 304.991
465 37.3383
470 6.0737
475 2.11765
480 1.57008
485 1.74788
490 1.5515
495 1.20577
500 1.19471
505 1.1414
510 1.24828
515 1.53178
520 2.47165
525 3.23537
530 2.16923
535 1.70093
540 1.63386
545 1.17139
550 1.00579
555 0.821176
560 0.772994
565 0.718978
570 0.554654
575 0.471905
580 0.503178
585 0.346974
590 0.275667
595 0.291702
600 0.256213
Ex : 463
200 0.0479965
205 0.0725719
210 0.0760036
215 0.0777357
220 0.134287
225 0.0506256
230 0.0659948
235 0.0487031
240 0.0401621
245 0.0709428
250 0.0445779
255 0.105995
260 0.0664784
265 0.0679258
270 0.0736141
275 0.0468427
280 0.0907556
285 0.0983126
290 0.0970772
295 0.0445378
300 0.0751546
305 0.0637533
310 0.0736163
315 0.0558513
320 0.0733631
325 0.118342
330 0.0853354
335 0.0770175
340 0.0598216
345 0.110186
350 0.070017
355 0.0710639
360 0.0567231
365 0.0689715
370 0.0682998
375 0.133089
380 0.135047
385 0.0698865
390 0.129369
395 0.118954
400 0.120509
405 0.159009
410 0.182228
415 0.158573
420 0.218969
425 0.224098
430 0.258956
435 0.380044
440 0.635214
445 1.39424
450 50.848
455 888.086
460 1356.46
465 328.538
470 39.7344
475 6.21923
480 1.99167
485 1.52405
490 1.52527
495 1.52513
500 1.35592
505 1.2159
510 1.09527
515 1.1493
520 1.37615
525 2.05192
530 3.02333
535 2.38114
540 1.61041
545 1.41646
550 1.33875
555 1.05657
560 0.882501
565 0.722448
570 0.646383
575 0.557307
580 0.452804
585 0.419863
590 0.309896
595 0.280598
600 0.0751605
Ex : 468
200 0.0864788
205 0.121096
210 0.0812574
215 0.0826323
220 0.0513183
225 0.0638261
230 0.0931889
235 0.11117
240 0.0835331
245 0.0848458
250 0.0760551
255 0.0677891
260 0.0507733
265 0.0596422
270 0.0986644
275 0.0648083
280 0.0307083
285 0.0565658
290 0.0526686
295 0.0719057
300 0.071192
305 0.0684134
310 0.0983993
315 0.0874639
320 0.118249
325 0.0470356
330 0.0639212
335 0.0511017
340 0.0956374
345 0.147213
350 0.0909987
355 0.0583243
360 0.0819343
365 0.0864227
370 0.096524
375 0.0669706
380 0.118932
385 0.111436
390 0.110438
395 0.105968
400 0.132718
405 0.145549
410 0.110134
415 0.146571
420 0.174864
425 0.222106
430 0.209568
435 0.313132
440 0.42689
445 0.722538
450 1.21789
455 56.2039
460 904.663
465 1417.07
470 343.763
475 41.2584
480 6.31111
485 2.11203
490 1.45689
495 1.61634
500 1.48498
505 1.2723
510 1.07541
515 1.12166
520 1.2542
525 1.23641
530 1.46528
535 2.60851
540 2.74289
545 1.63689
550 1.40895
555 1.25896
560 0.985023
565 0.791046
570 0.636715
575 0.540777
580 0.465622
585 0.439632
590 0.314786
595 0.324107
600 0.242134
Ex : 473
200 0.0340285
205 0.0722073
210 0.12069
215 0.0730064
220 0.0731251
225 0.0562491
230 0.0618234
235 0.0575823
240 0.0665834
245 0.0662692
250 0.0895527
255 0.113067
260 0.0973927
265 0.105641
270 0.045248
275 0.0622364
280 0.0724464
285 0.0487605
290 0.0773384
295 0.0547079
300 0.0509821
305 0.113222
310 0.0767082
315 0.0854599
320 0.0555674
325 0.0886062
330 0.0781198
335 0.0713184
340 0.125061
345 0.0922439
350 0.0718741
355 0.0719689
360 0.0810091
365 0.0849404
370 0.0490199
375 0.0755191
380 0.105595
385 0.119697
390 0.125412
395 0.0982108
400 0.163893
405 0.16994
410 0.138919
415 0.180812
420 0.150714
425 0.148468
430 0.17734
435 0.278112
440 0.317083
445 0.43679
450 0.749459
455 1.5016
460 67.3647
465 1016.8
470 1419.53
475 327.88
480 39.8282
485 6.04083
490 2.00557
495 1.3476
500 1.42087
505 1.3376
510 1.11589
515 1.08368
520 1.29629
525 1.14556
530 1.16883
535 1.37953
540 2.22985
545 2.64345
550 1.86491
555 1.31485
560 1.16991
565 0.985379
570 0.750354
575 0.581243
580 0.458758
585 0.35992
590 0.332746
595 0.317398
600 0.314345
Ex : 478
200 0.0839376
205 0.100045
210 0.0956036
215 0.0912947
220 0.0354766
225 0.049793
230 0.0669983
235 0.0671198
240 0.0896262
245 0.0852693
250 0.0787562
255 0.100046
260 0.0498896
265 0.0541823
270 0.0555071
275 0.0521367
280 0.0781758
285 0.0721857
290 0.0683708
295 0.0644753
300 0.0981287
305 0.0666242
310 0.0655262
315 0.104788
320 0.0669951
325 0.097697
330 0.0844205
335 0.0765167
340 0.115233
345 0.14375
350 0.108245
355 0.118924
360 0.123929
365 0.113627
370 0.103116
375 0.0789215
380 0.141685
385 0.154906
390 0.131301
395 0.15329
400 0.13233
405 0.15193
410 0.139111
415 0.159539
420 0.133484
425 0.164786
430 0.149572
435 0.184651
440 0.246087
445 0.341136
450 0.507527
455 0.849862
460 1.6098
465 72.8088
470 1051.95
475 1472.2
480 358.596
485 43.2761
490 6.62766
495 1.92332
500 1.316
505 1.26982
510 1.305
515 1.2245
520 1.10929
525 1.10405
530 1.0108
535 0.913926
540 1.16792
545 1.63814
550 2.28078
555 1.91328
560 1.21019
565 1.00834
570 0.945311
575 0.654861
580 0.463626
585 0.378501
590 0.357858
595 0.234506
600 0.276799
Ex : 483
200 0.0695923
205 0.0645436
210 0.0698969
215 0.0973758
220 0.0423701
225 0.0417682
230 0.0616091
235 0.0605186
240 0.112877
245 0.0869467
250 0.0813015
255 0.0769848
260 0.0890624
265 0.0776314
270 0.0817636
275 0.117524
280 0.077645
285 0.097804
290 0.0837223
295 0.0678321
300 0.0656538
305 0.0636889
310 0.060977
315 0.0654597
320 0.0848313
325 0.0506992
330 0.0878335
335 0.066931
340 0.131704
345 0.0865103
350 0.0787838
355 0.050551
360 0.122147
365 0.117951
370 0.129676
375 0.0827726
380 0.0928947
385 0.112831
390 0.163659
395 0.161322
400 0.11087
405 0.127225
410 0.155942
415 0.152166
420 0.125846
425 0.149727
430 0.131007
435 0.171592
440 0.205696
445 0.262989
450 0.340999
455 0.522619
460 0.903328
465 1.78069
470 58.9865
475 1051.1
480 1602.75
485 386.238
490 46.3415
495 6.79673
500 1.89462
505 1.26623
510 1.17952
515 1.3584
520 1.3663
525 1.12828
530 1.12861
535 1.16284
540 1.03132
545 0.950555
550 1.11917
555 1.96237
560 2.07654
565 1.31776
570 0.897492
575 0.721831
580 0.619639
585 0.529892
590 0.378536
595 0.300508
600 0.0935815
Ex : 488
200 0.0720073
205 0.114412
210 0.141888
215 0.150697
220 0.0543966
225 0.060717
230 0.11828
235 0.130848
240 0.133719
245 0.0710111
250 0.0638899
255 0.0817057
260 0.0669662
265 0.117353
270 0.0929221
275 0.0958096
280 0.120047
285 0.119227
290 0.0625328
295 0.0879549
300 0.07231
305 0.0620885
310 0.105905
315 0.122561
320 0.176923
325 0.103286
330 0.0778208
335 0.0971084
340 0.1051
345 0.0981879
350 0.0895834
355 0.0763071
360 0.131284
365 0.08136
370 0.128726
375 0.159132
380 0.0845065
385 0.109007
390 0.143875
395 0.12864
400 0.103635
405 0.159317
410 0.144127
415 0.18212
420 0.180576
425 0.15352
430 0.157367
435 0.184316
440 0.228192
445 0.240341
450 0.293129
455 0.512824
460 0.6446
465 1.09113
470 1.7987
475 73.587
480 1160.71
485 1610.92
490 379.753
495 45.6135
500 6.60151
505 1.93043
510 1.21707
515 1.30152
520 1.51408
525 1.21287
530 1.23457
535 0.963539
540 1.01188
545 0.900396
550 0.942195
555 0.97581
560 1.44611
565 2.0405
570 1.34857
575 0.798735
580 0.745693
585 0.581483
590 0.413649
595 0.302984
600 0.363834
Ex : 493
200 0.0621566
205 0.056878
210 0.0524286
215 0.080926
220 0.138813
225 0.0463136
230 0.0698025
235 0.0680725
240 0.0904394
245 0.141384
250 0.0906947
255 0.113785
260 0.0921067
265 0.097641
270 0.0644483
275 0.113024
280 0.0972773
285 0.104759
290 0.18984
295 0.181867
300 0.13499
305 0.106166
310 0.0802445
315 0.121266
320 0.0880897
325 0.079387
330 0.14154
335 0.0989129
340 0.0887289
345 0.0718559
350 0.135534
355 0.109678
360 0.101871
365 0.0883127
370 0.0595875
375 0.0834476
380 0.078068
385 0.107996
390 0.147152
395 0.121535
400 0.0976993
405 0.0881194
410 0.158842
415 0.160126
420 0.116304
425 0.0865748
430 0.155316
435 0.157331
440 0.197969
445 0.217076
450 0.230628
455 0.336069
460 0.499137
465 0.650522
470 1.09274
475 1.72968
480 68.517
485 1150.01
490 1695.58
495 391.95
500 46.9628
505 6.93394
510 1.98741
515 1.37376
520 1.31126
525 1.30224
530 1.33034
535 1.05079
540 1.02438
545 1.00189
550 0.972783
555 0.776157
560 0.827939
565 1.04903
570 1.5776
575 1.28212
580 0.708968
585 0.500141
590 0.437037
595 0.401657
600 0.450351
Ex : 498
200 0.0631974
205 0.0609523
210 0.0609285
215 0.0733433
220 0.12383
225 0.0706142
230 0.0732754
235 0.0995183
240 0.0601846
245 0.0951762
250 0.0691019
255 0.172552
260 0.0789644
265 0.0653274
270 0.0989229
275 0.0757228
280 0.0655365
285 0.123245
290 0.132227
295 0.126012
300 0.0985708
305 0.101204
310 0.0924501
315 0.0933722
320 0.108466
325 0.0607267
330 0.0910087
335 0.0858159
340 0.12033
345 0.134567
350 0.0952789
355 0.114747
360 0.136656
365 0.122431
370 0.232986
375 0.124407
380 0.0974549
385 0.165081
390 0.130361
395 0.172184
400 0.100863
405 0.173534
410 0.147298
415 0.168411
420 0.20461
425 0.128285
430 0.167978
435 0.210994
440 0.241403
445 0.219544
450 0.319201
455 0.317706
460 0.437022
465 0.55635
470 0.600749
475 1.04537
480 1.82527
485 83.4955
490 1239.93
495 1686.59
500 393.445
505 47.0783
510 7.00223
515 2.18892
520 1.31682
525 1.22293
530 1.33654
535 1.16287
540 1.07716
545 0.954635
550 0.745887
555 0.873268
560 0.748161
565 0.691249
570 0.773736
575 1.17827
580 1.2315
585 0.627552
590 0.471668
595 0.485537
600 0.0552523
Ex : 503
200 0.0986538
205 0.135792
210 0.082988
215 0.0744725
220 0.0946893
225 0.0827923
230 0.0859684
235 0.0794494
240 0.05795
245 0.0648505
250 0.0808547
255 0.109306
260 0.0883535
265 0.108096
270 0.0983054
275 0.0784827
280 0.158257
285 0.106751
290 0.0795764
295 0.0759406
300 0.0743872
305 0.110273
310 0.0508373
315 0.110981
320 0.127943
325 0.0940005
330 0.106681
335 0.0669528
340 0.0747656
345 0.132528
350 0.143397
355 0.0982266
360 0.116171
365 0.0753553
370 0.0685121
375 0.12234
380 0.12281
385 0.197363
390 0.1429
395 0.0912984
400 0.142497
405 0.115687
410 0.153318
415 0.118118
420 0.15934
425 0.164632
430 0.165931
435 0.153848
440 0.227847
445 0.165776
450 0.228664
455 0.27319
460 0.316851
465 0.357401
470 0.458621
475 0.729753
480 1.03452
485 1.78612
490 75.9249
495 1246.24
500 1754.11
505 406.839
510 48.7408
515 7.32437
520 2.54497
525 1.45438
530 1.24333
535 1.12892
540 1.16279
545 0.984448
550 0.95963
555 0.760389
560 0.636464
565 0.59211
570 0.559258
575 0.629127
580 0.848654
585 1.18862
590 0.668913
595 0.466336
600 0.0685468
Ex : 508
200 0.109585
205 0.0694878
210 0.0939136
215 0.113287
220 0.115079
225 0.0764027
230 0.0976463
235 0.127017
240 0.0757948
245 0.0956535
250 0.0924578
255 0.11196
260 0.120345
265 0.134057
270 0.146995
275 0.120981
280 0.111522
285 0.10378
290 0.121068
295 0.0962259
300 0.145491
305 0.115519
310 0.108688
315 0.146653
320 0.0902333
325 0.0623635
330 0.095492
335 0.119857
340 0.125046
345 0.0956919
350 0.135192
355 0.125917
360 0.134433
365 0.109707
370 0.120374
375 0.0896252
380 0.103749
385 0.138949
390 0.148098
395 0.187529
400 0.215097
405 0.115313
410 0.230914
415 0.218536
420 0.175296
425 0.199218
430 0.173555
435 0.153224
440 0.167487
445 0.26722
450 0.220656
455 0.198592
460 0.201925
465 0.328036
470 0.356077
475 0.453415
480 0.679955
485 1.0799
490 1.83947
495 83.1389
500 1259.38
505 1756.25
510 428.614
515 51.4881
520 7.47381
525 2.20383
530 1.5258
535 0.996263
540 1.23739
545 1.10899
550 0.97526
555 0.8311
560 0.692824
565 0.59529
570 0.699967
575 0.515722
580 0.493597
585 0.627543
590 0.899117
595 0.752089
600 0.460207
Ex : 513
200 0.080262
205 0.0844836
210 0.199934
215 0.144031
220 0.0610141
225 0.141971
230 0.172703
235 0.161758
240 0.0913525
245 0.118528
250 0.159467
255 0.136512
260 0.0675304
265 0.0810195
270 0.074894
275 0.0930981
280 0.0856676
285 0.0912432
290 0.140722
295 0.182164
300 0.0974165
305 0.0820615
310 0.119629
315 0.171413
320 0.155379
325 0.153776
330 0.0875127
335 0.136106
340 0.118655
345 0.151193
350 0.138977
355 0.135405
360 0.120827
365 0.132718
370 0.0674314
375 0.105689
380 0.14216
385 0.129568
390 0.0925182
395 0.136036
400 0.164422
405 0.210102
410 0.12968
415 0.161764
420 0.096872
425 0.121028
430 0.202609
435 0.172878
440 0.174118
445 0.167896
450 0.237853
455 0.197536
460 0.341907
465 0.239018
470 0.299249
475 0.430178
480 0.48791
485 0.556755
490 1.15164
495 1.76898
500 77.2626
505 1260.4
510 1819.07
515 441.892
520 52.9727
525 7.61145
530 2.16617
535 1.34623
540 1.00618
545 1.09694
550 1.01034
555 0.821694
560 0.7512
565 0.706344
570 0.602769
575 0.555169
580 0.444153
585 0.377865
590 0.451902
595 0.461225
600 0.623963
Ex : 518
200 0.161324
205 0.133945
210 0.163095
215 0.0931638
220 0.10171
225 0.155636
230 0.140316
235 0.12822
240 0.183236
245 0.106917
250 0.0883751
255 0.0785175
260 0.109461
265 0.0607017
270 0.0967352
275 0.112779
280 0.128124
285 0.128068
290 0.100749
295 0.0680245
300 0.107064
305 0.0947421
310 0.120071
315 0.125691
320 0.114487
325 0.108326
330 0.112784
335 0.065024
340 0.0631638
345 0.112086
350 0.112695
355 0.0839129
360 0.13912
365 0.136715
370 0.0842079
375 0.131365
380 0.115928
385 0.106783
390 0.0933407
395 0.140398
400 0.12927
405 0.108231
410 0.140682
415 0.163932
420 0.183891
425 0.143863
430 0.208444
435 0.185994
440 0.176336
445 0.162022
450 0.23653
455 0.214973
460 0.228588
465 0.190674
470 0.295623
475 0.301646
480 0.421386
485 0.422665
490 0.848867
495 0.98025
500 1.77243
505 78.9034
510 1231.23
515 1808.27
520 447.547
525 53.6614
530 7.74326
535 2.13395
540 1.20361
545 1.00249
550 0.942832
555 0.823311
560 0.872521
565 0.608615
570 0.50486
575 0.440464
580 0.497561
585 0.411285
590 0.341389
595 0.349855
600 0.896334
Ex : 523
200 0.0941978
205 0.118249
210 0.131673
215 0.117999
220 0.114946
225 0.133261
230 0.0726664
235 0.135065
240 0.106124
245 0.135912
250 0.108473
255 0.16064
260 0.104032
265 0.13593
270 0.101454
275 0.0608778
280 0.120105
285 0.131674
290 0.156945
295 0.114239
300 0.0830494
305 0.0959378
310 0.204035
315 0.183163
320 0.179275
325 0.110802
330 0.140585
335 0.120909
340 0.148064
345 0.190432
350 0.137423
355 0.149397
360 0.139084
365 0.130166
370 0.183979
375 0.108659
380 0.126626
385 0.212136
390 0.10995
395 0.177235
400 0.0957446
405 0.172915
410 0.237155
415 0.185024
420 0.135237
425 0.123887
430 0.242133
435 0.237296
440 0.211032
445 0.211674
450 0.137122
455 0.149644
460 0.240465
465 0.211445
470 0.193938
475 0.217236
480 0.270154
485 0.394623
490 0.428101
495 0.605786
500 0.881421
505 1.90618
510 73.3842
515 1208.8
520 1826.34
525 469.338
530 56.293
535 7.90698
540 2.29624
545 1.27273
550 0.9719
555 0.763905
560 0.772104
565 0.708919
570 0.571131
575 0.521196
580 0.400833
585 0.440389
590 0.316779
595 0.340648
600 0.265772
Ex : 528
200 0.123662
205 0.0912283
210 0.0881663
215 0.145763
220 0.119581
225 0.0965231
230 0.0870478
235 0.128016
240 0.180982
245 0.157143
250 0.108271
255 0.123789
260 0.137976
265 0.116347
270 0.130234
275 0.0668538
280 0.114455
285 0.112312
290 0.201519
295 0.0759501
300 0.063473
305 0.125152
310 0.133221
315 0.0919622
320 0.0947825
325 0.15614
330 0.118391
335 0.0963908
340 0.119492
345 0.105626
350 0.113599
355 0.0978758
360 0.20124
365 0.108837
370 0.111238
375 0.152075
380 0.185107
385 0.177281
390 0.225434
395 0.150172
400 0.155264
405 0.115762
410 0.149596
415 0.160586
420 0.12939
425 0.158803
430 0.165899
435 0.273277
440 0.198908
445 0.198332
450 0.132165
455 0.133693
460 0.144456
465 0.225295
470 0.227473
475 0.357981
480 0.23265
485 0.32499
490 0.376523
495 0.480698
500 0.713214
505 1.00844
510 1.69101
515 69.3829
520 1204.85
525 1830.77
530 459.292
535 54.8982
540 7.75949
545 1.96078
550 1.1989
555 0.758547
560 0.607903
565 0.792425
570 0.659519
575 0.531728
580 0.505943
585 0.411449
590 0.359035
595 0.383595
600 0.445641
Ex : 533
200 0.0880848
205 0.0827298
210 0.0755137
215 0.0903222
220 0.118237
225 0.0874076
230 0.0872483
235 0.0719392
240 0.0954861
245 0.0939651
250 0.140135
255 0.20018
260 0.150914
265 0.123839
270 0.121826
275 0.0845937
280 0.0704037
285 0.173377
290 0.104719
295 0.106767
300 0.141579
305 0.0868863
310 0.108292
315 0.15492
320 0.24239
325 0.192789
330 0.10725
335 0.0725998
340 0.117304
345 0.128056
350 0.145562
355 0.126362
360 0.14397
365 0.106203
370 0.10326
375 0.1748
380 0.222475
385 0.151837
390 0.0888354
395 0.0908762
400 0.142684
405 0.156941
410 0.211588
415 0.226716
420 0.169772
425 0.172202
430 0.221242
435 0.207269
440 0.20038
445 0.189217
450 0.148918
455 0.236621
460 0.267304
465 0.226324
470 0.27293
475 0.23687
480 0.331837
485 0.385575
490 0.373765
495 0.460484
500 0.492642
505 0.645739
510 0.993595
515 1.82602
520 69.6976
525 1162.18
530 1791.51
535 465.697
540 55.4815
545 7.59542
550 1.78099
555 1.0744
560 0.639562
565 0.59149
570 0.49361
575 0.579051
580 0.686136
585 0.447686
590 0.402642
595 0.453932
600 0.951779
Ex : 538
200 0.0789102
205 0.0577255
210 0.0834282
215 0.114226
220 0.127158
225 0.0989697
230 0.0694996
235 0.114336
240 0.0997336
245 0.167867
250 0.187015
255 0.115536
260 0.115469
265 0.0890147
270 0.0653089
275 0.0692119
280 0.0632783
285 0.134596
290 0.156403
295 0.110641
300 0.131474
305 0.115297
310 0.161786
315 0.104281
320 0.131303
325 0.106578
330 0.100091
335 0.12761
340 0.127945
345 0.168337
350 0.127911
355 0.175989
360 0.224235
365 0.218791
370 0.194747
375 0.122174
380 0.087475
385 0.133664
390 0.111263
395 0.116295
400 0.108535
405 0.130396
410 0.115033
415 0.139128
420 0.169247
425 0.190828
430 0.214188
435 0.177933
440 0.120216
445 0.152023
450 0.154566
455 0.127227
460 0.180909
465 0.150461
470 0.231185
475 0.20995
480 0.221376
485 0.227647
490 0.223869
495 0.358853
500 0.442611
505 0.656796
510 0.57852
515 0.960684
520 1.71592
525 57.7652
530 1111.78
535 1809.6
540 485.813
545 57.9215
550 7.82895
555 1.69407
560 0.970656
565 0.587893
570 0.537598
575 0.503933
580 0.49843
585 0.38626
590 0.371943
595 0.455895
600 0.275231
Ex : 543
200 0.124439
205 0.128975
210 0.123685
215 0.12336
220 0.147052
225 0.113398
230 0.169468
235 0.170568
240 0.159043
245 0.0838617
250 0.227547
255 0.194183
260 0.113912
265 0.139326
270 0.110657
275 0.101567
280 0.135664
285 0.125534
290 0.101746
295 0.219629
300 0.14449
305 0.10898
310 0.212843
315 0.180017
320 0.123204
325 0.103693
330 0.122635
335 0.123656
340 0.142132
345 0.186712
350 0.13081
355 0.149395
360 0.199322
365 0.114309
370 0.132816
375 0.138277
380 0.0991927
385 0.100784
390 0.118677
395 0.109986
400 0.148873
405 0.100436
410 0.186729
415 0.137852
420 0.180603
425 0.206207
430 0.171383
435 0.202148
440 0.194038
445 0.142206
450 0.165795
455 0.167514
460 0.134168
465 0.190424
470 0.298771
475 0.164229
480 0.21796
485 0.158688
490 0.337338
495 0.290713
500 0.439288
505 0.332098
510 0.480361
515 0.589366
520 0.981916
525 1.76617
530 55.4598
535 1079
540 1808.48
545 498.424
550 59.6492
555 7.87934
560 1.7619
565 0.978616
570 0.668591
575 0.501082
580 0.458963
585 0.380035
590 0.344504
595 0.402336
600 0.739977
Ex : 548
200 0.109652
205 0.0994345
210 0.102324
215 0.117594
220 0.097475
225 0.141006
230 0.0882304
235 0.145751
240 0.127149
245 0.162716
250 0.0837823
255 0.136953
260 0.139497
265 0.180538
270 0.196549
275 0.0859964
280 0.132557
285 0.066221
290 0.10324
295 0.106327
300 0.0823096
305 0.14902
310 0.12912
315 0.113635
320 0.0996992
325 0.131647
330 0.185335
335 0.114451
340 0.122961
345 0.192209
350 0.129163
355 0.198781
360 0.118069
365 0.182904
370 0.144855
375 0.131188
380 0.205395
385 0.230041
390 0.17398
395 0.235447
400 0.167592
405 0.129588
410 0.219676
415 0.169075
420 0.146795
425 0.0982937
430 0.183713
435 0.18117
440 0.189158
445 0.194813
450 0.16652
455 0.237039
460 0.164633
465 0.118498
470 0.151745
475 0.201889
480 0.157251
485 0.261372
490 0.307373
495 0.254274
500 0.203946
505 0.373947
510 0.371442
515 0.486464
520 0.736959
525 1.13509
530 1.89949
535 60.646
540 1088.18
545 1762.72
550 487.787
555 58.1646
560 7.73571
565 1.59687
570 0.769647
575 0.54224
580 0.515937
585 0.414874
590 0.378821
595 0.397883
600 0.480783
Ex : 553
200 0.0831473
205 0.0700527
210 0.107179
215 0.185182
220 0.171629
225 0.117942
230 0.123898
235 0.12467
240 0.0919639
245 0.190106
250 0.101574
255 0.213697
260 0.0928053
265 0.173244
270 0.185573
275 0.120002
280 0.187019
285 0.12739
290 0.0544927
295 0.160378
300 0.134544
305 0.158901
310 0.103925
315 0.128485
320 0.135792
325 0.0939675
330 0.161295
335 0.108216
340 0.14562
345 0.187404
350 0.166741
355 0.154948
360 0.10968
365 0.119726
370 0.103594
375 0.0970703
380 0.065396
385 0.178068
390 0.151544
395 0.194935
400 0.170802
405 0.248811
410 0.138964
415 0.144539
420 0.109303
425 0.115418
430 0.156054
435 0.107261
440 0.112524
445 0.103813
450 0.169453
455 0.212398
460 0.123014
465 0.223314
470 0.203577
475 0.194536
480 0.260601
485 0.166692
490 0.245555
495 0.200348
500 0.20121
505 0.283361
510 0.295799
515 0.379924
520 0.516353
525 0.723506
530 0.984451
535 1.58454
540 52.0818
545 1028.55
550 1771.37
555 498.758
560 59.6472
565 7.69729
570 1.56441
575 0.740257
580 0.525906
585 0.338778
590 0.381558
595 0.437483
600 1.66922
Ex : 558
200 0.12283
205 0.113748
210 0.166667
215 0.134068
220 0.0822932
225 0.107617
230 0.138699
235 0.12097
240 0.138382
245 0.104755
250 0.118961
255 0.231108
260 0.107898
265 0.123491
270 0.133635
275 0.119885
280 0.0946639
285 0.153463
290 0.110809
295 0.126146
300 0.106053
305 0.116525
310 0.160161
315 0.100802
320 0.146162
325 0.130086
330 0.196492
335 0.122903
340 0.108359
345 0.209337
350 0.117807
355 0.138678
360 0.224922
365 0.207085
370 0.166886
375 0.124667
380 0.0919556
385 0.0970176
390 0.144638
395 0.284635
400 0.226623
405 0.168925
410 0.174302
415 0.239282
420 0.119058
425 0.181457
430 0.149436
435 0.182022
440 0.184672
445 0.174404
450 0.236702
455 0.238059
460 0.169571
465 0.0876861
470 0.215402
475 0.128672
480 0.199663
485 0.209867
490 0.157531
495 0.187285
500 0.183334
505 0.264006
510 0.269715
515 0.281293
520 0.417014
525 0.426812
530 0.638507
535 0.823275
540 1.392
545 48.1165
550 975.528
555 1730.95
560 493.644
565 58.7975
570 7.5585
575 1.37188
580 0.75307
585 0.462717
590 0.315158
595 0.405741
600 0.30714
Ex : 563
200 0.0914945
205 0.124476
210 0.120371
215 0.138607
220 0.115503
225 0.0641118
230 0.117903
235 0.143342
240 0.101061
245 0.0652462
250 0.100116
255 0.134241
260 0.0959129
265 0.174435
270 0.118332
275 0.121393
280 0.1555
285 0.177843
290 0.114352
295 0.147937
300 0.131799
305 0.178053
310 0.0964543
315 0.117119
320 0.092149
325 0.159301
330 0.112801
335 0.203253
340 0.104575
345 0.118506
350 0.132199
355 0.170954
360 0.185667
365 0.197405
370 0.207453
375 0.226994
380 0.252476
385 0.207988
390 0.223081
395 0.143182
400 0.157116
405 0.20201
410 0.237023
415 0.15281
420 0.151108
425 0.183534
430 0.195309
435 0.114669
440 0.195766
445 0.159171
450 0.173252
455 0.232171
460 0.149962
465 0.144694
470 0.20554
475 0.275016
480 0.178663
485 0.252606
490 0.208403
495 0.24981
500 0.200537
505 0.229029
510 0.194958
515 0.326361
520 0.294523
525 0.333686
530 0.445886
535 0.531361
540 0.831768
545 1.35719
550 48.3095
555 945.09
560 1654.53
565 480.229
570 57.2675
575 7.37516
580 1.48228
585 0.606383
590 0.441476
595 0.376117
600 0.0428007
Ex : 568
200 0.0901538
205 0.129764
210 0.150905
215 0.0908163
220 0.12917
225 0.0708901
230 0.149384
235 0.100632
240 0.154056
245 0.122071
250 0.117981
255 0.149574
260 0.182315
265 0.200731
270 0.142166
275 0.156011
280 0.113559
285 0.279514
290 0.141587
295 0.139937
300 0.177339
305 0.160678
310 0.105062
315 0.133826
320 0.0851058
325 0.197505
330 0.139464
335 0.104477
340 0.17789
345 0.114104
350 0.119598
355 0.118273
360 0.128152
365 0.134503
370 0.160951
375 0.138502
380 0.136769
385 0.203368
390 0.180335
395 0.183168
400 0.167813
405 0.154635
410 0.0807501
415 0.138599
420 0.154425
425 0.180314
430 0.178691
435 0.238561
440 0.222492
445 0.15033
450 0.163505
455 0.225082
460 0.247164
465 0.227193
470 0.185321
475 0.16737
480 0.20152
485 0.177138
490 0.256945
495 0.20429
500 0.250145
505 0.252965
510 0.346492
515 0.241534
520 0.282256
525 0.349209
530 0.271355
535 0.437508
540 0.642277
545 0.804611
550 1.40601
555 36.623
560 868.415
565 1621.5
570 488.029
575 58.676
580 7.40131
585 1.24441
590 0.574722
595 0.437026
600 0.373537
Ex : 573
200 0.172159
205 0.127172
210 0.107869
215 0.183444
220 0.102043
225 0.0470376
230 0.0806058
235 0.184666
240 0.104938
245 0.0690109
250 0.169175
255 0.0670702
260 0.0644874
265 0.0920885
270 0.101565
275 0.114519
280 0.221409
285 0.189145
290 0.11006
295 0.215589
300 0.10443
305 0.109467
310 0.174951
315 0.139219
320 0.240107
325 0.164174
330 0.164333
335 0.151913
340 0.18068
345 0.0984857
350 0.104834
355 0.191973
360 0.102103
365 0.222553
370 0.119903
375 0.125547
380 0.182851
385 0.12655
390 0.110028
395 0.217714
400 0.120134
405 0.193769
410 0.165504
415 0.225996
420 0.252812
425 0.128904
430 0.131704
435 0.0804071
440 0.118749
445 0.113441
450 0.260146
455 0.139473
460 0.115501
465 0.19824
470 0.265096
475 0.161399
480 0.200424
485 0.166203
490 0.267039
495 0.216719
500 0.286232
505 0.222706
510 0.277555
515 0.179855
520 0.186065
525 0.422699
530 0.254472
535 0.320127
540 0.508902
545 0.542554
550 0.714815
555 1.4336
560 31.0544
565 742.508
570 1493.35
575 462.527
580 55.4285
585 7.16316
590 1.3362
595 0.5595
600 0.063669
Ex : 578
200 0.170597
205 0.182684
210 0.0923836
215 0.126351
220 0.0867748
225 0.142718
230 0.0827207
235 0.13821
240 0.138088
245 0.185007
250 0.11205
255 0.104788
260 0.193438
265 0.203489
270 0.121268
275 0.137446
280 0.225324
285 0.152366
290 0.175522
295 0.199751
300 0.143875
305 0.111608
310 0.221792
315 0.0935087
320 0.29865
325 0.166051
330 0.184629
335 0.0833779
340 0.109682
345 0.135908
350 0.218214
355 0.11507
360 0.173248
365 0.116757
370 0.154631
375 0.168526
380 0.15301
385 0.160555
390 0.168602
395 0.187877
400 0.21035
405 0.220402
410 0.20072
415 0.106579
420 0.174972
425 0.2563
430 0.181929
435 0.107913
440 0.255717
445 0.141217
450 0.149538
455 0.138453
460 0.136992
465 0.166296
470 0.166721
475 0.127591
480 0.175013
485 0.125226
490 0.185666
495 0.267963
500 0.238379
505 0.15102
510 0.17015
515 0.318058
520 0.212302
525 0.145965
530 0.205587
535 0.326229
540 0.2607
545 0.458686
550 0.488159
555 0.815589
560 0.942211
565 27.7801
570 670.538
575 1311.44
580 399.755
585 47.5483
590 5.95626
595 1.1249
600 0.403038
Ex : 583
200 0.129319
205 0.119636
210 0.0629968
215 0.176987
220 0.148634
225 0.150924
230 0.130085
235 0.105761
240 0.0900152
245 0.0862632
250 0.149453
255 0.123687
260 0.365347
265 0.19022
270 0.0900561
275 0.137486
280 0.141584
285 0.121075
290 0.218929
295 0.12847
300 0.102297
305 0.0891168
310 0.129518
315 0.0833567
320 0.115064
325 0.132359
330 0.0826167
335 0.201816
340 0.158182
345 0.141191
350 0.109659
355 0.153483
360 0.104468
365 0.106406
370 0.113231
375 0.232464
380 0.169202
385 0.103527
390 0.126793
395 0.19718
400 0.149467
405 0.119677
410 0.217474
415 0.210651
420 0.227553
425 0.156201
430 0.247728
435 0.206265
440 0.284741
445 0.173569
450 0.22303
455 0.197926
460 0.175899
465 0.149469
470 0.145941
475 0.122108
480 0.145019
485 0.210084
490 0.167861
495 0.171901
500 0.284245
505 0.29603
510 0.18884
515 0.17185
520 0.2743
525 0.137739
530 0.206642
535 0.218313
540 0.268284
545 0.378271
550 0.359856
555 0.389848
560 0.497103
565 0.922523
570 23.1971
575 601.669
580 1136.19
585 329.282
590 39.2798
595 5.05976
600 1.2589
Ex : 588
200 0.092851
205 0.137694
210 0.159849
215 0.134043
220 0.172935
225 0.116106
230 0.183475
235 0.193213
240 0.105516
245 0.149202
250 0.105491
255 0.193466
260 0.173115
265 0.17835
270 0.13238
275 0.125609
280 0.0899059
285 0.104353
290 0.184856
295 0.211684
300 0.177031
305 0.143007
310 0.129007
315 0.157402
320 0.0829853
325 0.100253
330 0.0952029
335 0.126533
340 0.148536
345 0.171516
350 0.128504
355 0.155085
360 0.11426
365 0.192998
370 0.159405
375 0.103668
380 0.132517
385 0.10353
390 0.106765
395 0.173404
400 0.222456
405 0.133845
410 0.0978485
415 0.212397
420 0.131322
425 0.154984
430 0.159312
435 0.280503
440 0.161355
445 0.169762
450 0.143676
455 0.11996
460 0.114167
465 0.099187
470 0.210042
475 0.234133
480 0.250357
485 0.165895
490 0.202135
495 0.179599
500 0.206399
505 0.236496
510 0.137087
515 0.202974
520 0.186565
525 0.226119
530 0.335731
535 0.278385
540 0.211632
545 0.228651
550 0.209756
555 0.359194
560 0.438186
565 0.620019
570 0.787382
575 20.421
580 508.98
585 980.846
590 291.895
595 34.6839
600 4.31832
Ex : 593
200 0.111711
205 0.164748
210 0.105839
215 0.183588
220 0.103046
225 0.216086
230 0.0825158
235 0.134271
240 0.101046
245 0.146913
250 0.120146
255 0.107322
260 0.210328
265 0.126948
270 0.162173
275 0.126838
280 0.106377
285 0.12498
290 0.143718
295 0.0657396
300 0.10593
305 0.0887095
310 0.167503
315 0.0744691
320 0.187161
325 0.12317
330 0.134921
335 0.290665
340 0.178385
345 0.0924418
350 0.161152
355 0.060853
360 0.121155
365 0.130047
370 0.113785
375 0.129541
380 0.165985
385 0.135004
390 0.20909
395 0.0807971
400 0.244162
405 0.221218
410 0.144115
415 0.140347
420 0.138693
425 0.213826
430 0.084811
435 0.154083
440 0.182087
445 0.208076
450 0.191547
455 0.222532
460 0.10643
465 0.238759
470 0.214396
475 0.163961
480 0.175066
485 0.103471
490 0.1869
495 0.194993
500 0.185353
505 0.151983
510 0.208754
515 0.152903
520 0.126311
525 0.23392
530 0.207073
535 0.256632
540 0.181475
545 0.299057
550 0.344899
555 0.257175
560 0.30546
565 0.535371
570 0.628978
575 0.682107
580 17.8843
585 450.732
590 844.77
595 251.231
600 37.7488
Ex : 598
200 0.0833964
205 0.0961584
210 0.103944
215 0.0706622
220 0.19322
225 0.188658
230 0.133236
235 0.129304
240 0.181119
245 0.131725
250 0.137074
255 0.147263
260 0.0869074
265 0.0946438
270 0.201408
275 0.109341
280 0.125904
285 0.0844331
290 0.0950213
295 0.174043
300 0.162971
305 0.170683
310 0.135118
315 0.232801
320 0.15514
325 0.234677
330 0.19073
335 0.198473
340 0.185196
345 0.179344
350 0.164003
355 0.0912058
360 0.0831068
365 0.171715
370 0.122745
375 0.122821
380 0.202964
385 0.256965
390 0.0955894
395 0.247063
400 0.137961
405 0.144203
410 0.126529
415 0.115424
420 0.239815
425 0.185274
430 0.22072
435 0.181407
440 0.134731
445 0.147611
450 0.151849
455 0.258602
460 0.237085
465 0.246724
470 0.152759
475 0.118442
480 0.243116
485 0.16642
490 0.231215
495 0.177886
500 0.203578
505 0.141327
510 0.194974
515 0.20078
520 0.24148
525 0.179105
530 0.251185
535 0.222959
540 0.207731
545 0.186175
550 0.181179
555 0.2166
560 0.275591
565 0.291163
570 0.399622
575 0.548793
580 0.814831
585 17.2791
590 406.327
595 747.055
600 472.491
Ex : 603
200 0.148344
205 0.163649
210 0.296908
215 0.114111
220 0.18691
225 0.0666078
230 0.225808
235 0.110573
240 0.10275
245 0.0942898
250 0.092236
255 0.109529
260 0.111889
265 0.0916735
270 0.171146
275 0.121981
280 0.11652
285 0.190465
290 0.050595
295 0.146082
300 0.115736
305 0.123592
310 0.14214
315 0.136597
320 0.174548
325 0.11226
330 0.135453
335 0.110987
340 0.127234
345 0.172139
350 0.0795482
355 0.0986763
360 0.172038
365 0.101643
370 0.164887
375 0.0833716
380 0.113013
385 0.150486
390 0.217851
395 0.188615
400 0.167321
405 0.127573
410 0.106856
415 0.159043
420 0.111355
425 0.250117
430 0.150728
435 0.114485
440 0.243852
445 0.139798
450 0.117436
455 0.142653
460 0.141361
465 0.292683
470 0.168221
475 0.171816
480 0.0929039
485 0.174133
490 0.176153
495 0.161972
500 0.307209
505 0.113564
510 0.229224
515 0.160066
520 0.317379
525 0.214413
530 0.182123
535 0.308138
540 0.193347
545 0.198892
550 0.233237
555 0.244757
560 0.226128
565 0.290871
570 0.249853
575 0.269868
580 0.45949
585 0.476719
590 15.9547
595 350.466
600 697.125
