File format V 1.0
ven. 6. janv. 01:12:31 2017
Operator : 
Comments : 

=============================================
SpectroFluorometer parameters
Mode : 3D measurement
Data : Fluorescence
Phospho. : Ordinary
Spectrum : Fluorescence

Scan speed : 2400 nm/mn
Response : 100 ms
PM Voltage : 700 V
Shutter : On

Lambda Ex. Start : 203
Lambda Ex. End : 603
Lambda Ex. Step : 5
Ex. Slit : 5 nm

Lambda Em. Start : 200
Lambda Em. End : 600
Lambda Em. Step : 5
Em. Slit : 5 nm

Repetition : 1
Decal lambda em : 10
=============================================
DATA
Ex : 203
200 2.7764
205 4.07176
210 4.69128
215 3.15701
220 2.36798
225 3.09197
230 5.21717
235 3.30548
240 3.81547
245 5.05888
250 2.31644
255 1.37275
260 4.5758
265 2.39989
270 3.13849
275 3.12794
280 4.23153
285 1.44577
290 4.62919
295 3.89957
300 2.07437
305 3.79848
310 4.75621
315 5.70671
320 2.82089
325 2.02058
330 3.14883
335 2.10756
340 4.688
345 4.84125
350 9.05506
355 4.30431
360 5.04408
365 2.26687
370 4.80714
375 6.79869
380 3.41315
385 2.96341
390 3.21106
395 7.52778
400 6.31408
405 6.28336
410 1.67559
415 2.42807
420 4.28219
425 4.40247
430 3.54124
435 3.69943
440 4.54399
445 2.69543
450 4.99428
455 3.58919
460 4.40196
465 8.27135
470 3.56642
475 3.58237
480 6.75879
485 6.0547
490 4.03874
495 5.34218
500 6.04839
505 4.53257
510 2.40432
515 3.74936
520 2.71549
525 4.19091
530 2.11423
535 3.7375
540 3.63436
545 5.42255
550 6.09275
555 6.40652
560 3.92528
565 4.24377
570 3.77617
575 4.88896
580 4.33157
585 2.69612
590 3.11602
595 3.26729
600 7.75684
Ex : 208
200 5.2053
205 2.96981
210 2.33054
215 2.91791
220 5.51026
225 6.53507
230 2.13796
235 1.36271
240 3.08009
245 7.34685
250 4.08546
255 3.73529
260 2.59596
265 4.23016
270 2.63619
275 2.91102
280 5.49705
285 1.55634
290 2.54984
295 4.59955
300 3.74941
305 4.33031
310 4.70358
315 1.17259
320 3.12437
325 5.23542
330 8.54797
335 4.55299
340 3.04263
345 2.89196
350 3.09405
355 3.70658
360 2.62894
365 4.74659
370 3.60593
375 5.64366
380 2.49144
385 4.11591
390 3.15653
395 5.24799
400 4.44632
405 3.38031
410 2.20194
415 3.36736
420 6.92295
425 8.61788
430 4.78681
435 3.05979
440 4.25582
445 4.72453
450 6.63097
455 6.57297
460 2.57392
465 5.85919
470 3.3714
475 1.91488
480 3.06722
485 4.17608
490 4.56284
495 6.81801
500 3.4745
505 3.55391
510 1.59717
515 4.47601
520 2.63976
525 2.39184
530 3.57796
535 2.96082
540 6.93619
545 4.23745
550 3.00493
555 3.41631
560 5.50232
565 3.73907
570 2.52875
575 5.25407
580 2.6657
585 3.2415
590 4.32909
595 5.79878
600 0.659879
Ex : 213
200 1.75949
205 7.31243
210 6.97501
215 4.00322
220 11.8488
225 4.04974
230 1.84071
235 3.49463
240 4.78678
245 2.15388
250 7.1298
255 3.90437
260 3.6956
265 1.82605
270 6.09472
275 7.24255
280 4.3065
285 3.34624
290 3.30473
295 5.35696
300 6.5708
305 6.082
310 6.20173
315 3.06101
320 2.9172
325 2.73419
330 2.34083
335 2.85725
340 2.97781
345 5.94964
350 4.40967
355 9.05866
360 3.81943
365 1.79035
370 4.46621
375 5.52391
380 3.91788
385 7.09828
390 6.69874
395 5.54328
400 3.05923
405 4.51586
410 3.4223
415 5.6835
420 3.39744
425 5.90881
430 3.48565
435 4.82767
440 2.23562
445 1.15204
450 4.88229
455 6.19507
460 9.12098
465 2.79035
470 5.20023
475 1.69487
480 2.2045
485 5.86555
490 2.73719
495 3.30541
500 3.05624
505 3.13467
510 3.47689
515 5.19922
520 4.3724
525 5.13481
530 1.68502
535 5.42209
540 5.01501
545 5.74311
550 3.70861
555 1.98468
560 6.1922
565 5.52698
570 4.75479
575 3.2115
580 2.86096
585 1.9043
590 4.59938
595 1.01897
600 0.115955
Ex : 218
200 5.40645
205 4.35899
210 4.33812
215 5.83911
220 3.93092
225 5.84868
230 4.88101
235 2.54812
240 4.61247
245 4.04251
250 3.9224
255 5.19755
260 5.67033
265 4.06729
270 5.94225
275 4.36872
280 4.57145
285 4.80353
290 8.06274
295 2.31737
300 2.94643
305 1.6646
310 3.85764
315 4.64706
320 3.73749
325 2.78261
330 3.76364
335 5.04226
340 3.63029
345 2.47688
350 2.4726
355 3.0536
360 5.19621
365 3.36551
370 4.78406
375 5.06691
380 3.6601
385 3.10213
390 3.08252
395 6.05258
400 6.04844
405 4.14448
410 3.10914
415 3.88741
420 1.90779
425 3.00146
430 2.52172
435 3.38582
440 3.82006
445 4.41969
450 2.97409
455 6.43182
460 5.62091
465 2.5143
470 4.22872
475 2.28565
480 1.8322
485 6.1784
490 2.97038
495 2.77036
500 3.27801
505 5.35292
510 5.37385
515 2.54782
520 3.50736
525 5.95267
530 7.51985
535 4.91846
540 2.09654
545 4.53613
550 3.7088
555 4.47326
560 5.41807
565 3.90736
570 2.25607
575 7.24857
580 5.23256
585 3.79852
590 4.96174
595 4.35007
600 5.45776
Ex : 223
200 1.29487
205 3.91372
210 1.95034
215 2.35093
220 5.64724
225 2.69603
230 4.41811
235 3.65069
240 4.63892
245 2.3003
250 3.60764
255 3.63958
260 2.7082
265 5.77311
270 1.71056
275 3.4057
280 2.24105
285 2.87581
290 1.27401
295 3.62724
300 5.57135
305 2.15804
310 5.56855
315 6.92692
320 3.69844
325 3.73046
330 3.3802
335 5.27307
340 2.2418
345 4.06633
350 3.38137
355 3.30536
360 5.87963
365 7.86265
370 2.6963
375 2.2185
380 5.42674
385 5.2606
390 3.8498
395 3.43231
400 4.99996
405 3.6902
410 5.50881
415 3.38816
420 2.34112
425 1.69418
430 3.45993
435 3.97263
440 3.97995
445 4.70668
450 2.37797
455 3.77138
460 9.68571
465 5.4571
470 3.39545
475 1.74755
480 2.13744
485 5.07214
490 2.11252
495 3.04491
500 4.05051
505 1.74753
510 6.61498
515 6.10141
520 6.95348
525 4.42531
530 6.33944
535 2.36027
540 3.23857
545 2.03505
550 3.04528
555 5.19764
560 3.62764
565 4.91568
570 4.35501
575 3.78415
580 3.97544
585 4.80336
590 2.07574
595 4.07833
600 0.464099
Ex : 228
200 2.08982
205 1.07568
210 4.93323
215 4.35863
220 5.4206
225 5.90279
230 1.80801
235 3.35437
240 3.27912
245 5.76518
250 6.59221
255 6.70836
260 4.89717
265 7.99739
270 4.98451
275 3.67636
280 5.82472
285 3.32657
290 2.30336
295 2.8995
300 3.55707
305 6.23938
310 4.05569
315 3.18751
320 2.10967
325 3.8318
330 6.24013
335 4.52884
340 4.04346
345 5.76717
350 5.17483
355 3.82674
360 7.2347
365 5.8385
370 3.2034
375 3.98003
380 3.87568
385 5.3014
390 4.22612
395 2.33481
400 3.71028
405 2.66657
410 2.37502
415 1.92207
420 1.46047
425 5.31621
430 1.63969
435 3.80479
440 5.28349
445 5.18615
450 2.74928
455 3.32261
460 6.52814
465 4.01944
470 3.3953
475 1.91802
480 2.24387
485 4.21198
490 3.55037
495 3.12318
500 3.22155
505 1.65749
510 2.14947
515 4.50978
520 2.15975
525 6.43846
530 2.5952
535 3.3675
540 5.02906
545 6.04174
550 4.78122
555 2.56969
560 2.97213
565 4.08913
570 1.6573
575 6.85648
580 3.31457
585 3.78403
590 4.76942
595 6.14884
600 2.69367
Ex : 233
200 3.92553
205 7.18483
210 4.36706
215 4.19634
220 3.89964
225 2.0503
230 1.83147
235 3.48093
240 3.70012
245 3.86132
250 4.31206
255 4.7203
260 6.11677
265 3.00399
270 2.68768
275 3.47484
280 3.0688
285 2.94003
290 5.08406
295 3.79394
300 2.84141
305 2.14706
310 5.794
315 3.14361
320 3.65284
325 5.03728
330 2.77016
335 4.59314
340 3.42962
345 3.75508
350 2.215
355 3.1553
360 1.85482
365 1.54275
370 2.38356
375 4.01453
380 3.12035
385 4.89743
390 2.42657
395 4.93208
400 11.6725
405 2.91797
410 3.66144
415 6.04746
420 3.56222
425 2.44973
430 4.4755
435 5.12415
440 1.92752
445 2.59417
450 3.44933
455 2.28955
460 2.01368
465 4.07586
470 4.24132
475 2.93137
480 4.50127
485 2.82489
490 3.40057
495 2.90639
500 1.82204
505 3.09941
510 3.75653
515 2.41796
520 4.71619
525 4.63056
530 5.24367
535 3.36952
540 2.73381
545 5.8005
550 4.75998
555 6.66588
560 5.51742
565 2.91926
570 3.38468
575 1.2014
580 4.5156
585 6.62036
590 2.71235
595 1.46793
600 0.167045
Ex : 238
200 2.67686
205 6.55085
210 4.21679
215 2.3469
220 3.63032
225 4.24748
230 1.84641
235 3.75059
240 3.24617
245 1.54818
250 4.63632
255 2.31747
260 2.80694
265 2.19582
270 2.688
275 1.93701
280 0.755657
285 4.37407
290 4.64484
295 2.98978
300 2.01659
305 6.59007
310 2.92595
315 1.77911
320 1.17597
325 2.02295
330 4.12303
335 1.89769
340 2.37933
345 4.26889
350 3.6694
355 3.88181
360 3.45398
365 4.6485
370 1.83046
375 2.20002
380 2.61916
385 5.05533
390 1.19694
395 2.79074
400 2.21721
405 3.5528
410 3.79673
415 2.6496
420 4.13886
425 4.07458
430 3.0568
435 2.5696
440 1.6196
445 3.39236
450 1.1872
455 3.57815
460 4.22171
465 3.19065
470 2.46565
475 2.52447
480 1.84223
485 4.71487
490 3.04334
495 2.90508
500 3.54308
505 2.29155
510 2.95267
515 2.57483
520 3.28291
525 4.5483
530 3.87813
535 2.10947
540 3.18043
545 3.89857
550 4.07968
555 2.52612
560 1.51166
565 1.77621
570 3.90519
575 2.33144
580 5.14955
585 5.13547
590 2.1426
595 2.48105
600 0.282334
Ex : 243
200 1.71721
205 5.2502
210 2.07446
215 1.59779
220 3.26612
225 1.70836
230 1.46591
235 1.58549
240 1.56402
245 0.545979
250 4.16172
255 2.20555
260 2.88342
265 2.12762
270 2.30225
275 3.29688
280 2.83122
285 2.03802
290 1.91571
295 5.54267
300 3.02497
305 3.12891
310 2.49251
315 3.69607
320 4.02476
325 2.14477
330 1.1672
335 4.41856
340 2.1714
345 4.35682
350 4.49434
355 1.34777
360 2.00503
365 2.00818
370 2.18832
375 4.85874
380 2.21854
385 1.96806
390 2.88257
395 4.3061
400 2.95454
405 1.22613
410 3.64286
415 3.72351
420 2.82016
425 2.44427
430 2.9253
435 2.03051
440 1.33199
445 1.18001
450 2.07122
455 1.69622
460 2.28402
465 3.20299
470 6.17363
475 3.76683
480 3.17625
485 1.90315
490 1.42965
495 1.42486
500 1.76592
505 5.38469
510 2.08356
515 1.08728
520 2.13037
525 1.15042
530 1.09835
535 2.23971
540 2.59188
545 2.02948
550 2.06243
555 1.3616
560 1.58041
565 1.96727
570 3.50718
575 2.39578
580 1.73712
585 2.9909
590 2.49416
595 1.81722
600 0.206792
Ex : 248
200 1.00685
205 2.17286
210 1.12711
215 1.64702
220 1.71699
225 1.63783
230 3.15391
235 3.29203
240 1.80972
245 2.01592
250 2.3005
255 2.15277
260 1.76144
265 2.45995
270 1.0538
275 2.12141
280 1.10592
285 3.11961
290 2.43758
295 1.75844
300 1.77628
305 1.84017
310 1.67797
315 2.84956
320 2.28879
325 2.90021
330 1.66554
335 2.53389
340 1.19026
345 2.08956
350 1.48596
355 2.59266
360 3.37312
365 1.75564
370 2.99133
375 2.54976
380 1.8277
385 2.07025
390 2.44784
395 2.74634
400 4.3187
405 2.89976
410 2.84036
415 1.68373
420 1.9987
425 2.86219
430 2.14866
435 0.873528
440 3.40702
445 1.61569
450 2.26689
455 1.64185
460 1.57988
465 2.11664
470 1.67336
475 2.71843
480 2.06668
485 3.6427
490 3.11947
495 2.06232
500 2.49163
505 1.74246
510 3.1513
515 1.59228
520 0.992463
525 1.67229
530 3.11633
535 1.43645
540 2.67123
545 3.4239
550 1.54679
555 0.529839
560 1.96516
565 2.76208
570 1.39358
575 3.04907
580 1.77782
585 1.60125
590 1.53961
595 1.83296
600 0.208584
Ex : 253
200 2.31667
205 3.32506
210 1.60011
215 0.562633
220 0.960594
225 1.68706
230 2.18342
235 1.61575
240 1.2981
245 2.54149
250 2.21476
255 2.08591
260 1.91862
265 1.33651
270 1.19781
275 1.22229
280 0.872502
285 1.94809
290 1.89923
295 2.48369
300 2.68438
305 1.16445
310 1.01616
315 2.8834
320 3.66924
325 1.57403
330 1.68695
335 2.34343
340 1.67447
345 0.788103
350 1.35605
355 1.24103
360 1.61651
365 1.18155
370 2.80861
375 2.20685
380 1.51825
385 0.904636
390 2.06008
395 4.86022
400 1.51417
405 2.55978
410 1.50881
415 1.17887
420 1.45344
425 0.863845
430 1.51158
435 3.36803
440 2.24896
445 2.28467
450 1.26079
455 2.10125
460 1.66531
465 2.13718
470 2.11493
475 1.30668
480 1.57169
485 2.30625
490 1.37784
495 2.62938
500 2.15034
505 1.71916
510 3.30366
515 1.50112
520 2.44963
525 2.66059
530 2.42276
535 5.1714
540 1.32314
545 2.39097
550 1.75814
555 1.79322
560 2.99806
565 1.49553
570 0.61691
575 0.357282
580 0.931999
585 2.08054
590 2.62429
595 0.585498
600 0.0666275
Ex : 258
200 1.1674
205 1.55359
210 2.11625
215 1.58913
220 1.22378
225 0.691883
230 2.15261
235 1.6931
240 1.01221
245 0.74904
250 1.01924
255 0.983896
260 1.62768
265 0.627339
270 0.951481
275 1.1629
280 1.86716
285 0.725752
290 1.26157
295 1.24621
300 0.605057
305 1.365
310 1.21919
315 1.19726
320 2.28789
325 1.38733
330 1.54796
335 0.903663
340 1.54812
345 0.820682
350 1.7597
355 1.61778
360 1.33738
365 2.31499
370 2.31151
375 2.06953
380 1.82295
385 1.48974
390 2.22464
395 2.20042
400 2.27256
405 1.17295
410 1.28654
415 2.39184
420 1.51738
425 2.2267
430 2.89981
435 1.50133
440 1.58797
445 1.39924
450 1.2827
455 1.34566
460 1.77316
465 0.629056
470 1.55603
475 1.49928
480 1.86137
485 1.49031
490 1.1141
495 1.21367
500 2.33638
505 2.49594
510 2.3326
515 2.66703
520 1.76068
525 1.36222
530 0.911078
535 0.570731
540 0.588708
545 0.555389
550 0.86602
555 1.30719
560 2.13246
565 1.18875
570 2.19182
575 1.84779
580 1.6773
585 1.09108
590 1.28768
595 2.33467
600 0.930329
Ex : 263
200 0.493127
205 1.0531
210 1.31974
215 0.862227
220 2.608
225 0.851233
230 0.631038
235 1.00768
240 0.75592
245 1.3233
250 0.618565
255 0.727242
260 1.50037
265 1.20596
270 1.89095
275 1.04037
280 1.24699
285 0.973499
290 1.02463
295 1.05712
300 1.191
305 1.53253
310 0.837123
315 1.0518
320 1.14199
325 0.414472
330 0.646611
335 1.59704
340 1.0288
345 0.951057
350 0.500711
355 0.944727
360 1.05015
365 1.04015
370 1.38168
375 1.05578
380 1.07297
385 1.54003
390 0.635759
395 1.44251
400 1.90594
405 1.49627
410 1.20132
415 1.44742
420 0.981074
425 2.14413
430 1.22231
435 0.991332
440 1.21676
445 1.7448
450 1.06404
455 1.60324
460 0.684268
465 0.957863
470 0.900862
475 1.65025
480 0.869967
485 1.43613
490 1.44543
495 1.82828
500 1.67294
505 0.786828
510 1.51396
515 1.36268
520 2.67807
525 1.02404
530 1.18669
535 1.00411
540 0.997386
545 0.99357
550 1.06092
555 0.763691
560 0.381797
565 1.01078
570 0.669864
575 1.39562
580 1.04502
585 1.16653
590 1.13146
595 1.12303
600 0.127797
Ex : 268
200 1.03619
205 0.500945
210 0.554056
215 0.969891
220 0.517052
225 0.64639
230 1.73473
235 1.06013
240 1.13755
245 0.697403
250 0.29563
255 1.03001
260 0.435765
265 0.231248
270 0.5551
275 1.57782
280 0.778501
285 0.823124
290 0.909654
295 0.44672
300 1.03186
305 1.29578
310 0.852501
315 1.39946
320 0.959656
325 0.510278
330 0.347741
335 0.872628
340 0.691325
345 0.696178
350 0.490631
355 1.3265
360 1.41342
365 1.35874
370 1.59818
375 0.974466
380 1.29573
385 0.649672
390 1.11513
395 0.973313
400 0.91718
405 1.41055
410 1.0381
415 1.2271
420 0.86128
425 1.30203
430 1.52281
435 0.871252
440 1.83771
445 1.48838
450 0.600267
455 0.86491
460 0.410484
465 1.14871
470 0.668553
475 0.903442
480 0.681454
485 0.845106
490 1.68008
495 1.29589
500 0.622348
505 0.692997
510 1.03725
515 0.736094
520 1.19243
525 0.553316
530 1.1446
535 1.26425
540 1.07019
545 0.841057
550 1.09238
555 0.589839
560 0.737207
565 0.888423
570 1.99037
575 1.19035
580 1.76813
585 0.902633
590 1.11044
595 1.0671
600 0.121432
Ex : 273
200 0.552954
205 0.944171
210 0.62944
215 0.644208
220 0.387481
225 0.571131
230 0.398553
235 1.04121
240 0.384249
245 0.555266
250 0.55045
255 0.880673
260 0.544811
265 1.70341
270 1.55979
275 0.67093
280 0.621404
285 0.464691
290 0.973547
295 0.673298
300 0.535406
305 0.797112
310 0.980807
315 0.497175
320 0.46994
325 0.999158
330 0.387885
335 0.419929
340 0.862004
345 0.591413
350 0.926237
355 1.03009
360 0.662879
365 0.533404
370 0.644249
375 0.766602
380 0.233782
385 0.712987
390 0.737619
395 1.03936
400 0.973005
405 0.582777
410 0.784516
415 0.762152
420 0.732858
425 0.680837
430 0.977344
435 0.691564
440 0.542668
445 1.27451
450 0.796244
455 0.87714
460 1.10034
465 0.816453
470 0.875543
475 0.501923
480 0.806147
485 1.042
490 1.68717
495 1.67451
500 0.971581
505 1.04925
510 0.99188
515 0.854187
520 0.423129
525 0.354799
530 0.537754
535 0.622489
540 0.723726
545 0.756945
550 0.592398
555 0.426344
560 0.478846
565 1.29458
570 0.524962
575 0.689691
580 0.669946
585 0.818198
590 0.664852
595 0.890569
600 0.396745
Ex : 278
200 0.490532
205 0.811771
210 0.402266
215 0.594416
220 0.701799
225 0.437228
230 0.366429
235 0.906974
240 0.385698
245 0.660625
250 0.360633
255 0.176398
260 0.781403
265 0.362093
270 0.582197
275 0.711648
280 0.569283
285 0.4351
290 0.518632
295 1.06064
300 0.3868
305 0.360288
310 0.492085
315 1.02986
320 0.647131
325 1.14709
330 0.714152
335 0.661358
340 0.37173
345 0.537675
350 0.885242
355 0.871034
360 0.788568
365 0.399306
370 0.674644
375 1.17027
380 0.731439
385 0.85483
390 1.0717
395 0.593102
400 0.807203
405 0.958778
410 0.629356
415 0.678303
420 0.708819
425 0.942892
430 0.934367
435 0.591475
440 0.835669
445 1.04874
450 0.643994
455 0.364915
460 0.589626
465 0.517066
470 0.405228
475 0.640171
480 0.450128
485 0.459428
490 0.384407
495 0.404436
500 1.2782
505 0.829372
510 1.01891
515 0.631689
520 0.540766
525 0.82642
530 0.48755
535 0.289452
540 0.279638
545 0.885829
550 1.11978
555 0.722495
560 0.713821
565 0.227857
570 0.68957
575 0.488588
580 0.569375
585 0.623696
590 0.701235
595 0.702557
600 0.216287
Ex : 283
200 0.651627
205 0.54437
210 0.58083
215 0.281479
220 0.264478
225 0.16395
230 0.327133
235 0.476661
240 0.436951
245 0.534376
250 0.434708
255 0.574846
260 0.28597
265 0.286216
270 0.741796
275 0.409662
280 0.493344
285 0.59251
290 0.385533
295 0.203679
300 0.576469
305 0.842519
310 0.405746
315 0.699095
320 0.567734
325 0.568814
330 0.369171
335 0.372594
340 0.385532
345 0.62811
350 0.590836
355 0.289616
360 0.573325
365 0.50401
370 0.68511
375 0.486162
380 0.760453
385 1.13837
390 0.931978
395 0.736801
400 0.712268
405 0.625341
410 0.407627
415 0.649323
420 0.90483
425 1.01085
430 0.712734
435 0.43439
440 0.302255
445 0.951916
450 1.00322
455 0.633866
460 0.476107
465 0.53997
470 0.507865
475 0.622994
480 0.914028
485 0.699026
490 0.885858
495 0.56803
500 0.587592
505 0.608361
510 0.406199
515 0.698236
520 0.385588
525 0.383092
530 0.468706
535 0.400461
540 0.817787
545 0.420871
550 0.261988
555 0.695638
560 0.817885
565 1.0035
570 0.42361
575 0.373124
580 0.527364
585 0.659192
590 0.613634
595 0.672395
600 0.0765159
Ex : 288
200 0.159483
205 0.587063
210 0.246479
215 0.199196
220 0.278966
225 0.382592
230 0.608903
235 0.32368
240 0.104792
245 0.226196
250 0.324436
255 0.366605
260 0.477584
265 0.399013
270 0.401754
275 0.381292
280 0.597406
285 0.76163
290 0.330115
295 0.549496
300 0.785894
305 0.360232
310 0.313542
315 0.336613
320 0.255572
325 0.648045
330 0.626365
335 0.571788
340 0.340441
345 0.747041
350 0.666146
355 0.816963
360 0.808726
365 0.594397
370 0.625251
375 0.593897
380 0.489742
385 0.41527
390 0.510562
395 0.359232
400 0.719544
405 0.605921
410 0.497038
415 0.509852
420 0.53964
425 0.487998
430 0.632374
435 0.438062
440 0.54445
445 0.702981
450 0.7372
455 0.621287
460 0.289359
465 0.502676
470 0.507891
475 0.554314
480 0.212062
485 0.448714
490 0.480471
495 0.212297
500 0.429597
505 0.403588
510 0.37181
515 0.297872
520 0.464529
525 0.488509
530 0.374244
535 0.441933
540 0.572429
545 0.465361
550 0.437274
555 0.618394
560 0.962089
565 0.42973
570 0.984676
575 0.792648
580 0.485687
585 0.401801
590 0.558468
595 0.466371
600 0.0530713
Ex : 293
200 0.21376
205 0.310272
210 0.158301
215 0.222595
220 0.446337
225 0.403392
230 0.406378
235 0.208481
240 0.18554
245 0.233012
250 0.214355
255 0.22694
260 0.213309
265 0.327981
270 0.554828
275 0.311125
280 0.16382
285 0.77006
290 0.650685
295 0.303819
300 0.33266
305 0.225996
310 0.568783
315 0.228785
320 0.203556
325 0.363685
330 0.431278
335 0.584002
340 0.442294
345 0.554583
350 0.385493
355 0.406233
360 0.33488
365 0.391095
370 0.645489
375 0.442035
380 0.366736
385 0.414072
390 0.389861
395 0.638305
400 0.58501
405 0.80008
410 0.851181
415 0.526764
420 0.490587
425 0.323012
430 0.405254
435 0.32361
440 0.504583
445 0.531937
450 0.466355
455 0.494996
460 0.351888
465 0.616171
470 0.536764
475 0.694217
480 0.443934
485 0.287215
490 0.409832
495 0.615634
500 0.369705
505 0.353605
510 0.440353
515 0.44689
520 0.406561
525 0.399809
530 0.298562
535 0.39025
540 0.315965
545 0.174543
550 0.519881
555 0.375628
560 0.333582
565 0.217373
570 0.279284
575 0.381303
580 0.672963
585 0.705117
590 0.246905
595 0.172735
600 0.0196566
Ex : 298
200 0.307026
205 0.398761
210 0.231109
215 0.222154
220 0.138136
225 0.312472
230 0.291518
235 0.492958
240 0.416946
245 0.34393
250 0.332647
255 0.2155
260 0.366128
265 0.386796
270 0.16339
275 0.369823
280 0.1919
285 0.332685
290 0.252696
295 0.339089
300 0.244378
305 0.454079
310 0.158572
315 0.22637
320 0.307771
325 0.292945
330 0.627706
335 0.357104
340 0.294598
345 0.352279
350 0.486445
355 0.375715
360 0.409797
365 0.207056
370 0.454875
375 0.338643
380 0.593694
385 0.448171
390 0.327509
395 0.876916
400 0.528981
405 0.613665
410 0.622746
415 0.688066
420 0.784729
425 0.39383
430 0.320625
435 0.383771
440 0.989336
445 0.401255
450 0.406753
455 0.379835
460 0.385824
465 0.547913
470 0.309265
475 0.285285
480 0.319441
485 0.633299
490 0.40271
495 0.249271
500 0.627484
505 0.380357
510 0.543099
515 0.538676
520 0.240645
525 0.54144
530 0.411603
535 0.461056
540 0.596032
545 0.215931
550 0.206858
555 0.431558
560 0.435247
565 0.448097
570 0.303607
575 0.445797
580 0.268223
585 0.669518
590 0.779699
595 0.514512
600 1.30264
Ex : 303
200 0.213333
205 0.0817996
210 0.183949
215 0.292876
220 0.283355
225 0.245046
230 0.232664
235 0.219068
240 0.255883
245 0.322993
250 0.150877
255 0.146008
260 0.244757
265 0.320663
270 0.128701
275 0.188889
280 0.143621
285 0.198777
290 0.430661
295 0.368055
300 0.411893
305 0.339695
310 0.409714
315 0.145559
320 0.337015
325 0.225435
330 0.222234
335 0.376763
340 0.225781
345 0.256219
350 0.160302
355 0.431189
360 0.562464
365 0.473941
370 0.311115
375 0.496778
380 0.386094
385 0.394542
390 0.406505
395 0.494992
400 0.576529
405 0.409481
410 0.524699
415 0.501403
420 0.516311
425 0.522906
430 0.326284
435 0.297902
440 0.503358
445 0.710569
450 0.399246
455 0.475054
460 0.353908
465 0.414058
470 0.486343
475 0.620863
480 0.308789
485 0.426531
490 0.192132
495 0.130162
500 0.228931
505 0.1508
510 0.203656
515 0.237596
520 0.516296
525 0.272176
530 0.137971
535 0.323059
540 0.213724
545 0.156054
550 0.447401
555 0.140868
560 0.107377
565 0.169978
570 0.226976
575 0.352082
580 0.117188
585 0.274711
590 0.206527
595 0.267007
600 4.6302
Ex : 308
200 0.104974
205 0.0956597
210 0.203137
215 0.178379
220 0.186115
225 0.13604
230 0.240603
235 0.169877
240 0.110052
245 0.36029
250 0.324425
255 0.287696
260 0.158323
265 0.230189
270 0.186821
275 0.333678
280 0.180308
285 0.172907
290 0.11739
295 0.260072
300 0.475306
305 0.422132
310 0.34973
315 0.276345
320 0.271218
325 0.331902
330 0.415429
335 0.439837
340 0.20002
345 0.187123
350 0.226086
355 0.381013
360 0.219366
365 0.301382
370 0.388221
375 0.336708
380 0.700973
385 0.446569
390 0.434563
395 0.57552
400 0.412617
405 0.615474
410 0.675438
415 0.64617
420 0.345808
425 0.47336
430 0.289628
435 0.617548
440 0.426421
445 0.361774
450 0.363034
455 0.386188
460 0.341696
465 0.340908
470 0.412438
475 0.492807
480 0.412223
485 0.355935
490 0.323917
495 0.211887
500 0.395766
505 0.252798
510 0.249315
515 0.278145
520 0.360454
525 0.433247
530 0.237882
535 0.419122
540 0.343814
545 0.324789
550 0.195935
555 0.392646
560 0.158723
565 0.155374
570 0.0837046
575 0.221363
580 0.439487
585 0.319472
590 0.23127
595 0.0723743
600 0.337397
Ex : 313
200 0.223366
205 0.207809
210 0.313543
215 0.300043
220 0.13103
225 0.132857
230 0.189867
235 0.187668
240 0.248913
245 0.30032
250 0.238581
255 0.315361
260 0.297456
265 0.171243
270 0.232176
275 0.0838201
280 0.245411
285 0.153647
290 0.152295
295 0.539616
300 0.223507
305 0.234862
310 0.422465
315 0.231335
320 0.151184
325 0.190096
330 0.379309
335 0.27792
340 0.293107
345 0.231662
350 0.300496
355 0.460906
360 0.499582
365 0.707573
370 0.712226
375 0.698022
380 0.80419
385 1.19613
390 0.908992
395 0.866
400 1.16619
405 1.05801
410 0.903435
415 0.804228
420 1.05804
425 0.909483
430 0.759297
435 0.890483
440 0.69975
445 0.612258
450 0.443985
455 0.727477
460 0.722446
465 0.571226
470 0.702736
475 0.481455
480 0.361323
485 0.508339
490 0.266286
495 0.390046
500 0.310004
505 0.325978
510 0.330975
515 0.342464
520 0.228834
525 0.268695
530 0.265808
535 0.276639
540 0.387201
545 0.368896
550 0.33738
555 0.210808
560 0.41073
565 0.244864
570 0.145255
575 0.1632
580 0.138395
585 0.152646
590 0.146336
595 0.240088
600 0.326415
Ex : 318
200 0.191506
205 0.230495
210 0.120195
215 0.221356
220 0.101333
225 0.318551
230 0.169628
235 0.119781
240 0.168087
245 0.191412
250 0.104231
255 0.353376
260 0.199397
265 0.23197
270 0.17827
275 0.16882
280 0.220828
285 0.157773
290 0.171994
295 0.111985
300 0.0969388
305 0.165967
310 0.265014
315 1.08206
320 0.559445
325 0.269166
330 0.495965
335 0.578632
340 0.998553
345 1.42632
350 2.00387
355 2.96595
360 3.60653
365 4.9413
370 5.71281
375 6.56794
380 7.22761
385 8.15689
390 8.91891
395 9.35497
400 9.82635
405 10.7055
410 10.4037
415 10.2885
420 10.0445
425 9.83527
430 8.88585
435 8.96282
440 8.77679
445 7.72335
450 7.32901
455 7.51051
460 6.36985
465 6.09739
470 5.2882
475 4.79249
480 4.44997
485 4.01734
490 3.55958
495 3.29152
500 3.05845
505 2.28804
510 1.78701
515 1.47254
520 1.5237
525 1.46815
530 1.09365
535 0.853205
540 0.708424
545 0.799625
550 0.535289
555 0.573604
560 0.816922
565 0.336365
570 0.25592
575 0.247983
580 0.39931
585 0.253762
590 0.136623
595 0.165073
600 0.107405
Ex : 323
200 0.0612053
205 0.131812
210 0.194788
215 0.178617
220 0.288115
225 0.118575
230 0.0984283
235 0.0751558
240 0.142749
245 0.156127
250 0.0749001
255 0.098056
260 0.141152
265 0.113396
270 0.233133
275 0.188178
280 0.185518
285 0.126344
290 0.29814
295 0.104382
300 0.0753459
305 0.121441
310 0.122469
315 7.4378
320 35.4575
325 14.9476
330 3.26874
335 2.95744
340 3.83092
345 6.12885
350 8.72442
355 11.7827
360 15.3245
365 17.5879
370 20.5367
375 24.0557
380 28.2814
385 31.778
390 35.0169
395 35.715
400 37.8802
405 38.2675
410 37.5516
415 38.0326
420 36.945
425 34.9723
430 33.5727
435 31.5605
440 31.7987
445 30.2087
450 27.7459
455 26.1284
460 23.9658
465 22.7092
470 20.5562
475 18.2432
480 16.7793
485 15.843
490 14.3642
495 12.5187
500 10.9692
505 9.42855
510 8.0941
515 7.01816
520 5.9409
525 5.26276
530 4.3959
535 3.76265
540 3.22473
545 2.75422
550 2.02295
555 1.9401
560 1.53423
565 0.938523
570 0.753381
575 0.58389
580 0.426097
585 0.421716
590 0.378528
595 0.589705
600 0.279795
Ex : 328
200 0.101477
205 0.0579288
210 0.0791222
215 0.0845185
220 0.0996823
225 0.115252
230 0.106964
235 0.138773
240 0.141902
245 0.0752794
250 0.184745
255 0.101378
260 0.115538
265 0.155689
270 0.194538
275 0.194745
280 0.127109
285 0.26536
290 0.218226
295 0.0835966
300 0.130005
305 0.0529925
310 0.17941
315 1.87794
320 77.901
325 189.558
330 55.7587
335 10.0512
340 5.85853
345 7.03645
350 9.32225
355 13.0645
360 18.6688
365 21.4444
370 22.7843
375 25.881
380 28.7071
385 32.7912
390 35.3578
395 37.7566
400 38.423
405 38.7729
410 38.6427
415 38.6716
420 36.94
425 35.7697
430 34.9886
435 32.9487
440 31.9029
445 29.2362
450 27.2276
455 26.1961
460 23.956
465 22.317
470 20.2355
475 19.0061
480 17.2718
485 15.2695
490 13.9139
495 12.7617
500 11.0951
505 9.82544
510 8.25809
515 7.29934
520 6.38865
525 5.37981
530 4.46894
535 3.95669
540 3.18581
545 2.70768
550 2.55789
555 1.94754
560 1.88389
565 1.69279
570 0.973982
575 0.65823
580 0.685586
585 0.72279
590 0.406841
595 0.374689
600 0.0426382
Ex : 333
200 0.113628
205 0.0694745
210 0.120787
215 0.0903803
220 0.0459675
225 0.189821
230 0.0770753
235 0.176338
240 0.108495
245 0.101105
250 0.213111
255 0.08973
260 0.139904
265 0.0782046
270 0.114643
275 0.103387
280 0.218477
285 0.132307
290 0.205662
295 0.179417
300 0.249299
305 0.183312
310 0.306318
315 0.234354
320 10.349
325 216.592
330 369.565
335 95.8553
340 14.4284
345 6.01237
350 5.43537
355 6.46295
360 9.48878
365 14.1947
370 15.1426
375 14.992
380 15.8177
385 19.1196
390 21.0681
395 22.6337
400 22.8465
405 23.5234
410 23.0257
415 23.8166
420 22.3255
425 21.021
430 19.8566
435 18.5057
440 18.0336
445 16.3859
450 15.5057
455 14.6925
460 13.3037
465 12.3037
470 11.3266
475 10.6161
480 9.74672
485 8.39845
490 7.95788
495 7.08962
500 6.23672
505 5.03954
510 4.59599
515 4.3239
520 3.60441
525 3.03882
530 2.65375
535 2.21999
540 1.99308
545 1.7553
550 1.3511
555 1.26245
560 1.00842
565 0.870258
570 0.646535
575 0.625828
580 0.526027
585 0.360854
590 0.368646
595 0.27885
600 0.031732
Ex : 338
200 0.110858
205 0.174798
210 0.0978862
215 0.148316
220 0.111621
225 0.100338
230 0.151262
235 0.153588
240 0.188577
245 0.158477
250 0.12879
255 0.162619
260 0.12828
265 0.110573
270 0.111488
275 0.0792385
280 0.221185
285 0.159634
290 0.132418
295 0.143291
300 0.169881
305 0.227776
310 0.233959
315 0.198985
320 0.234012
325 20.0936
330 319.698
335 473.272
340 118.526
345 16.4067
350 5.05458
355 3.51657
360 3.7573
365 5.27206
370 9.92397
375 10.0765
380 9.32183
385 10.31
390 12.6948
395 13.7681
400 13.1488
405 13.3937
410 14.3083
415 14.3649
420 13.8646
425 12.7754
430 11.7636
435 11.1626
440 10.3888
445 10.2434
450 9.29464
455 8.13239
460 7.74283
465 7.29896
470 6.24777
475 6.26731
480 5.39713
485 5.14413
490 4.67005
495 3.87797
500 3.79353
505 3.42206
510 3.09818
515 2.7021
520 2.12895
525 1.8939
530 1.6413
535 1.70092
540 1.28419
545 1.33488
550 1.01561
555 0.916919
560 0.818713
565 0.678186
570 0.552783
575 0.625476
580 0.451675
585 0.437188
590 0.323887
595 0.330538
600 0.037614
Ex : 343
200 0.0747962
205 0.0692518
210 0.123448
215 0.124501
220 0.0971058
225 0.0687685
230 0.0624437
235 0.066043
240 0.178136
245 0.11786
250 0.120813
255 0.112295
260 0.125568
265 0.128462
270 0.155013
275 0.127541
280 0.0785835
285 0.102501
290 0.0712143
295 0.148446
300 0.145024
305 0.18384
310 0.0926421
315 0.266695
320 0.285156
325 0.39915
330 24.335
335 368.97
340 542.181
345 130.757
350 17.5041
355 4.73445
360 3.15681
365 2.34181
370 3.18726
375 6.96401
380 8.86612
385 9.3058
390 9.9065
395 10.7319
400 9.93422
405 10.507
410 11.8497
415 12.1158
420 11.9682
425 10.8293
430 9.73868
435 9.28145
440 9.05961
445 8.85612
450 7.94863
455 7.17994
460 6.63984
465 6.12051
470 5.90074
475 5.36779
480 4.92912
485 4.35918
490 4.11448
495 3.69982
500 3.3845
505 3.03499
510 2.69933
515 2.19223
520 1.98408
525 1.77811
530 1.62542
535 1.27227
540 1.13304
545 1.05979
550 0.933662
555 0.878343
560 0.654115
565 0.761312
570 0.637568
575 0.528569
580 0.424172
585 0.28062
590 0.36029
595 0.337116
600 0.49344
Ex : 348
200 0.109329
205 0.130811
210 0.192205
215 0.163559
220 0.0932429
225 0.043028
230 0.0946135
235 0.115451
240 0.0881101
245 0.0828814
250 0.115665
255 0.0746033
260 0.0878196
265 0.0678411
270 0.0580711
275 0.122629
280 0.151298
285 0.0743404
290 0.0873095
295 0.0853041
300 0.216774
305 0.172369
310 0.136151
315 0.148126
320 0.12699
325 0.262793
330 0.58418
335 23.568
340 372.114
345 565.87
350 144.446
355 18.6568
360 4.36854
365 2.63961
370 1.8489
375 2.44081
380 6.8771
385 12.1369
390 13.9257
395 13.423
400 11.8675
405 11.4783
410 13.642
415 14.8143
420 13.8889
425 12.1284
430 11.2875
435 10.8804
440 10.8138
445 10.6968
450 9.22152
455 8.04311
460 7.31099
465 7.06091
470 6.57584
475 5.82196
480 5.35672
485 4.93941
490 4.39459
495 4.09409
500 3.39699
505 3.16306
510 2.98175
515 2.5778
520 1.98244
525 1.86798
530 1.65687
535 1.49656
540 1.39904
545 1.25373
550 1.0294
555 0.828246
560 0.692138
565 0.581172
570 0.505319
575 0.407503
580 0.406851
585 0.339453
590 0.273482
595 0.268992
600 0.118137
Ex : 353
200 0.203193
205 0.123864
210 0.0348827
215 0.17085
220 0.0591685
225 0.0715478
230 0.0919951
235 0.139661
240 0.19839
245 0.0813722
250 0.108862
255 0.114417
260 0.110944
265 0.093355
270 0.116992
275 0.0688149
280 0.138424
285 0.136937
290 0.0952635
295 0.0948031
300 0.101004
305 0.147382
310 0.216228
315 0.18841
320 0.185981
325 0.139042
330 0.406159
335 0.575451
340 25.0173
345 391.108
350 580.228
355 144.032
360 18.1734
365 3.88234
370 2.39708
375 1.91325
380 3.14761
385 8.94398
390 15.7926
395 16.6847
400 14.2722
405 13.187
410 14.6064
415 16.9593
420 15.5738
425 13.503
430 12.3351
435 12.081
440 12.0728
445 11.2067
450 9.85794
455 8.95007
460 8.12013
465 7.57081
470 6.94424
475 6.25696
480 5.77138
485 5.69151
490 5.07796
495 4.24199
500 3.76987
505 3.1353
510 3.10113
515 2.82237
520 2.22917
525 2.12258
530 1.82689
535 1.67417
540 1.63614
545 1.42528
550 1.1242
555 1.09842
560 0.906984
565 0.815
570 0.687043
575 0.510079
580 0.375079
585 0.370623
590 0.404257
595 0.247568
600 0.54642
Ex : 358
200 0.10261
205 0.104285
210 0.162986
215 0.129083
220 0.0666134
225 0.0537757
230 0.083578
235 0.04457
240 0.0988668
245 0.0899766
250 0.130412
255 0.121946
260 0.0514454
265 0.0622716
270 0.121112
275 0.20197
280 0.115452
285 0.12784
290 0.107281
295 0.0856988
300 0.0890868
305 0.0820135
310 0.0971016
315 0.197524
320 0.117984
325 0.129136
330 0.169279
335 0.229279
340 0.473761
345 23.7836
350 380.393
355 584.506
360 145.263
365 18.1945
370 3.88396
375 2.57362
380 3.06053
385 6.0181
390 11.1359
395 16.3976
400 15.0936
405 13.1304
410 13.8274
415 15.2856
420 14.6381
425 12.9448
430 11.6981
435 11.2863
440 11.2388
445 11.0709
450 9.38167
455 8.77355
460 7.99668
465 7.57436
470 6.93468
475 6.74983
480 5.91089
485 5.25838
490 4.84311
495 4.57607
500 4.25438
505 3.8015
510 3.34602
515 2.86381
520 2.40059
525 2.36963
530 1.8717
535 1.53369
540 1.52552
545 1.34027
550 1.19532
555 0.996267
560 0.843638
565 0.858022
570 0.741842
575 0.650821
580 0.495993
585 0.422008
590 0.395643
595 0.316103
600 0.149709
Ex : 363
200 0.0791572
205 0.0675745
210 0.0933424
215 0.0811729
220 0.0881023
225 0.0941785
230 0.0406658
235 0.0388908
240 0.0657766
245 0.0727531
250 0.0819083
255 0.0999781
260 0.105634
265 0.0945712
270 0.111479
275 0.0834133
280 0.12823
285 0.0755166
290 0.0587182
295 0.059135
300 0.0966601
305 0.12261
310 0.126836
315 0.0630737
320 0.0874339
325 0.183758
330 0.214635
335 0.261388
340 0.376159
345 0.719931
350 22.3954
355 374.966
360 584.279
365 152.645
370 19.3429
375 4.17117
380 4.33321
385 8.08179
390 11.1011
395 13.0263
400 15.2844
405 16.6048
410 17.7154
415 17.9297
420 15.9617
425 13.8866
430 12.4578
435 12.5232
440 12.6373
445 11.7152
450 10.2758
455 9.95381
460 8.99136
465 8.31461
470 7.73504
475 7.29199
480 6.34095
485 5.66278
490 5.54897
495 5.13511
500 4.5325
505 4.0731
510 3.36376
515 3.3311
520 2.89231
525 2.51162
530 2.3555
535 2.00914
540 1.68121
545 1.49894
550 1.23444
555 1.22474
560 0.918444
565 0.86668
570 0.683954
575 0.660357
580 0.51014
585 0.350854
590 0.321728
595 0.294251
600 0.0334846
Ex : 368
200 0.162547
205 0.1457
210 0.133009
215 0.0791286
220 0.104361
225 0.0677999
230 0.0746378
235 0.0708509
240 0.0764838
245 0.0453236
250 0.0791882
255 0.103046
260 0.134189
265 0.116624
270 0.143668
275 0.0784831
280 0.0604465
285 0.0745932
290 0.0888093
295 0.122995
300 0.117149
305 0.117266
310 0.117881
315 0.0897042
320 0.093441
325 0.0941529
330 0.122721
335 0.165467
340 0.213594
345 0.319344
350 0.716105
355 18.6946
360 362.462
365 604.809
370 161.761
375 20.7427
380 6.12608
385 9.25618
390 14.3743
395 16.0567
400 15.0168
405 18.1632
410 22.4778
415 23.069
420 21.63
425 17.3521
430 15.4449
435 15.3107
440 15.1586
445 14.9088
450 12.9216
455 11.3077
460 10.4312
465 9.62422
470 8.99331
475 8.23269
480 7.37051
485 6.81608
490 6.11211
495 5.3969
500 5.02862
505 4.3037
510 3.67482
515 3.53385
520 3.16419
525 2.72108
530 2.43203
535 2.12326
540 1.76567
545 1.57655
550 1.23074
555 1.28474
560 1.0503
565 0.983769
570 0.871892
575 0.592101
580 0.518919
585 0.350255
590 0.342818
595 0.301803
600 0.182045
Ex : 373
200 0.028993
205 0.0776856
210 0.0957011
215 0.0648583
220 0.0747343
225 0.121785
230 0.123905
235 0.0995936
240 0.122155
245 0.0408682
250 0.0748848
255 0.103562
260 0.0741581
265 0.0862748
270 0.132364
275 0.0635719
280 0.168913
285 0.0442494
290 0.0812409
295 0.0745441
300 0.0840809
305 0.146564
310 0.082628
315 0.0808437
320 0.0943882
325 0.103056
330 0.114136
335 0.134113
340 0.197126
345 0.252058
350 0.294284
355 0.56716
360 21.6774
365 369.887
370 596.705
375 160.712
380 21.5582
385 9.09287
390 14.1238
395 17.0499
400 15.7068
405 14.7513
410 18.7511
415 24.9637
420 23.3974
425 19.254
430 16.1289
435 14.6268
440 14.9752
445 14.242
450 12.4839
455 10.9036
460 9.65705
465 9.29943
470 8.55725
475 8.34665
480 7.53274
485 6.80488
490 6.0516
495 5.44508
500 4.96647
505 4.61805
510 4.07654
515 3.71031
520 3.40279
525 2.72909
530 2.48443
535 2.35958
540 1.96304
545 1.94529
550 1.51251
555 1.26408
560 1.11618
565 0.926987
570 0.769792
575 0.657641
580 0.510334
585 0.392378
590 0.329061
595 0.265084
600 0.209749
Ex : 378
200 0.0669502
205 0.0749487
210 0.0624256
215 0.149824
220 0.082124
225 0.0458007
230 0.10843
235 0.0852539
240 0.0587245
245 0.0718718
250 0.115172
255 0.134871
260 0.116936
265 0.106703
270 0.0522321
275 0.0837706
280 0.06055
285 0.0256969
290 0.0640083
295 0.073583
300 0.117888
305 0.13455
310 0.0903787
315 0.0646087
320 0.0760067
325 0.111342
330 0.0975271
335 0.133605
340 0.109821
345 0.175334
350 0.184145
355 0.301981
360 0.686277
365 20.9691
370 377.013
375 613.687
380 166.181
385 24.9897
390 12.1298
395 12.5073
400 11.3901
405 10.6557
410 12.6425
415 16.2161
420 18.8072
425 15.9033
430 12.9992
435 11.5334
440 12.0745
445 11.507
450 10.4197
455 9.36075
460 8.81396
465 7.92899
470 7.40071
475 7.2165
480 6.99334
485 6.02357
490 5.51388
495 5.36851
500 4.69179
505 4.30108
510 3.94284
515 3.44493
520 3.04112
525 2.57446
530 2.45735
535 2.01946
540 2.00213
545 1.59132
550 1.34852
555 1.30698
560 1.01081
565 1.03896
570 0.725792
575 0.569301
580 0.560344
585 0.36525
590 0.27311
595 0.218579
600 0.193325
Ex : 383
200 0.0693523
205 0.104569
210 0.0444231
215 0.0808313
220 0.090369
225 0.0536147
230 0.0729988
235 0.120961
240 0.0704524
245 0.0886496
250 0.0724306
255 0.102963
260 0.0592937
265 0.064911
270 0.0568523
275 0.0959521
280 0.0976831
285 0.089977
290 0.0898847
295 0.0498665
300 0.0640117
305 0.0552167
310 0.0667994
315 0.0657735
320 0.0644906
325 0.0805656
330 0.0899917
335 0.164403
340 0.192107
345 0.134525
350 0.163135
355 0.230896
360 0.274221
365 0.598534
370 18.8297
375 367.256
380 642.146
385 178.456
390 29.8957
395 13.2165
400 10.4154
405 11.2231
410 13.0129
415 14.361
420 14.2099
425 14.9783
430 14.4648
435 13.4493
440 12.8227
445 11.4655
450 10.0451
455 8.87175
460 8.02692
465 8.1649
470 7.51186
475 7.20101
480 6.56677
485 6.07885
490 5.7017
495 4.93059
500 4.47528
505 4.15983
510 3.73623
515 3.60651
520 3.13027
525 2.78091
530 2.55116
535 2.24385
540 1.97861
545 1.65256
550 1.46
555 1.29455
560 1.18913
565 0.897173
570 0.790053
575 0.56943
580 0.51949
585 0.391337
590 0.301685
595 0.213954
600 0.0243472
Ex : 388
200 0.0635838
205 0.101026
210 0.0921559
215 0.0525408
220 0.0287332
225 0.0720603
230 0.0638217
235 0.0363595
240 0.0603213
245 0.082105
250 0.0603321
255 0.0787898
260 0.0493692
265 0.0980016
270 0.0732923
275 0.0552154
280 0.0571053
285 0.0385493
290 0.0740038
295 0.0528646
300 0.0680073
305 0.0773884
310 0.0663271
315 0.116128
320 0.096929
325 0.127676
330 0.112383
335 0.126502
340 0.0850629
345 0.124338
350 0.166527
355 0.155109
360 0.195486
365 0.296455
370 0.614086
375 20.5981
380 383.069
385 644.806
390 182.776
395 33.9615
400 15.1741
405 14.1724
410 16.6452
415 18.4852
420 17.7777
425 15.7338
430 15.9128
435 16.582
440 15.7309
445 14.6537
450 12.4058
455 10.7072
460 9.50875
465 9.04887
470 8.42104
475 8.11362
480 7.09015
485 6.77976
490 6.08023
495 5.60803
500 4.99795
505 4.6593
510 4.016
515 3.78325
520 3.22642
525 2.93977
530 2.52817
535 2.2314
540 2.0026
545 1.82713
550 1.60642
555 1.34846
560 1.23082
565 0.91941
570 0.780028
575 0.557737
580 0.55211
585 0.327062
590 0.303136
595 0.282425
600 0.0757777
Ex : 393
200 0.0286934
205 0.0546438
210 0.0369249
215 0.0612432
220 0.0280367
225 0.0854305
230 0.0566483
235 0.0995308
240 0.0662109
245 0.0836216
250 0.0958091
255 0.0559301
260 0.0526384
265 0.0933987
270 0.0621528
275 0.11994
280 0.0621691
285 0.0718271
290 0.0599205
295 0.0623684
300 0.0670058
305 0.0704883
310 0.04958
315 0.0598541
320 0.0842539
325 0.0661767
330 0.0628751
335 0.0618286
340 0.135867
345 0.124487
350 0.137517
355 0.170509
360 0.142528
365 0.220869
370 0.336354
375 0.66817
380 18.7893
385 381.595
390 661.876
395 189.897
400 34.4356
405 14.9247
410 15.66
415 19.0873
420 18.9785
425 16.0047
430 13.4734
435 14.3179
440 16.3913
445 15.5449
450 13.2998
455 11.1494
460 9.46262
465 8.39669
470 8.23707
475 7.43071
480 7.04666
485 6.59985
490 5.9135
495 5.08465
500 5.02966
505 4.53549
510 4.12468
515 3.6429
520 3.19363
525 2.82225
530 2.32872
535 2.11009
540 2.05535
545 1.79753
550 1.66272
555 1.5044
560 1.23753
565 0.947402
570 0.761944
575 0.656692
580 0.558987
585 0.451698
590 0.331473
595 0.274971
600 0.717384
Ex : 398
200 0.0881229
205 0.103878
210 0.110424
215 0.0776289
220 0.0564216
225 0.0507634
230 0.0294961
235 0.0456877
240 0.0819477
245 0.0666883
250 0.111066
255 0.0988026
260 0.0784382
265 0.0837382
270 0.0493731
275 0.054124
280 0.0843174
285 0.0669542
290 0.0515685
295 0.079815
300 0.100346
305 0.090052
310 0.0561973
315 0.0579126
320 0.107655
325 0.0993151
330 0.104215
335 0.122101
340 0.0772207
345 0.0884056
350 0.112445
355 0.111335
360 0.180754
365 0.187866
370 0.297146
375 0.328012
380 0.830942
385 20.444
390 391.171
395 677.943
400 186.021
405 28.3491
410 11.6254
415 12.1515
420 12.1175
425 10.2613
430 8.66438
435 8.17863
440 9.52891
445 11.6898
450 10.6251
455 8.73994
460 7.38487
465 6.52987
470 6.38432
475 6.06049
480 5.51652
485 5.11517
490 4.86455
495 4.49785
500 4.16176
505 3.74403
510 3.39186
515 3.30788
520 2.92422
525 2.49842
530 2.32662
535 2.09798
540 1.98737
545 1.63764
550 1.50896
555 1.41592
560 1.19076
565 0.940181
570 0.768833
575 0.679732
580 0.492164
585 0.40747
590 0.252944
595 0.213395
600 0.312675
Ex : 403
200 0.0640607
205 0.0511613
210 0.0748314
215 0.0605468
220 0.0489378
225 0.0597772
230 0.174888
235 0.0497212
240 0.0368825
245 0.0438757
250 0.0709077
255 0.078094
260 0.0667489
265 0.0372087
270 0.0799294
275 0.0780428
280 0.0632292
285 0.111103
290 0.03526
295 0.0481149
300 0.079356
305 0.0485515
310 0.066325
315 0.0682734
320 0.0522907
325 0.0347233
330 0.0931887
335 0.0975542
340 0.0746256
345 0.0676064
350 0.146959
355 0.0852001
360 0.113285
365 0.0927986
370 0.198532
375 0.199687
380 0.344576
385 0.981008
390 22.4756
395 403.218
400 671.568
405 184.72
410 25.6994
415 7.97224
420 6.17296
425 6.08577
430 5.14958
435 4.84355
440 5.50229
445 5.99595
450 7.89767
455 7.66306
460 6.40124
465 5.94722
470 5.10203
475 4.94815
480 4.71166
485 4.60002
490 4.33474
495 4.14214
500 3.67492
505 3.54716
510 3.3527
515 2.82055
520 2.75984
525 2.40214
530 2.35508
535 1.94905
540 1.65821
545 1.43907
550 1.55931
555 1.15337
560 1.14144
565 0.93133
570 0.790084
575 0.564115
580 0.494037
585 0.350576
590 0.303549
595 0.260928
600 0.468258
Ex : 408
200 0.0377558
205 0.0905782
210 0.055085
215 0.0504849
220 0.0685178
225 0.0649972
230 0.0864228
235 0.0566188
240 0.0830644
245 0.0504284
250 0.087049
255 0.0771265
260 0.0357721
265 0.0946449
270 0.072428
275 0.0590797
280 0.0500073
285 0.0712869
290 0.0532164
295 0.0475966
300 0.0881199
305 0.0872274
310 0.0561799
315 0.0577556
320 0.0491379
325 0.0438221
330 0.102433
335 0.0879996
340 0.0504608
345 0.0975753
350 0.0843911
355 0.0931196
360 0.130371
365 0.146519
370 0.214623
375 0.166981
380 0.256847
385 0.435414
390 0.904327
395 20.9615
400 403.418
405 677.222
410 180.405
415 25.3066
420 7.25339
425 4.98293
430 4.62201
435 4.72399
440 5.19944
445 5.23665
450 5.39825
455 6.71242
460 7.38776
465 6.2284
470 5.52946
475 5.39996
480 4.91094
485 4.40073
490 4.20955
495 3.99579
500 3.88852
505 3.55777
510 3.03201
515 3.01179
520 2.69047
525 2.47691
530 2.12338
535 2.07959
540 1.7647
545 1.56199
550 1.52224
555 1.19971
560 1.0727
565 0.967039
570 0.780238
575 0.563473
580 0.50097
585 0.372064
590 0.26962
595 0.227213
600 0.0954215
Ex : 413
200 0.106323
205 0.0760622
210 0.0656253
215 0.098966
220 0.0696193
225 0.0634073
230 0.118701
235 0.049549
240 0.049392
245 0.080772
250 0.0724111
255 0.123641
260 0.0832602
265 0.0844404
270 0.0381276
275 0.0856712
280 0.18143
285 0.0783526
290 0.111086
295 0.112925
300 0.053881
305 0.0974507
310 0.0640933
315 0.0383165
320 0.0663057
325 0.0686531
330 0.0659453
335 0.0422756
340 0.0569572
345 0.119702
350 0.108274
355 0.11547
360 0.103201
365 0.143748
370 0.142969
375 0.151791
380 0.158738
385 0.20878
390 0.473059
395 0.870199
400 23.8932
405 422.875
410 675.13
415 177.315
420 24.6923
425 6.4124
430 4.35463
435 4.53426
440 4.81806
445 4.80301
450 4.58561
455 4.47203
460 5.30458
465 7.13408
470 6.47012
475 5.38434
480 4.96527
485 4.34041
490 3.95931
495 3.53808
500 3.51063
505 3.3183
510 2.94355
515 2.63215
520 2.46785
525 2.24744
530 2.03148
535 1.89064
540 1.69569
545 1.60496
550 1.31353
555 1.15027
560 1.15395
565 0.897463
570 0.696331
575 0.617567
580 0.450403
585 0.332808
590 0.288207
595 0.239213
600 0.183087
Ex : 418
200 0.0898166
205 0.0572361
210 0.0487402
215 0.0331216
220 0.0482197
225 0.0483917
230 0.05487
235 0.0425032
240 0.0578502
245 0.0492128
250 0.0595314
255 0.0677739
260 0.0773297
265 0.033798
270 0.040733
275 0.050997
280 0.0909086
285 0.0624788
290 0.0637329
295 0.0381634
300 0.114672
305 0.0713549
310 0.0796802
315 0.0434179
320 0.0480591
325 0.120926
330 0.0720191
335 0.0493258
340 0.106427
345 0.0654308
350 0.107137
355 0.0924615
360 0.0852821
365 0.150106
370 0.116836
375 0.153665
380 0.17022
385 0.180773
390 0.257454
395 0.37554
400 0.774305
405 22.1985
410 418.024
415 688.012
420 182.378
425 23.8706
430 5.25137
435 3.13601
440 3.22255
445 3.28389
450 3.08596
455 2.81008
460 2.91483
465 3.69363
470 5.59765
475 5.68532
480 4.58282
485 4.02278
490 3.50472
495 3.22219
500 3.01115
505 2.97833
510 2.82
515 2.41457
520 2.21361
525 1.91903
530 1.78692
535 1.83031
540 1.573
545 1.42181
550 1.30535
555 1.01848
560 1.06653
565 0.989277
570 0.63782
575 0.520927
580 0.456616
585 0.362101
590 0.241582
595 0.243176
600 0.535332
Ex : 423
200 0.0421813
205 0.0447317
210 0.0564705
215 0.110317
220 0.0920919
225 0.0477181
230 0.052894
235 0.0747859
240 0.0999075
245 0.0528058
250 0.0620962
255 0.119024
260 0.0449558
265 0.0548439
270 0.046899
275 0.0499171
280 0.0783063
285 0.0462915
290 0.0418734
295 0.0476953
300 0.0987451
305 0.099092
310 0.0603407
315 0.0626751
320 0.0647539
325 0.0478809
330 0.0351409
335 0.0561326
340 0.0767838
345 0.0623435
350 0.102027
355 0.065845
360 0.107798
365 0.0860944
370 0.0890789
375 0.104871
380 0.123695
385 0.138368
390 0.217077
395 0.264632
400 0.367905
405 0.701496
410 23.0605
415 435.6
420 686.645
425 176.203
430 22.0679
435 4.28678
440 2.20473
445 2.0976
450 2.24613
455 1.99512
460 1.88983
465 2.05614
470 2.52611
475 4.19535
480 5.00873
485 3.88862
490 3.35412
495 3.00947
500 2.77394
505 2.37251
510 2.41859
515 2.15846
520 1.87031
525 1.83312
530 1.75368
535 1.49835
540 1.46549
545 1.30806
550 1.20998
555 1.13964
560 0.882122
565 0.843278
570 0.726062
575 0.560693
580 0.456857
585 0.425655
590 0.2354
595 0.193164
600 0.0219813
Ex : 428
200 0.0325004
205 0.0681586
210 0.041482
215 0.0441982
220 0.0336581
225 0.0830483
230 0.0583195
235 0.0427336
240 0.104096
245 0.0633593
250 0.0568699
255 0.084608
260 0.0493141
265 0.088709
270 0.0601771
275 0.0398794
280 0.0339789
285 0.0565771
290 0.0675216
295 0.058902
300 0.0464933
305 0.0774129
310 0.0527152
315 0.0520621
320 0.0507186
325 0.0551659
330 0.0496393
335 0.0689389
340 0.0877926
345 0.144247
350 0.0855162
355 0.0779064
360 0.114363
365 0.0910977
370 0.101214
375 0.131693
380 0.125268
385 0.127523
390 0.16469
395 0.241249
400 0.255062
405 0.39697
410 0.751799
415 24.398
420 438.067
425 693.916
430 180.321
435 22.2446
440 3.78201
445 1.66137
450 1.5997
455 1.68024
460 1.58831
465 1.61715
470 1.60531
475 1.80508
480 3.18319
485 4.66599
490 3.7112
495 3.13322
500 2.76582
505 2.35419
510 2.16636
515 2.07524
520 1.84063
525 1.82458
530 1.68269
535 1.48519
540 1.39336
545 1.15626
550 1.10434
555 1.01377
560 1.00185
565 0.784728
570 0.675926
575 0.566477
580 0.446746
585 0.366061
590 0.278397
595 0.214547
600 0.130406
Ex : 433
200 0.0663794
205 0.0643544
210 0.0494386
215 0.0455751
220 0.0494965
225 0.0654919
230 0.0489251
235 0.0663805
240 0.0425619
245 0.0381214
250 0.0666604
255 0.0988262
260 0.0647909
265 0.122807
270 0.0608199
275 0.0533188
280 0.0579697
285 0.0545305
290 0.0639997
295 0.0634034
300 0.0444596
305 0.0959612
310 0.0690504
315 0.0590054
320 0.0921654
325 0.0859827
330 0.0580719
335 0.0405205
340 0.0539754
345 0.0704297
350 0.102501
355 0.101467
360 0.11342
365 0.0882223
370 0.0716865
375 0.0841895
380 0.10305
385 0.112127
390 0.139401
395 0.113023
400 0.193242
405 0.30334
410 0.470838
415 0.749005
420 27.7554
425 470.822
430 712.718
435 177.826
440 21.7688
445 3.83888
450 1.50312
455 1.64362
460 1.73755
465 1.62152
470 1.28537
475 1.33072
480 1.87612
485 2.67512
490 4.12437
495 3.68847
500 2.7478
505 2.55893
510 2.30806
515 1.73306
520 1.60958
525 1.64536
530 1.5169
535 1.34083
540 1.31426
545 1.11629
550 1.03721
555 0.895871
560 0.983083
565 0.810129
570 0.691745
575 0.527696
580 0.41032
585 0.314271
590 0.319294
595 0.251152
600 0.0614025
Ex : 438
200 0.0504261
205 0.0503703
210 0.0331817
215 0.0413043
220 0.0471944
225 0.0596236
230 0.0696068
235 0.0520622
240 0.0608146
245 0.0476893
250 0.0528605
255 0.0439733
260 0.0749861
265 0.083123
270 0.0780243
275 0.0928849
280 0.0648086
285 0.0531132
290 0.0672812
295 0.0785752
300 0.0477916
305 0.0495757
310 0.0813662
315 0.0571276
320 0.089849
325 0.0665865
330 0.0390364
335 0.0683593
340 0.0662886
345 0.0581673
350 0.055798
355 0.0987593
360 0.0933456
365 0.071241
370 0.0752468
375 0.061906
380 0.132947
385 0.070255
390 0.118647
395 0.133158
400 0.149505
405 0.152194
410 0.240273
415 0.366494
420 0.69664
425 25.7426
430 463.942
435 739.683
440 184.999
445 22.6686
450 3.92621
455 1.49943
460 1.4949
465 1.69215
470 1.57803
475 1.41047
480 1.47398
485 1.56288
490 2.15868
495 3.59743
500 3.97831
505 2.70496
510 2.23395
515 2.1143
520 1.72169
525 1.53941
530 1.31352
535 1.33598
540 1.18603
545 1.12872
550 1.13267
555 0.920505
560 0.869007
565 0.81838
570 0.659053
575 0.517818
580 0.387705
585 0.363675
590 0.279157
595 0.256273
600 0.0291629
Ex : 443
200 0.0397597
205 0.0676477
210 0.0328064
215 0.0773634
220 0.0394213
225 0.0372085
230 0.102685
235 0.10846
240 0.0484047
245 0.0372169
250 0.0325236
255 0.046377
260 0.0866845
265 0.0462527
270 0.0771274
275 0.077852
280 0.0744908
285 0.0513243
290 0.0464803
295 0.06298
300 0.0302704
305 0.106596
310 0.122932
315 0.0937261
320 0.107036
325 0.0944721
330 0.0483553
335 0.0671058
340 0.0864526
345 0.0979947
350 0.107058
355 0.0937396
360 0.0972956
365 0.0601237
370 0.0641239
375 0.0658543
380 0.100279
385 0.121029
390 0.129836
395 0.131255
400 0.147754
405 0.163301
410 0.156137
415 0.268564
420 0.355453
425 0.735036
430 29.5829
435 499.068
440 761.336
445 187.523
450 22.9748
455 3.9269
460 1.50154
465 1.49285
470 1.61579
475 1.39639
480 1.38196
485 1.37784
490 1.56214
495 1.82903
500 2.89846
505 4.01334
510 2.80283
515 2.26783
520 2.04437
525 1.6822
530 1.31595
535 1.25484
540 1.18665
545 1.11139
550 1.06687
555 0.993761
560 0.873105
565 0.703912
570 0.670144
575 0.579577
580 0.367548
585 0.413239
590 0.327807
595 0.234641
600 0.0890473
Ex : 448
200 0.069862
205 0.0549441
210 0.0433821
215 0.0448443
220 0.066304
225 0.0615993
230 0.0604684
235 0.0441633
240 0.066834
245 0.0624566
250 0.0872061
255 0.104123
260 0.121624
265 0.044831
270 0.0352281
275 0.0590752
280 0.151386
285 0.0518079
290 0.0461132
295 0.0559122
300 0.0676718
305 0.0436808
310 0.0532935
315 0.0453336
320 0.0685911
325 0.084641
330 0.0514698
335 0.0454751
340 0.0490541
345 0.0827484
350 0.0832904
355 0.0954675
360 0.0819025
365 0.155107
370 0.141393
375 0.0870547
380 0.0898991
385 0.0867982
390 0.0996924
395 0.105404
400 0.127084
405 0.136709
410 0.197476
415 0.224998
420 0.17373
425 0.420007
430 0.808195
435 31.0971
440 525.016
445 792.465
450 196.479
455 24.0124
460 4.24497
465 1.6057
470 1.52905
475 1.56753
480 1.38652
485 1.33931
490 1.34674
495 1.27263
500 1.55003
505 2.30803
510 3.6624
515 3.13512
520 2.14494
525 1.90374
530 1.69073
535 1.16961
540 1.06091
545 1.09498
550 0.891558
555 0.862296
560 0.785454
565 0.666705
570 0.565193
575 0.467285
580 0.374087
585 0.326238
590 0.269867
595 0.250279
600 0.203937
Ex : 453
200 0.0543895
205 0.0669901
210 0.0520038
215 0.0538389
220 0.0570339
225 0.0454369
230 0.0544604
235 0.0356726
240 0.0731732
245 0.0575753
250 0.083736
255 0.050197
260 0.0676011
265 0.0702278
270 0.0917518
275 0.106848
280 0.0528807
285 0.0856636
290 0.0436865
295 0.107628
300 0.0434845
305 0.0433566
310 0.0618054
315 0.0723782
320 0.0438458
325 0.0629235
330 0.0606796
335 0.114704
340 0.0833028
345 0.059347
350 0.0772834
355 0.0889151
360 0.115137
365 0.0714789
370 0.084255
375 0.0516154
380 0.0792193
385 0.109208
390 0.0986387
395 0.158025
400 0.149925
405 0.0851427
410 0.121119
415 0.159017
420 0.23423
425 0.296263
430 0.398502
435 0.81036
440 32.2749
445 573.367
450 842.94
455 197.64
460 24.3307
465 4.26718
470 1.67759
475 1.35411
480 1.5138
485 1.63003
490 1.38181
495 1.27595
500 1.15651
505 1.28972
510 1.79098
515 3.12703
520 3.1039
525 1.97774
530 1.93058
535 1.63376
540 1.23916
545 1.0689
550 0.925641
555 0.927171
560 0.882372
565 0.740195
570 0.706451
575 0.503161
580 0.394613
585 0.335653
590 0.281592
595 0.264084
600 0.343159
Ex : 458
200 0.0640398
205 0.0525487
210 0.0409597
215 0.0849601
220 0.0582776
225 0.0678113
230 0.0344616
235 0.0481345
240 0.0694641
245 0.0458938
250 0.0478039
255 0.123272
260 0.0708367
265 0.0734845
270 0.0656841
275 0.0295499
280 0.0616637
285 0.0800982
290 0.084857
295 0.0471534
300 0.0452069
305 0.0825357
310 0.089143
315 0.0744659
320 0.102534
325 0.0638344
330 0.115789
335 0.120952
340 0.0528795
345 0.0530646
350 0.120302
355 0.0898264
360 0.0824638
365 0.0480419
370 0.0858982
375 0.0955074
380 0.0708443
385 0.0451973
390 0.0822287
395 0.118413
400 0.128885
405 0.111553
410 0.117384
415 0.131764
420 0.119388
425 0.198917
430 0.209378
435 0.395549
440 0.894215
445 36.1908
450 589.802
455 881.185
460 214.142
465 26.2763
470 4.34898
475 1.68724
480 1.49433
485 1.56816
490 1.38606
495 1.30033
500 1.19901
505 1.25298
510 1.20674
515 1.43585
520 2.46317
525 3.01936
530 2.21288
535 1.68339
540 1.50496
545 1.26351
550 0.941143
555 0.807702
560 0.750369
565 0.717865
570 0.638141
575 0.574408
580 0.393913
585 0.359997
590 0.346957
595 0.274076
600 0.112813
Ex : 463
200 0.109643
205 0.0910954
210 0.0722367
215 0.0527508
220 0.0421281
225 0.0593995
230 0.0684186
235 0.0630683
240 0.0522678
245 0.0656679
250 0.0588413
255 0.0655992
260 0.0459984
265 0.0814593
270 0.0532721
275 0.0501204
280 0.0938443
285 0.0424703
290 0.0602166
295 0.110469
300 0.059526
305 0.133614
310 0.0501454
315 0.0818192
320 0.0457639
325 0.0514971
330 0.0378124
335 0.105715
340 0.100363
345 0.0954986
350 0.058129
355 0.0715508
360 0.0963227
365 0.0539262
370 0.0586548
375 0.0892825
380 0.159285
385 0.0741358
390 0.11268
395 0.153759
400 0.0999906
405 0.113789
410 0.119067
415 0.202879
420 0.189141
425 0.138563
430 0.202306
435 0.275936
440 0.471833
445 0.880343
450 35.5345
455 613.08
460 941.319
465 228.003
470 27.9685
475 4.5654
480 1.75879
485 1.39334
490 1.49385
495 1.51656
500 1.31763
505 1.0079
510 0.987958
515 1.06536
520 1.20754
525 1.89982
530 2.99089
535 2.48811
540 1.61595
545 1.4545
550 1.18533
555 0.967701
560 0.780209
565 0.753081
570 0.646356
575 0.520088
580 0.436797
585 0.259272
590 0.328824
595 0.198121
600 0.168891
Ex : 468
200 0.0657672
205 0.040285
210 0.0753438
215 0.0575875
220 0.0490141
225 0.0569762
230 0.0430192
235 0.051495
240 0.0729781
245 0.0811694
250 0.1035
255 0.0493186
260 0.0294856
265 0.055509
270 0.0595518
275 0.0432351
280 0.0543085
285 0.0878514
290 0.0530343
295 0.0375544
300 0.106098
305 0.0451897
310 0.0519222
315 0.0998468
320 0.0730878
325 0.0475245
330 0.0491821
335 0.0520531
340 0.0545247
345 0.0694343
350 0.0645476
355 0.0537188
360 0.0877478
365 0.0875159
370 0.0809109
375 0.10484
380 0.109643
385 0.0673493
390 0.0901474
395 0.0610477
400 0.0977249
405 0.101037
410 0.167199
415 0.0928235
420 0.0919935
425 0.117141
430 0.112401
435 0.157457
440 0.244536
445 0.466663
450 0.88647
455 40.1353
460 633.436
465 1003.45
470 241.175
475 29.2401
480 4.74229
485 1.63613
490 1.24633
495 1.33863
500 1.35453
505 1.22517
510 1.1089
515 1.0062
520 1.02136
525 1.25053
530 1.50081
535 2.5757
540 2.59672
545 1.72728
550 1.37843
555 1.19507
560 1.00614
565 0.7912
570 0.688634
575 0.570732
580 0.435725
585 0.371425
590 0.320993
595 0.279036
600 0.349815
Ex : 473
200 0.0596204
205 0.0648579
210 0.136731
215 0.0529557
220 0.0503578
225 0.0482826
230 0.0413314
235 0.0895763
240 0.0511168
245 0.0595058
250 0.0524375
255 0.04094
260 0.043302
265 0.0672819
270 0.0544541
275 0.0620157
280 0.058318
285 0.0512884
290 0.0631473
295 0.0570464
300 0.0503583
305 0.0611029
310 0.100904
315 0.0693357
320 0.0452923
325 0.0637116
330 0.088046
335 0.0717789
340 0.0516444
345 0.0663168
350 0.0488357
355 0.0587246
360 0.105388
365 0.0751173
370 0.0763206
375 0.0657399
380 0.0561965
385 0.104685
390 0.100943
395 0.100959
400 0.0820207
405 0.102628
410 0.118474
415 0.103103
420 0.104148
425 0.125293
430 0.153714
435 0.213389
440 0.194049
445 0.322026
450 0.457342
455 0.873216
460 46.2536
465 710.152
470 995.382
475 230.66
480 28.072
485 4.52716
490 1.58268
495 1.27842
500 1.35453
505 1.35203
510 1.13275
515 0.910703
520 1.04759
525 1.09341
530 1.02723
535 1.2936
540 2.09253
545 2.62792
550 1.76856
555 1.27835
560 1.21137
565 0.928255
570 0.751789
575 0.627519
580 0.45622
585 0.440305
590 0.306405
595 0.239169
600 0.519266
Ex : 478
200 0.0848162
205 0.028569
210 0.0639049
215 0.0666512
220 0.0811008
225 0.08257
230 0.0622791
235 0.071106
240 0.0491237
245 0.0801222
250 0.0468585
255 0.0571147
260 0.10436
265 0.0751867
270 0.103557
275 0.0764042
280 0.0652559
285 0.0589841
290 0.0684537
295 0.121415
300 0.0538075
305 0.0657871
310 0.062099
315 0.0967137
320 0.0926865
325 0.10315
330 0.0704629
335 0.0880517
340 0.0789601
345 0.127215
350 0.097619
355 0.106142
360 0.0609437
365 0.105806
370 0.112319
375 0.0910111
380 0.112861
385 0.137425
390 0.0939752
395 0.0902346
400 0.115724
405 0.121212
410 0.0959763
415 0.221671
420 0.161439
425 0.154727
430 0.14952
435 0.14726
440 0.241487
445 0.210232
450 0.33955
455 0.559056
460 1.27565
465 51.2827
470 746.778
475 1037
480 251.711
485 30.4783
490 4.63868
495 1.51235
500 1.0624
505 1.16123
510 1.12289
515 1.14854
520 1.03979
525 0.964474
530 1.08376
535 1.03818
540 1.10533
545 1.59423
550 2.25682
555 1.89441
560 1.17863
565 1.00555
570 0.902016
575 0.66602
580 0.467143
585 0.466681
590 0.324518
595 0.307104
600 0.0566376
Ex : 483
200 0.0372943
205 0.0883884
210 0.057515
215 0.0356979
220 0.0735931
225 0.0604174
230 0.0837983
235 0.0781491
240 0.11527
245 0.108719
250 0.0672433
255 0.0614439
260 0.101263
265 0.0942032
270 0.0502477
275 0.0866492
280 0.0902766
285 0.0659334
290 0.0996258
295 0.127053
300 0.0958947
305 0.0863356
310 0.0693679
315 0.0582438
320 0.109577
325 0.0932613
330 0.0653075
335 0.0968875
340 0.0844523
345 0.0835345
350 0.129022
355 0.113486
360 0.138151
365 0.150132
370 0.111594
375 0.102444
380 0.0717056
385 0.0987909
390 0.0784155
395 0.0913489
400 0.117872
405 0.100547
410 0.104505
415 0.115572
420 0.13148
425 0.175072
430 0.166332
435 0.206848
440 0.174308
445 0.208713
450 0.282813
455 0.347253
460 0.606826
465 1.26606
470 40.8815
475 743.067
480 1131.02
485 270.868
490 32.5268
495 5.02168
500 1.65791
505 0.986934
510 1.01487
515 1.20823
520 1.34982
525 1.08056
530 1.03508
535 1.06075
540 0.947764
545 1.05692
550 1.06578
555 2.0125
560 2.16517
565 1.11673
570 0.850742
575 0.767227
580 0.666303
585 0.478763
590 0.352845
595 0.305077
600 0.108567
Ex : 488
200 0.0442146
205 0.0665211
210 0.0690482
215 0.0562062
220 0.034799
225 0.0861007
230 0.0708247
235 0.0713308
240 0.0848071
245 0.108562
250 0.0776592
255 0.0843874
260 0.100138
265 0.104427
270 0.0788221
275 0.0976552
280 0.0422234
285 0.124764
290 0.129662
295 0.137511
300 0.079253
305 0.059465
310 0.126807
315 0.098538
320 0.0685165
325 0.124589
330 0.112829
335 0.0744087
340 0.113778
345 0.0644909
350 0.0647787
355 0.0644146
360 0.0517672
365 0.101268
370 0.123687
375 0.167818
380 0.115902
385 0.109985
390 0.0961077
395 0.121987
400 0.110947
405 0.100138
410 0.0902742
415 0.0978718
420 0.107648
425 0.0972462
430 0.106345
435 0.135843
440 0.155488
445 0.212035
450 0.264527
455 0.293269
460 0.400499
465 0.689353
470 1.30364
475 51.3989
480 819.673
485 1150.81
490 270.835
495 32.6055
500 5.00387
505 1.57432
510 0.972908
515 1.08219
520 1.27484
525 1.19772
530 0.981675
535 1.00982
540 0.814411
545 0.860115
550 0.840545
555 0.800412
560 1.45068
565 2.00141
570 1.1983
575 0.791311
580 0.631911
585 0.50149
590 0.388517
595 0.294613
600 0.0335258
Ex : 493
200 0.0942446
205 0.094444
210 0.0838846
215 0.0456169
220 0.0543487
225 0.0630924
230 0.0849368
235 0.0589169
240 0.0836677
245 0.0839676
250 0.0984967
255 0.0661782
260 0.0634727
265 0.110871
270 0.0654836
275 0.0661041
280 0.0941788
285 0.0427217
290 0.0835477
295 0.0904742
300 0.0809537
305 0.0807178
310 0.0918817
315 0.10352
320 0.0899392
325 0.115965
330 0.0470692
335 0.0934127
340 0.108266
345 0.131421
350 0.120406
355 0.086837
360 0.152544
365 0.0839932
370 0.0616688
375 0.0903843
380 0.115632
385 0.183835
390 0.127728
395 0.103737
400 0.100159
405 0.0879091
410 0.104808
415 0.0623578
420 0.142214
425 0.129328
430 0.114229
435 0.112409
440 0.144206
445 0.182016
450 0.169403
455 0.24121
460 0.306244
465 0.441255
470 0.705035
475 1.17951
480 48.004
485 813.963
490 1203.41
495 276.636
500 33.1465
505 4.90278
510 1.49699
515 1.17728
520 0.978523
525 1.21798
530 1.23497
535 1.03326
540 0.945581
545 0.91529
550 0.83871
555 0.884551
560 0.843101
565 0.935499
570 1.53278
575 1.23363
580 0.629584
585 0.488829
590 0.452458
595 0.404862
600 0.495887
Ex : 498
200 0.0793226
205 0.106824
210 0.0423636
215 0.0913728
220 0.0795867
225 0.105125
230 0.0969425
235 0.0807681
240 0.109096
245 0.0915512
250 0.0830013
255 0.068243
260 0.118885
265 0.153362
270 0.122161
275 0.0618449
280 0.0797455
285 0.0707353
290 0.0745036
295 0.0887201
300 0.0550747
305 0.107087
310 0.0963577
315 0.0731611
320 0.170796
325 0.105704
330 0.143132
335 0.103531
340 0.0938308
345 0.0832969
350 0.0880302
355 0.095502
360 0.0899534
365 0.113504
370 0.0847444
375 0.103593
380 0.12504
385 0.130085
390 0.126033
395 0.157104
400 0.168778
405 0.0754323
410 0.125889
415 0.100871
420 0.12326
425 0.132299
430 0.128197
435 0.177867
440 0.171777
445 0.177767
450 0.234972
455 0.30027
460 0.236548
465 0.428548
470 0.546343
475 0.746751
480 1.28813
485 60.0712
490 882.71
495 1207.8
500 279.595
505 33.5234
510 5.00696
515 1.74489
520 1.08734
525 1.14888
530 1.17042
535 1.27134
540 1.19971
545 0.906617
550 0.819332
555 0.86241
560 0.710435
565 0.650168
570 0.781456
575 1.29753
580 1.24661
585 0.717839
590 0.448291
595 0.461089
600 0.0562095
Ex : 503
200 0.122406
205 0.112271
210 0.111515
215 0.0480446
220 0.060475
225 0.0999838
230 0.120601
235 0.0613167
240 0.0783566
245 0.170368
250 0.126106
255 0.0868913
260 0.132139
265 0.151211
270 0.104623
275 0.0786507
280 0.123217
285 0.108446
290 0.127353
295 0.0764166
300 0.103043
305 0.115848
310 0.145454
315 0.132523
320 0.0977405
325 0.0706345
330 0.0853982
335 0.0684237
340 0.14935
345 0.0535729
350 0.0626327
355 0.146064
360 0.0838643
365 0.100419
370 0.0679855
375 0.129865
380 0.152257
385 0.103421
390 0.127844
395 0.108891
400 0.210143
405 0.165574
410 0.085389
415 0.0931288
420 0.137762
425 0.0880085
430 0.25454
435 0.18165
440 0.172452
445 0.148457
450 0.156766
455 0.209067
460 0.23107
465 0.342091
470 0.392714
475 0.497621
480 0.864903
485 1.32531
490 54.1203
495 882.024
500 1254.47
505 289.153
510 34.7471
515 5.37588
520 1.90623
525 1.16675
530 1.01935
535 1.15833
540 1.13908
545 1.00512
550 0.704776
555 0.67141
560 0.621493
565 0.594351
570 0.552527
575 0.598269
580 0.754189
585 0.958379
590 0.676084
595 0.417114
600 0.0552397
Ex : 508
200 0.124729
205 0.0701163
210 0.107114
215 0.202526
220 0.136943
225 0.0801805
230 0.0971175
235 0.142754
240 0.178888
245 0.098594
250 0.164795
255 0.0890298
260 0.0858975
265 0.0901532
270 0.144049
275 0.12486
280 0.107989
285 0.138709
290 0.131149
295 0.123675
300 0.0826438
305 0.13485
310 0.0975395
315 0.0989732
320 0.0693681
325 0.158401
330 0.121301
335 0.0951049
340 0.131289
345 0.201729
350 0.13258
355 0.131249
360 0.126786
365 0.120077
370 0.116998
375 0.112169
380 0.100359
385 0.142929
390 0.120518
395 0.125683
400 0.136343
405 0.137027
410 0.140669
415 0.134856
420 0.168774
425 0.132442
430 0.131721
435 0.136652
440 0.138559
445 0.1957
450 0.20842
455 0.219259
460 0.167706
465 0.147122
470 0.253732
475 0.249086
480 0.460484
485 0.75749
490 1.30842
495 60.4457
500 913.288
505 1283.55
510 311.333
515 37.2962
520 5.56036
525 1.82756
530 1.15165
535 0.982704
540 1.14896
545 1.04115
550 0.948705
555 0.923317
560 0.755514
565 0.534072
570 0.575708
575 0.530972
580 0.560477
585 0.52506
590 0.708012
595 0.591792
600 0.698612
Ex : 513
200 0.110591
205 0.0994032
210 0.102023
215 0.102063
220 0.0532481
225 0.0893122
230 0.0961511
235 0.078125
240 0.0867426
245 0.0496004
250 0.0689659
255 0.147154
260 0.0932453
265 0.0963407
270 0.129363
275 0.107225
280 0.0920695
285 0.0761145
290 0.0527488
295 0.0738218
300 0.0664945
305 0.138535
310 0.0839038
315 0.129666
320 0.0961354
325 0.13194
330 0.169454
335 0.0992325
340 0.104603
345 0.0914942
350 0.184381
355 0.133191
360 0.095502
365 0.0976938
370 0.12459
375 0.133137
380 0.106109
385 0.105448
390 0.107206
395 0.060915
400 0.130721
405 0.0991007
410 0.104447
415 0.107967
420 0.22961
425 0.158411
430 0.178396
435 0.144274
440 0.147387
445 0.164555
450 0.157127
455 0.217836
460 0.182259
465 0.176738
470 0.223365
475 0.292183
480 0.373009
485 0.522316
490 0.803638
495 1.2549
500 54.5527
505 901.45
510 1314.3
515 319.095
520 38.2976
525 5.60274
530 1.67842
535 1.11037
540 1.01305
545 0.946997
550 0.820055
555 0.753222
560 0.728391
565 0.665914
570 0.446975
575 0.518124
580 0.438961
585 0.347107
590 0.450305
595 0.599458
600 0.426026
Ex : 518
200 0.0518425
205 0.174647
210 0.121427
215 0.129423
220 0.151815
225 0.0773576
230 0.115775
235 0.110776
240 0.178584
245 0.0862053
250 0.119434
255 0.108829
260 0.145797
265 0.11675
270 0.116787
275 0.110895
280 0.0624646
285 0.0924958
290 0.0783165
295 0.0914282
300 0.167196
305 0.0867316
310 0.10239
315 0.11087
320 0.0858015
325 0.0867542
330 0.133668
335 0.149802
340 0.103389
345 0.110916
350 0.0763371
355 0.174254
360 0.104171
365 0.151416
370 0.128261
375 0.130883
380 0.129996
385 0.204372
390 0.206535
395 0.214401
400 0.122036
405 0.159446
410 0.114351
415 0.156481
420 0.140603
425 0.140198
430 0.17514
435 0.229565
440 0.16361
445 0.129458
450 0.152179
455 0.145565
460 0.149265
465 0.133732
470 0.2168
475 0.28686
480 0.240478
485 0.398138
490 0.538747
495 0.686062
500 1.36057
505 54.9457
510 880.087
515 1314.86
520 323.667
525 39.0981
530 5.73472
535 1.7162
540 0.989292
545 0.813268
550 0.760633
555 0.743498
560 0.93232
565 0.704277
570 0.494726
575 0.426062
580 0.384493
585 0.40638
590 0.340457
595 0.310142
600 0.453075
Ex : 523
200 0.109202
205 0.133794
210 0.130543
215 0.115137
220 0.103449
225 0.0794639
230 0.126808
235 0.068953
240 0.0882284
245 0.0768658
250 0.146393
255 0.12204
260 0.179016
265 0.0937834
270 0.104649
275 0.200057
280 0.0867175
285 0.117536
290 0.161164
295 0.129927
300 0.129586
305 0.111616
310 0.114554
315 0.0862339
320 0.0826762
325 0.182858
330 0.114071
335 0.139762
340 0.0933509
345 0.117659
350 0.101621
355 0.0773255
360 0.0775193
365 0.16925
370 0.128313
375 0.102422
380 0.0923728
385 0.128553
390 0.170207
395 0.0750581
400 0.158926
405 0.17376
410 0.154171
415 0.207475
420 0.16468
425 0.1199
430 0.146126
435 0.168291
440 0.159205
445 0.192232
450 0.133874
455 0.113526
460 0.194672
465 0.161128
470 0.272377
475 0.197585
480 0.23277
485 0.347337
490 0.326134
495 0.498293
500 0.620011
505 1.2185
510 51.0243
515 862.251
520 1312.52
525 333.922
530 40.0047
535 5.90491
540 1.47308
545 0.94398
550 0.715101
555 0.664765
560 0.82056
565 0.788939
570 0.631482
575 0.555968
580 0.406259
585 0.326739
590 0.322379
595 0.343891
600 0.353736
Ex : 528
200 0.114889
205 0.0963793
210 0.0395233
215 0.0895697
220 0.0907864
225 0.0981473
230 0.0773294
235 0.104565
240 0.187835
245 0.127872
250 0.0786025
255 0.149381
260 0.178176
265 0.120171
270 0.110037
275 0.0981432
280 0.147558
285 0.0950658
290 0.0754935
295 0.0530965
300 0.113277
305 0.0717088
310 0.145712
315 0.162895
320 0.148402
325 0.0727733
330 0.149199
335 0.093212
340 0.0990761
345 0.108428
350 0.124753
355 0.132857
360 0.148714
365 0.0726435
370 0.0991369
375 0.171976
380 0.148826
385 0.147154
390 0.109273
395 0.174206
400 0.147992
405 0.132631
410 0.15773
415 0.142268
420 0.150966
425 0.0851565
430 0.110433
435 0.116013
440 0.119433
445 0.188316
450 0.134376
455 0.14099
460 0.134734
465 0.209995
470 0.160504
475 0.269489
480 0.282736
485 0.293093
490 0.354113
495 0.372216
500 0.432139
505 0.723011
510 1.19262
515 50.5514
520 865.124
525 1313.6
530 329.144
535 39.2613
540 5.69309
545 1.59735
550 0.765685
555 0.670975
560 0.616836
565 0.730669
570 0.793046
575 0.493626
580 0.511186
585 0.395855
590 0.390134
595 0.295614
600 0.381791
Ex : 533
200 0.0696536
205 0.0844371
210 0.109007
215 0.115965
220 0.0900581
225 0.09307
230 0.111578
235 0.0989737
240 0.0885136
245 0.101498
250 0.12307
255 0.115023
260 0.0836411
265 0.179559
270 0.134822
275 0.173029
280 0.0718461
285 0.108408
290 0.110443
295 0.0844314
300 0.104138
305 0.171948
310 0.120219
315 0.0904691
320 0.137361
325 0.115281
330 0.125853
335 0.0948348
340 0.121427
345 0.129235
350 0.124148
355 0.127616
360 0.0973837
365 0.126887
370 0.0917245
375 0.136879
380 0.138694
385 0.125648
390 0.136448
395 0.14224
400 0.125173
405 0.136961
410 0.156861
415 0.139981
420 0.168216
425 0.140565
430 0.122056
435 0.155404
440 0.202381
445 0.179736
450 0.109927
455 0.102294
460 0.235653
465 0.185752
470 0.185911
475 0.18154
480 0.232219
485 0.191217
490 0.247353
495 0.271305
500 0.388158
505 0.51031
510 0.669215
515 1.19701
520 48.6867
525 829.052
530 1296.14
535 336.066
540 39.9705
545 5.56241
550 1.40367
555 0.787882
560 0.571431
565 0.640617
570 0.44012
575 0.479022
580 0.547245
585 0.367847
590 0.35999
595 0.31044
600 0.641677
Ex : 538
200 0.114937
205 0.0996458
210 0.137365
215 0.145371
220 0.120986
225 0.142936
230 0.0899996
235 0.205579
240 0.126253
245 0.117465
250 0.0961704
255 0.0564406
260 0.0793485
265 0.217575
270 0.101331
275 0.0461502
280 0.210268
285 0.109835
290 0.0869658
295 0.124618
300 0.140947
305 0.0823562
310 0.106525
315 0.133706
320 0.0669441
325 0.145622
330 0.128064
335 0.165831
340 0.127228
345 0.120042
350 0.0796789
355 0.20299
360 0.0987722
365 0.0998373
370 0.102325
375 0.0971999
380 0.124742
385 0.116325
390 0.133575
395 0.170344
400 0.133045
405 0.101396
410 0.161352
415 0.159177
420 0.158358
425 0.187185
430 0.0963635
435 0.131885
440 0.101737
445 0.137132
450 0.115103
455 0.185554
460 0.140891
465 0.261131
470 0.242022
475 0.204435
480 0.278285
485 0.275894
490 0.217383
495 0.290714
500 0.350625
505 0.382502
510 0.429694
515 0.606942
520 1.26244
525 41.13
530 798.75
535 1303.36
540 351.186
545 41.9783
550 5.87079
555 1.40852
560 0.720587
565 0.532825
570 0.514813
575 0.507478
580 0.499809
585 0.444093
590 0.312757
595 0.300874
600 0.197993
Ex : 543
200 0.161299
205 0.100422
210 0.0845374
215 0.161622
220 0.112953
225 0.111004
230 0.0735369
235 0.106047
240 0.115362
245 0.12241
250 0.125878
255 0.126869
260 0.101678
265 0.100499
270 0.0980543
275 0.105294
280 0.18847
285 0.124643
290 0.138352
295 0.144595
300 0.0903243
305 0.146936
310 0.158808
315 0.146898
320 0.0858328
325 0.105334
330 0.119692
335 0.0641454
340 0.132493
345 0.120677
350 0.107638
355 0.0964464
360 0.119946
365 0.110998
370 0.158809
375 0.146026
380 0.120083
385 0.1369
390 0.107019
395 0.113837
400 0.103061
405 0.0933909
410 0.158426
415 0.106471
420 0.152672
425 0.15028
430 0.111674
435 0.132855
440 0.132687
445 0.19401
450 0.298809
455 0.263782
460 0.177305
465 0.182576
470 0.20154
475 0.316795
480 0.207283
485 0.27188
490 0.176519
495 0.216719
500 0.248502
505 0.381645
510 0.439268
515 0.594844
520 0.622652
525 1.14062
530 40.6493
535 788.497
540 1307.51
545 356.336
550 42.7599
555 5.8685
560 1.29563
565 0.689383
570 0.461513
575 0.37333
580 0.508907
585 0.449597
590 0.437624
595 0.307717
600 0.218199
Ex : 548
200 0.114037
205 0.111552
210 0.151206
215 0.148123
220 0.070415
225 0.0991021
230 0.105104
235 0.103713
240 0.0977127
245 0.0714375
250 0.0984021
255 0.116334
260 0.0854667
265 0.180187
270 0.126208
275 0.0854831
280 0.0955208
285 0.0810727
290 0.114643
295 0.112323
300 0.119434
305 0.0897988
310 0.148272
315 0.192963
320 0.107905
325 0.107957
330 0.136498
335 0.114932
340 0.106671
345 0.0650392
350 0.100063
355 0.106701
360 0.212335
365 0.145125
370 0.178963
375 0.159953
380 0.193905
385 0.165867
390 0.133318
395 0.155399
400 0.156336
405 0.203317
410 0.0851491
415 0.133949
420 0.153021
425 0.200728
430 0.200885
435 0.153549
440 0.174948
445 0.210862
450 0.188885
455 0.172179
460 0.208642
465 0.135387
470 0.227901
475 0.183945
480 0.174965
485 0.223021
490 0.145953
495 0.270438
500 0.301043
505 0.235976
510 0.304013
515 0.373492
520 0.458184
525 0.636968
530 1.15652
535 43.8352
540 780.032
545 1287.04
550 356.588
555 42.3742
560 5.74146
565 1.20247
570 0.632485
575 0.557664
580 0.456966
585 0.393768
590 0.32293
595 0.367247
600 0.718105
Ex : 553
200 0.196882
205 0.17402
210 0.107335
215 0.114968
220 0.113625
225 0.171552
230 0.103029
235 0.181186
240 0.143601
245 0.173668
250 0.155793
255 0.0878698
260 0.119341
265 0.132465
270 0.235685
275 0.112347
280 0.122468
285 0.0856887
290 0.12367
295 0.15598
300 0.129676
305 0.18418
310 0.151125
315 0.171647
320 0.169259
325 0.0777567
330 0.115269
335 0.0743685
340 0.102196
345 0.101505
350 0.115071
355 0.0771711
360 0.102146
365 0.0549912
370 0.112265
375 0.12424
380 0.199759
385 0.122091
390 0.150348
395 0.0926963
400 0.138478
405 0.126581
410 0.109705
415 0.151807
420 0.142294
425 0.113558
430 0.192985
435 0.110644
440 0.0917475
445 0.168476
450 0.248924
455 0.117347
460 0.117253
465 0.291635
470 0.198739
475 0.158444
480 0.2095
485 0.199019
490 0.271635
495 0.205199
500 0.198175
505 0.184171
510 0.251444
515 0.36252
520 0.372768
525 0.542637
530 0.73945
535 1.10738
540 37.7873
545 732.994
550 1266.79
555 357.199
560 42.8986
565 5.64805
570 1.1616
575 0.609044
580 0.457608
585 0.281789
590 0.319389
595 0.300021
600 0.0341412
Ex : 558
200 0.237917
205 0.0945068
210 0.163633
215 0.168225
220 0.140949
225 0.115155
230 0.0834915
235 0.0898177
240 0.0844722
245 0.09822
250 0.0883392
255 0.0888321
260 0.107068
265 0.104931
270 0.10416
275 0.200896
280 0.104151
285 0.0838319
290 0.169812
295 0.109771
300 0.191542
305 0.13365
310 0.218276
315 0.167221
320 0.0560187
325 0.12532
330 0.0996423
335 0.0669116
340 0.151561
345 0.138809
350 0.0872724
355 0.17888
360 0.26516
365 0.210587
370 0.144822
375 0.139586
380 0.169788
385 0.0671092
390 0.259324
395 0.20763
400 0.138855
405 0.137728
410 0.150334
415 0.114473
420 0.091471
425 0.124117
430 0.116639
435 0.117654
440 0.128997
445 0.192126
450 0.183706
455 0.192611
460 0.176305
465 0.130887
470 0.102663
475 0.172775
480 0.15916
485 0.203344
490 0.131406
495 0.2308
500 0.246786
505 0.23307
510 0.317822
515 0.229347
520 0.426
525 0.381495
530 0.419543
535 0.739426
540 1.08178
545 34.7024
550 702.964
555 1245.58
560 355.555
565 42.4401
570 5.61577
575 1.24079
580 0.546526
585 0.324102
590 0.301598
595 0.409501
600 0.603179
Ex : 563
200 0.104596
205 0.138826
210 0.163565
215 0.141982
220 0.14581
225 0.135216
230 0.181416
235 0.13412
240 0.18709
245 0.154334
250 0.123308
255 0.098496
260 0.126534
265 0.10551
270 0.0990517
275 0.169789
280 0.218104
285 0.146699
290 0.129063
295 0.18858
300 0.172101
305 0.13812
310 0.137249
315 0.138836
320 0.221439
325 0.0925999
330 0.139243
335 0.148944
340 0.14355
345 0.120194
350 0.146814
355 0.0989498
360 0.122002
365 0.216016
370 0.14716
375 0.149304
380 0.122823
385 0.127942
390 0.167529
395 0.20653
400 0.150828
405 0.120518
410 0.0834608
415 0.134377
420 0.157213
425 0.160895
430 0.090378
435 0.207085
440 0.179532
445 0.238435
450 0.154382
455 0.131685
460 0.219391
465 0.105554
470 0.132263
475 0.14541
480 0.231966
485 0.238071
490 0.203664
495 0.194158
500 0.256956
505 0.273353
510 0.181978
515 0.217999
520 0.191704
525 0.299278
530 0.305497
535 0.284251
540 0.607679
545 1.20789
550 33.3997
555 677.735
560 1190.6
565 347.545
570 41.3872
575 5.43388
580 1.0886
585 0.488731
590 0.374393
595 0.381794
600 0.25392
Ex : 568
200 0.0922226
205 0.129757
210 0.107047
215 0.0987008
220 0.129217
225 0.0808227
230 0.102714
235 0.0727823
240 0.0729085
245 0.0823069
250 0.13518
255 0.0967733
260 0.180446
265 0.172104
270 0.078665
275 0.113835
280 0.199343
285 0.16215
290 0.16178
295 0.088218
300 0.140111
305 0.0999218
310 0.125485
315 0.106719
320 0.151356
325 0.112974
330 0.140486
335 0.15279
340 0.197423
345 0.141332
350 0.116413
355 0.153926
360 0.142198
365 0.230803
370 0.192168
375 0.22891
380 0.0908033
385 0.0779272
390 0.104333
395 0.133342
400 0.123425
405 0.15955
410 0.101631
415 0.127568
420 0.159866
425 0.168687
430 0.146907
435 0.218501
440 0.121761
445 0.119356
450 0.193483
455 0.156854
460 0.133704
465 0.118055
470 0.14484
475 0.204207
480 0.213815
485 0.216013
490 0.133351
495 0.203062
500 0.227795
505 0.173554
510 0.181478
515 0.18602
520 0.154469
525 0.257907
530 0.414131
535 0.287297
540 0.330412
545 0.568801
550 0.973866
555 26.2488
560 626.741
565 1180.09
570 362.203
575 43.3063
580 5.52119
585 0.951107
590 0.587402
595 0.405043
600 0.305048
Ex : 573
200 0.0929902
205 0.100632
210 0.1391
215 0.130772
220 0.130942
225 0.103408
230 0.168983
235 0.0799923
240 0.102134
245 0.142376
250 0.130364
255 0.0982523
260 0.0900738
265 0.0944889
270 0.0937192
275 0.0790622
280 0.166924
285 0.16206
290 0.241902
295 0.191119
300 0.172809
305 0.153913
310 0.0975251
315 0.165036
320 0.194135
325 0.129302
330 0.135625
335 0.134266
340 0.117604
345 0.116901
350 0.231892
355 0.083572
360 0.148042
365 0.123892
370 0.269688
375 0.120144
380 0.0781642
385 0.142517
390 0.129474
395 0.159941
400 0.217484
405 0.245417
410 0.130863
415 0.178307
420 0.140918
425 0.168354
430 0.125583
435 0.126499
440 0.101942
445 0.115012
450 0.114704
455 0.123385
460 0.183043
465 0.160205
470 0.105673
475 0.075949
480 0.169488
485 0.145948
490 0.200479
495 0.214299
500 0.253492
505 0.1249
510 0.185531
515 0.196337
520 0.144835
525 0.241804
530 0.258805
535 0.265403
540 0.304689
545 0.635077
550 0.679543
555 0.817906
560 21.7597
565 547.772
570 1090
575 335.854
580 40.2021
585 5.17946
590 0.945638
595 0.468725
600 0.326932
Ex : 578
200 0.383325
205 0.106257
210 0.128544
215 0.113418
220 0.113039
225 0.0873319
230 0.131163
235 0.106054
240 0.141989
245 0.121143
250 0.143956
255 0.138111
260 0.219153
265 0.116675
270 0.113024
275 0.106582
280 0.152078
285 0.11527
290 0.139843
295 0.291592
300 0.114615
305 0.100485
310 0.0998081
315 0.128234
320 0.131152
325 0.12309
330 0.146454
335 0.108442
340 0.163594
345 0.227895
350 0.145045
355 0.25974
360 0.107086
365 0.0910825
370 0.152471
375 0.120516
380 0.137134
385 0.125053
390 0.147205
395 0.0943105
400 0.140325
405 0.299734
410 0.144012
415 0.165643
420 0.184294
425 0.195216
430 0.162999
435 0.164522
440 0.170117
445 0.154528
450 0.123906
455 0.173532
460 0.169671
465 0.21529
470 0.157669
475 0.16465
480 0.246163
485 0.178961
490 0.155723
495 0.175432
500 0.203532
505 0.196431
510 0.23222
515 0.176452
520 0.108555
525 0.175739
530 0.311914
535 0.158999
540 0.356241
545 0.407429
550 0.309351
555 0.467814
560 0.713616
565 20.4243
570 488.855
575 955.903
580 290.777
585 34.6488
590 4.35516
595 0.817896
600 0.215308
Ex : 583
200 0.164933
205 0.0909347
210 0.101332
215 0.132737
220 0.104997
225 0.15304
230 0.116518
235 0.0886397
240 0.0928568
245 0.114642
250 0.114834
255 0.1881
260 0.214954
265 0.102502
270 0.0771429
275 0.0946366
280 0.088193
285 0.128823
290 0.140852
295 0.124403
300 0.129904
305 0.142773
310 0.0811095
315 0.116599
320 0.0895958
325 0.126817
330 0.100872
335 0.133164
340 0.214897
345 0.201935
350 0.137458
355 0.201036
360 0.113961
365 0.159975
370 0.143324
375 0.138771
380 0.231104
385 0.121801
390 0.157513
395 0.0807262
400 0.0887998
405 0.0840675
410 0.123209
415 0.118025
420 0.225423
425 0.119888
430 0.0938231
435 0.179697
440 0.196853
445 0.125271
450 0.10204
455 0.194582
460 0.169619
465 0.330465
470 0.0982415
475 0.0929898
480 0.122615
485 0.129023
490 0.161787
495 0.176179
500 0.140894
505 0.202246
510 0.251212
515 0.214747
520 0.22311
525 0.194615
530 0.282768
535 0.218904
540 0.226625
545 0.234132
550 0.265993
555 0.352878
560 0.521912
565 0.806843
570 16.1084
575 434.78
580 830.766
585 241.35
590 28.8064
595 3.74069
600 0.425676
Ex : 588
200 0.151295
205 0.128785
210 0.10738
215 0.0670965
220 0.0954379
225 0.106212
230 0.122395
235 0.140749
240 0.131964
245 0.272028
250 0.104189
255 0.298832
260 0.178799
265 0.10435
270 0.111419
275 0.102815
280 0.123303
285 0.100603
290 0.1696
295 0.17782
300 0.107917
305 0.156094
310 0.144541
315 0.130099
320 0.175933
325 0.144473
330 0.291313
335 0.106192
340 0.0803961
345 0.0773302
350 0.151431
355 0.1131
360 0.302189
365 0.154375
370 0.127479
375 0.129177
380 0.160254
385 0.092048
390 0.181663
395 0.319516
400 0.163027
405 0.14291
410 0.210522
415 0.285846
420 0.14311
425 0.232331
430 0.159486
435 0.153291
440 0.211575
445 0.132304
450 0.150491
455 0.247449
460 0.226951
465 0.176538
470 0.200206
475 0.158396
480 0.143437
485 0.169159
490 0.130586
495 0.125519
500 0.142737
505 0.189617
510 0.185049
515 0.169328
520 0.149169
525 0.162338
530 0.236318
535 0.214064
540 0.233624
545 0.23293
550 0.408736
555 0.240698
560 0.304957
565 0.38313
570 0.844788
575 15.6914
580 370.412
585 721.075
590 214.644
595 25.8541
600 3.20987
Ex : 593
200 0.0661632
205 0.0935341
210 0.107575
215 0.123541
220 0.144968
225 0.097397
230 0.147385
235 0.179261
240 0.0926897
245 0.127691
250 0.091662
255 0.110024
260 0.118588
265 0.102953
270 0.146408
275 0.174283
280 0.110042
285 0.148256
290 0.145018
295 0.159294
300 0.170893
305 0.101877
310 0.117006
315 0.140491
320 0.0725983
325 0.157218
330 0.0982482
335 0.0726575
340 0.087428
345 0.166262
350 0.195316
355 0.147905
360 0.11855
365 0.104412
370 0.147451
375 0.145133
380 0.162814
385 0.1903
390 0.189865
395 0.154722
400 0.0795066
405 0.114452
410 0.136121
415 0.132177
420 0.22337
425 0.133808
430 0.156753
435 0.142649
440 0.188653
445 0.148754
450 0.0889819
455 0.235649
460 0.143345
465 0.130289
470 0.176056
475 0.106446
480 0.142085
485 0.220245
490 0.325322
495 0.198134
500 0.24256
505 0.161861
510 0.14534
515 0.109128
520 0.15866
525 0.174177
530 0.312721
535 0.119364
540 0.12625
545 0.1636
550 0.198249
555 0.210699
560 0.314411
565 0.28974
570 0.273112
575 0.584148
580 13.1311
585 329.661
590 606.545
595 184.289
600 25.8589
Ex : 598
200 0.151361
205 0.0634595
210 0.0993557
215 0.15512
220 0.141092
225 0.232415
230 0.196714
235 0.116752
240 0.233827
245 0.157554
250 0.158747
255 0.155893
260 0.0570032
265 0.0663882
270 0.0693398
275 0.079173
280 0.150674
285 0.179259
290 0.134983
295 0.114576
300 0.0896031
305 0.135544
310 0.153602
315 0.0853502
320 0.228016
325 0.163086
330 0.119839
335 0.16843
340 0.136429
345 0.119438
350 0.219239
355 0.197467
360 0.157899
365 0.194024
370 0.197032
375 0.105004
380 0.111934
385 0.135422
390 0.203835
395 0.146472
400 0.125238
405 0.156855
410 0.186328
415 0.200238
420 0.196671
425 0.146327
430 0.270023
435 0.20353
440 0.137173
445 0.177091
450 0.189638
455 0.13956
460 0.100783
465 0.197931
470 0.130152
475 0.16468
480 0.2919
485 0.163158
490 0.147041
495 0.26933
500 0.158946
505 0.176471
510 0.142544
515 0.200439
520 0.198333
525 0.169366
530 0.127652
535 0.129795
540 0.170109
545 0.257276
550 0.176809
555 0.253787
560 0.201781
565 0.288169
570 0.264057
575 0.329893
580 0.581674
585 13.044
590 301.921
595 539.786
600 339.79
Ex : 603
200 0.0710382
205 0.149027
210 0.128687
215 0.247736
220 0.194388
225 0.101303
230 0.13868
235 0.0928273
240 0.0650909
245 0.109614
250 0.222157
255 0.064785
260 0.142421
265 0.0596036
270 0.17586
275 0.152581
280 0.133393
285 0.153775
290 0.0898135
295 0.0847313
300 0.102908
305 0.163326
310 0.152389
315 0.265216
320 0.14806
325 0.142722
330 0.0847341
335 0.187551
340 0.227842
345 0.212405
350 0.166897
355 0.2112
360 0.122186
365 0.109867
370 0.113331
375 0.203679
380 0.192749
385 0.146752
390 0.234601
395 0.112379
400 0.154426
405 0.239736
410 0.230094
415 0.121542
420 0.173526
425 0.111453
430 0.231505
435 0.208736
440 0.162058
445 0.171664
450 0.184852
455 0.142998
460 0.24738
465 0.235508
470 0.157119
475 0.222765
480 0.131863
485 0.205875
490 0.16658
495 0.233938
500 0.128991
505 0.167315
510 0.241872
515 0.24083
520 0.147741
525 0.127059
530 0.0984558
535 0.103808
540 0.154942
545 0.0891339
550 0.244483
555 0.177253
560 0.234487
565 0.172721
570 0.290013
575 0.19191
580 0.30197
585 0.438365
590 11.8142
595 255.063
600 514.259
