File format V 1.0
ven. 6. janv. 00:09:57 2017
Operator : 
Comments : 

=============================================
SpectroFluorometer parameters
Mode : 3D measurement
Data : Fluorescence
Phospho. : Ordinary
Spectrum : Fluorescence

Scan speed : 2400 nm/mn
Response : 100 ms
PM Voltage : 700 V
Shutter : On

Lambda Ex. Start : 203
Lambda Ex. End : 603
Lambda Ex. Step : 5
Ex. Slit : 5 nm

Lambda Em. Start : 200
Lambda Em. End : 600
Lambda Em. Step : 5
Em. Slit : 5 nm

Repetition : 1
Decal lambda em : 10
=============================================
DATA
Ex : 203
200 4.79375
205 2.43092
210 3.47962
215 4.35473
220 4.82937
225 3.26835
230 10.5662
235 6.98733
240 4.83552
245 4.37493
250 2.02963
255 3.16725
260 7.31559
265 5.61416
270 4.8408
275 6.58927
280 5.11974
285 3.25327
290 2.59666
295 5.19955
300 2.64997
305 3.27062
310 6.52897
315 5.32471
320 8.21347
325 2.93703
330 3.51799
335 2.09889
340 4.7755
345 2.88554
350 1.81152
355 3.70847
360 5.84281
365 5.16115
370 5.2667
375 3.37229
380 3.9947
385 2.72326
390 2.34756
395 3.24968
400 4.2654
405 5.90486
410 3.22808
415 4.84626
420 2.32389
425 5.70665
430 3.32494
435 4.99806
440 3.74867
445 4.24942
450 2.11227
455 3.53839
460 2.73281
465 7.06301
470 6.42216
475 3.74945
480 5.9818
485 7.02128
490 2.84624
495 2.02296
500 4.09152
505 6.28209
510 3.51829
515 1.75049
520 3.16918
525 4.01339
530 5.59183
535 2.89492
540 4.84045
545 4.1921
550 4.18187
555 9.145
560 3.94986
565 1.69588
570 4.19577
575 4.88469
580 5.05144
585 2.29511
590 2.84687
595 4.61423
600 0.525082
Ex : 208
200 2.83871
205 2.25001
210 2.77065
215 6.60675
220 3.70584
225 5.87156
230 6.02107
235 6.35808
240 8.3626
245 3.79652
250 4.50492
255 4.77786
260 4.57944
265 2.5384
270 1.1051
275 2.59051
280 6.74867
285 3.84218
290 7.00422
295 4.62086
300 2.62575
305 3.45882
310 4.16907
315 2.91892
320 5.47214
325 3.07991
330 6.37197
335 3.08645
340 3.13908
345 3.27779
350 2.99663
355 5.2212
360 3.07429
365 4.11476
370 4.50406
375 4.54902
380 5.48784
385 6.76638
390 5.54002
395 2.98602
400 6.06892
405 7.61005
410 4.27671
415 4.8623
420 6.22502
425 2.78187
430 3.61129
435 3.21187
440 5.04801
445 5.24036
450 4.02299
455 2.4918
460 3.2767
465 5.46272
470 5.26715
475 8.20267
480 6.14476
485 4.9294
490 4.22566
495 5.21436
500 2.80603
505 2.01593
510 3.46863
515 5.21828
520 6.0695
525 4.15141
530 3.63192
535 7.71607
540 7.00092
545 3.54572
550 6.78298
555 3.71534
560 10.0469
565 5.90364
570 4.34489
575 3.66495
580 3.21468
585 2.45511
590 4.53316
595 5.00261
600 5.17754
Ex : 213
200 2.03947
205 2.54606
210 4.71496
215 6.51088
220 3.38786
225 5.7272
230 5.65245
235 2.58827
240 4.63756
245 2.44582
250 5.8281
255 6.85549
260 2.95941
265 6.18806
270 5.81387
275 2.71949
280 1.11567
285 2.88073
290 4.17219
295 6.74497
300 2.86063
305 4.01328
310 5.03946
315 2.75582
320 9.79536
325 3.07869
330 3.69275
335 7.69891
340 4.51608
345 3.65939
350 5.12059
355 5.19935
360 3.87979
365 4.7762
370 3.85512
375 6.30422
380 3.32745
385 3.80642
390 4.14186
395 8.99385
400 5.02336
405 3.76916
410 4.74018
415 3.91159
420 5.01042
425 6.53918
430 5.88172
435 3.16423
440 3.8488
445 6.34789
450 5.29264
455 3.09263
460 2.71514
465 2.88182
470 4.58391
475 5.77162
480 5.41938
485 6.83244
490 4.08969
495 4.05049
500 4.23837
505 4.15624
510 4.75823
515 7.3681
520 5.75745
525 3.37326
530 6.7163
535 2.96409
540 5.46306
545 5.35619
550 7.58405
555 7.65727
560 6.37892
565 4.61011
570 7.29596
575 4.48515
580 6.48061
585 3.00545
590 2.03604
595 3.0763
600 0.350071
Ex : 218
200 3.19333
205 3.20036
210 5.3696
215 4.51866
220 1.50137
225 3.96336
230 4.88203
235 2.04961
240 6.11391
245 6.87673
250 4.44998
255 3.36383
260 6.80628
265 5.53421
270 4.7753
275 4.56361
280 4.83359
285 3.86885
290 3.17185
295 5.15941
300 2.75139
305 3.30119
310 2.94796
315 6.37236
320 4.85284
325 5.4066
330 4.59749
335 2.99616
340 2.8536
345 2.87784
350 6.82265
355 7.34263
360 2.17323
365 3.40081
370 2.70034
375 7.22539
380 5.708
385 4.89024
390 3.8059
395 3.35533
400 3.47246
405 7.90953
410 3.9246
415 4.44588
420 6.23439
425 6.65968
430 5.22362
435 4.83512
440 8.00167
445 4.45537
450 4.1014
455 4.47766
460 5.45552
465 6.55065
470 3.32826
475 5.89169
480 2.58397
485 2.40933
490 6.04255
495 4.86854
500 4.89237
505 5.49762
510 4.7091
515 5.46852
520 4.07383
525 7.02721
530 3.78478
535 6.56027
540 7.37137
545 5.12023
550 6.07507
555 3.06444
560 6.78884
565 2.79145
570 4.656
575 3.45489
580 4.10705
585 2.22841
590 2.08818
595 3.20805
600 0.365064
Ex : 223
200 1.68243
205 5.59675
210 6.02058
215 2.73681
220 3.13374
225 5.84104
230 3.05797
235 4.40407
240 4.99674
245 4.09681
250 3.16334
255 3.69801
260 5.09953
265 2.63171
270 3.62007
275 4.00453
280 4.25222
285 5.04867
290 4.15236
295 4.13095
300 3.59083
305 2.74954
310 4.68723
315 1.78551
320 4.81463
325 4.14951
330 2.33169
335 3.46158
340 6.13236
345 6.05051
350 5.9577
355 5.14264
360 5.08108
365 4.196
370 2.96497
375 3.74425
380 5.95319
385 3.06767
390 4.56274
395 3.65786
400 6.86284
405 5.79224
410 4.86565
415 6.87991
420 8.8955
425 3.80765
430 2.79113
435 4.51791
440 4.5685
445 3.50445
450 3.48346
455 2.53301
460 4.78969
465 5.67718
470 3.66023
475 5.03501
480 3.67202
485 5.27494
490 8.24094
495 3.5964
500 6.90455
505 4.72
510 2.94101
515 3.46245
520 2.38109
525 3.79376
530 5.6375
535 3.92833
540 4.12477
545 2.23648
550 3.5006
555 5.01594
560 3.01532
565 8.57301
570 2.53751
575 3.03204
580 7.62984
585 3.54259
590 2.85854
595 2.41216
600 12.3859
Ex : 228
200 1.85965
205 0.355763
210 3.84565
215 2.96591
220 4.67006
225 5.1934
230 5.83002
235 1.89369
240 2.62013
245 2.16843
250 2.71618
255 4.31581
260 4.47635
265 2.50194
270 1.8486
275 2.38789
280 2.99543
285 4.37099
290 3.29959
295 6.02627
300 4.77512
305 2.93614
310 2.14554
315 3.06196
320 2.20051
325 4.13421
330 6.34224
335 2.09534
340 2.59458
345 4.43087
350 2.99853
355 5.0193
360 5.40402
365 4.04016
370 4.31568
375 2.09982
380 5.06876
385 6.29543
390 4.87998
395 6.21139
400 3.93317
405 4.60198
410 6.32094
415 7.13802
420 5.33192
425 2.76282
430 3.99555
435 4.22365
440 6.88816
445 5.03114
450 4.04393
455 5.03631
460 4.67991
465 5.23709
470 4.72003
475 3.8263
480 2.89824
485 5.03677
490 7.05511
495 3.48243
500 5.33605
505 5.26627
510 4.8915
515 2.56642
520 0.977801
525 2.8595
530 5.00651
535 4.10941
540 3.94263
545 9.11716
550 3.71746
555 2.43345
560 1.81267
565 3.74054
570 4.13928
575 2.71682
580 3.10876
585 1.90344
590 2.91375
595 3.98094
600 31.027
Ex : 233
200 4.04598
205 2.86583
210 1.3551
215 4.8757
220 3.72339
225 3.95878
230 4.17157
235 3.35146
240 3.39734
245 4.54893
250 3.2828
255 3.20279
260 2.12744
265 1.80181
270 4.10811
275 2.54835
280 3.8025
285 4.46631
290 2.46181
295 3.8058
300 2.44149
305 3.28511
310 3.80284
315 2.57152
320 6.65718
325 3.58754
330 4.43999
335 10.7387
340 3.51873
345 3.89419
350 4.65261
355 2.12858
360 5.93634
365 3.0929
370 2.53793
375 3.92636
380 5.89858
385 2.69037
390 3.49649
395 3.70738
400 3.19932
405 3.61991
410 3.09437
415 3.18499
420 3.91689
425 4.45643
430 6.37319
435 4.00225
440 2.10055
445 4.56891
450 2.55865
455 4.58806
460 2.84173
465 2.3443
470 1.89227
475 4.85233
480 5.07182
485 7.5957
490 3.43902
495 4.76393
500 4.15624
505 4.1679
510 2.32504
515 3.9052
520 8.1012
525 4.22719
530 1.93119
535 7.67193
540 5.40592
545 3.96359
550 4.43643
555 4.80642
560 4.03339
565 6.62696
570 2.54645
575 3.19104
580 7.56168
585 2.75106
590 4.49374
595 4.56599
600 0.519592
Ex : 238
200 3.77376
205 4.37624
210 2.61162
215 2.28781
220 3.01695
225 1.75951
230 3.1073
235 1.244
240 2.55
245 5.77663
250 5.49611
255 3.35153
260 2.46998
265 2.50265
270 2.59295
275 3.34114
280 3.3096
285 1.76355
290 3.21868
295 2.67735
300 2.04711
305 1.32274
310 2.70117
315 1.45224
320 2.52003
325 3.13403
330 2.5546
335 3.38364
340 5.30438
345 2.68465
350 2.03919
355 3.86424
360 4.52856
365 4.42003
370 5.42309
375 3.77792
380 4.664
385 4.76713
390 2.04097
395 6.78517
400 3.40933
405 2.51648
410 2.32719
415 2.35485
420 3.13296
425 4.36198
430 6.11904
435 3.80029
440 2.36101
445 5.43352
450 3.1182
455 3.38059
460 3.12228
465 3.35132
470 2.19109
475 1.76564
480 2.71404
485 4.96029
490 6.28259
495 2.00914
500 2.53627
505 4.5227
510 3.94871
515 1.77235
520 2.16524
525 1.95255
530 3.93199
535 7.03886
540 5.58999
545 1.50081
550 2.61456
555 1.36618
560 5.26247
565 2.70525
570 2.68952
575 2.70499
580 3.69547
585 4.15998
590 3.91169
595 5.02385
600 0.571696
Ex : 243
200 3.98739
205 2.8973
210 3.00346
215 1.05646
220 1.62325
225 1.62433
230 1.81083
235 4.82426
240 3.5043
245 2.93823
250 2.34715
255 2.67804
260 3.26347
265 1.98784
270 2.93557
275 1.74668
280 2.12132
285 2.52337
290 4.17957
295 2.83518
300 1.68046
305 2.0046
310 1.54074
315 3.73175
320 3.75938
325 5.60701
330 3.33851
335 2.42881
340 1.05134
345 2.38059
350 1.80873
355 4.0879
360 3.70145
365 3.03162
370 4.7682
375 2.90581
380 3.85987
385 2.06783
390 3.9988
395 3.08609
400 5.62846
405 3.11588
410 3.54767
415 3.47785
420 1.51599
425 2.15987
430 2.83205
435 4.29883
440 2.7815
445 2.05485
450 2.60657
455 2.65864
460 2.68625
465 2.88026
470 2.36234
475 1.60192
480 2.34264
485 1.83959
490 2.49481
495 0.986617
500 2.49044
505 4.51103
510 3.35213
515 3.26806
520 2.82156
525 5.82124
530 3.48627
535 1.92848
540 4.66623
545 2.44086
550 2.42409
555 1.80484
560 2.6592
565 1.65693
570 3.08531
575 2.73416
580 2.10897
585 3.2133
590 2.56589
595 0.985867
600 0.112188
Ex : 248
200 2.17986
205 1.42441
210 2.42758
215 4.83822
220 4.27455
225 1.85911
230 1.65048
235 2.17317
240 1.50328
245 2.24841
250 3.37318
255 3.82913
260 2.21136
265 3.2991
270 2.33572
275 1.5813
280 3.23346
285 2.04258
290 2.15048
295 1.7467
300 1.67256
305 2.28215
310 1.38788
315 3.05409
320 2.74346
325 2.0846
330 2.10916
335 2.2392
340 2.44732
345 2.68256
350 2.17393
355 1.51946
360 3.05307
365 6.14949
370 3.03765
375 1.55016
380 3.94439
385 2.6494
390 2.78414
395 0.877875
400 1.75952
405 1.57261
410 3.15193
415 2.13782
420 3.05204
425 3.25604
430 3.72426
435 2.84756
440 2.19695
445 3.64932
450 1.85111
455 2.74841
460 3.29704
465 2.66612
470 2.41325
475 3.62019
480 2.0404
485 3.69018
490 2.53022
495 2.55232
500 3.58661
505 2.6033
510 0.962448
515 2.3888
520 1.3244
525 2.25397
530 2.80355
535 1.18347
540 1.16806
545 2.53254
550 3.02387
555 2.02939
560 3.11418
565 1.12825
570 1.70854
575 1.78698
580 1.30224
585 2.84174
590 1.4072
595 1.44315
600 0.164225
Ex : 253
200 0.685393
205 3.04376
210 1.25826
215 2.80952
220 2.17221
225 1.58953
230 2.52672
235 2.24392
240 1.14921
245 1.57516
250 1.02471
255 1.83964
260 2.32221
265 2.21083
270 2.77484
275 0.893725
280 1.27107
285 1.48768
290 1.19461
295 2.16419
300 1.9596
305 0.851582
310 2.71095
315 1.47322
320 2.02445
325 1.64154
330 1.84875
335 2.09549
340 2.71319
345 2.26494
350 1.04828
355 2.49791
360 2.16151
365 1.61791
370 3.48934
375 2.6406
380 1.8808
385 2.97363
390 3.19252
395 2.10703
400 1.81609
405 3.72074
410 1.75145
415 1.25215
420 3.48379
425 2.68686
430 2.73295
435 2.55771
440 2.7494
445 1.48196
450 3.65539
455 3.1158
460 2.83094
465 2.77778
470 3.45401
475 3.02341
480 1.50511
485 2.65878
490 3.98449
495 4.1305
500 2.49672
505 1.49587
510 2.77975
515 2.48829
520 2.32962
525 1.76543
530 2.62034
535 2.62039
540 2.6614
545 0.83147
550 0.877305
555 2.15444
560 2.20693
565 2.27086
570 3.59348
575 3.14834
580 2.55219
585 1.39377
590 1.24971
595 1.61495
600 0.183775
Ex : 258
200 1.21315
205 0.565588
210 1.76156
215 1.33113
220 1.51639
225 1.1886
230 1.5593
235 1.39246
240 1.65925
245 1.56451
250 1.38103
255 1.45852
260 0.832678
265 0.995319
270 2.09308
275 1.77414
280 1.20432
285 0.522266
290 0.865072
295 0.612241
300 0.627495
305 1.79035
310 2.22558
315 1.19881
320 2.75538
325 2.29601
330 1.21261
335 1.193
340 3.18108
345 1.20782
350 2.22608
355 0.75712
360 1.94209
365 1.92725
370 2.46626
375 2.64726
380 1.92872
385 2.29059
390 1.19319
395 1.06301
400 1.32961
405 2.55643
410 0.731999
415 1.07728
420 3.21919
425 0.844633
430 1.63009
435 1.02538
440 2.54059
445 2.77979
450 1.24183
455 1.61558
460 1.42938
465 1.25584
470 2.03579
475 2.19818
480 2.36573
485 1.4535
490 0.879955
495 1.78562
500 1.6346
505 1.4789
510 1.43459
515 1.18843
520 2.02073
525 1.34854
530 1.5539
535 1.12925
540 1.03702
545 1.30628
550 2.62558
555 0.850106
560 0.658868
565 0.93279
570 1.0602
575 1.05454
580 1.70119
585 2.30235
590 1.0295
595 3.39916
600 0.386812
Ex : 263
200 1.03025
205 0.690296
210 1.1591
215 1.64798
220 0.641557
225 0.71409
230 0.733916
235 0.59491
240 1.0542
245 1.28743
250 1.01372
255 1.15485
260 0.630859
265 0.866584
270 0.698384
275 0.748068
280 1.45827
285 2.06737
290 0.870502
295 0.640892
300 0.851061
305 1.29116
310 1.06237
315 0.722079
320 0.801818
325 2.21146
330 1.01638
335 1.53168
340 2.16034
345 0.714371
350 1.09929
355 1.21668
360 1.14579
365 1.30461
370 0.904477
375 1.17512
380 1.01531
385 1.28818
390 1.26023
395 1.07993
400 0.780398
405 0.970354
410 2.07838
415 1.83479
420 2.38591
425 1.48095
430 1.13602
435 1.10779
440 0.920051
445 1.14599
450 1.07364
455 0.804362
460 2.18731
465 1.48249
470 1.4004
475 1.12289
480 0.568479
485 1.48262
490 1.14654
495 0.887405
500 0.994827
505 1.02354
510 0.981324
515 1.49843
520 0.690279
525 1.61984
530 1.56131
535 1.88432
540 0.997585
545 1.46483
550 1.2574
555 0.567189
560 1.40718
565 1.03098
570 1.0112
575 1.19352
580 0.704297
585 1.52639
590 1.30502
595 1.0378
600 0.118098
Ex : 268
200 0.776685
205 1.64199
210 0.932179
215 1.64604
220 1.32185
225 1.06094
230 1.25698
235 1.46255
240 1.25648
245 0.673717
250 0.538611
255 0.821242
260 0.577169
265 0.519767
270 1.16721
275 1.06901
280 0.730379
285 0.557909
290 0.651426
295 0.896771
300 0.577064
305 0.55732
310 0.514076
315 0.864029
320 0.360719
325 0.425234
330 1.47554
335 1.08337
340 0.611302
345 1.34456
350 0.775182
355 1.06049
360 1.17104
365 0.681275
370 1.3096
375 1.05964
380 0.969862
385 0.990303
390 0.965984
395 0.950076
400 0.609339
405 0.955544
410 1.38174
415 1.05203
420 0.872868
425 0.931824
430 1.81621
435 0.831217
440 0.674268
445 0.882928
450 0.8087
455 0.505015
460 1.42594
465 1.31187
470 0.845501
475 1.6035
480 1.13048
485 0.884056
490 0.711603
495 0.517375
500 1.50498
505 1.62341
510 1.15139
515 1.86528
520 0.911703
525 1.16891
530 0.884228
535 1.02509
540 0.892544
545 1.26318
550 0.625216
555 1.03264
560 0.701821
565 0.876234
570 0.504121
575 0.567271
580 1.29293
585 0.879265
590 0.453068
595 0.886944
600 5.05325
Ex : 273
200 0.855395
205 1.2136
210 0.70052
215 1.02585
220 1.07328
225 0.344934
230 0.343885
235 0.85074
240 1.10976
245 0.850644
250 0.75822
255 0.963484
260 0.424037
265 0.582159
270 1.04008
275 0.945349
280 0.319193
285 0.390804
290 0.498429
295 0.724083
300 0.721675
305 1.12384
310 0.753094
315 0.817436
320 0.791971
325 0.768918
330 0.679311
335 1.02624
340 1.35983
345 1.07576
350 0.66257
355 0.674564
360 0.922821
365 0.753191
370 0.55365
375 0.897254
380 1.13896
385 1.02662
390 1.60314
395 0.851058
400 0.737322
405 0.667116
410 1.4638
415 1.24591
420 0.589279
425 1.31328
430 0.961635
435 0.744411
440 0.952931
445 0.911096
450 1.06716
455 0.798194
460 0.413178
465 0.920321
470 0.935668
475 1.17966
480 0.525474
485 0.853035
490 0.707834
495 0.992073
500 0.528211
505 0.605923
510 0.791411
515 0.477342
520 0.879542
525 0.695125
530 1.24737
535 1.50152
540 1.43871
545 0.844018
550 0.495434
555 0.366198
560 0.580928
565 1.11817
570 0.923931
575 0.562151
580 0.677421
585 0.975308
590 1.06049
595 1.01289
600 0.155545
Ex : 278
200 0.226944
205 0.507614
210 0.428154
215 0.359543
220 0.399924
225 0.447084
230 0.406977
235 0.784546
240 0.506411
245 0.510958
250 0.485523
255 0.471339
260 0.334414
265 0.546611
270 0.571143
275 0.251266
280 0.644169
285 0.477164
290 0.315657
295 0.771607
300 0.6658
305 0.55586
310 0.340093
315 0.315236
320 0.648784
325 0.90278
330 0.49516
335 0.945824
340 0.676063
345 0.845137
350 1.20796
355 0.890284
360 0.939044
365 0.739862
370 0.856514
375 1.08054
380 0.718304
385 0.595528
390 0.63223
395 0.727657
400 1.58564
405 0.604729
410 1.47669
415 1.25046
420 0.603963
425 0.378618
430 0.575291
435 0.773136
440 1.33842
445 0.644643
450 0.702563
455 0.356483
460 0.396521
465 0.565656
470 0.517644
475 0.753542
480 0.618757
485 0.523539
490 0.459332
495 0.899733
500 0.640237
505 0.408371
510 0.500008
515 1.0869
520 0.498183
525 1.23776
530 0.641393
535 0.487634
540 0.977916
545 0.379977
550 0.355306
555 0.88364
560 0.634529
565 0.931241
570 0.530408
575 0.728234
580 0.706789
585 0.591795
590 0.645233
595 0.432069
600 0.0491679
Ex : 283
200 0.354525
205 0.345725
210 0.268018
215 0.360993
220 0.28603
225 0.152914
230 0.378299
235 0.285645
240 0.335452
245 0.237834
250 0.293395
255 0.318167
260 0.245078
265 0.482713
270 0.228347
275 0.314778
280 0.645917
285 0.569108
290 0.437552
295 1.10508
300 0.424467
305 0.598612
310 0.526845
315 0.655906
320 0.742752
325 0.451136
330 0.538173
335 0.511696
340 0.731075
345 0.29179
350 0.597213
355 0.658541
360 0.659528
365 1.20953
370 1.161
375 0.48155
380 0.730954
385 0.999211
390 0.688845
395 0.731692
400 0.720697
405 0.424995
410 0.530962
415 0.789846
420 0.547256
425 0.809926
430 0.641829
435 0.897134
440 0.782616
445 0.626416
450 0.336157
455 0.865465
460 0.815954
465 0.587247
470 0.661603
475 0.46358
480 0.371131
485 0.391486
490 0.618598
495 0.540341
500 0.943727
505 0.25364
510 0.349066
515 0.609853
520 0.539154
525 0.926963
530 0.977601
535 0.969017
540 0.275223
545 0.179131
550 0.527733
555 0.837227
560 0.469868
565 0.667877
570 0.428891
575 0.420269
580 0.495229
585 0.55982
590 0.931364
595 0.241609
600 0.0274942
Ex : 288
200 0.373464
205 0.477594
210 0.72703
215 0.430089
220 0.344716
225 0.366219
230 0.332816
235 0.257911
240 0.376028
245 0.175276
250 0.608159
255 0.322486
260 0.541989
265 0.382018
270 0.477679
275 0.347176
280 0.559766
285 0.408365
290 0.271212
295 0.558897
300 0.221593
305 0.532176
310 0.441622
315 0.191801
320 0.362674
325 0.528098
330 0.812129
335 0.748762
340 0.462923
345 0.434385
350 0.678942
355 0.919853
360 0.495712
365 0.766915
370 0.366334
375 0.497197
380 0.527149
385 0.636494
390 0.655343
395 0.551634
400 0.541773
405 0.393632
410 0.595632
415 0.494492
420 0.428565
425 0.717932
430 0.635296
435 0.775684
440 0.531927
445 0.449798
450 0.377711
455 0.627499
460 0.549191
465 0.395581
470 0.574968
475 0.704694
480 0.498862
485 0.473903
490 0.341903
495 0.321257
500 0.462861
505 0.30202
510 0.272727
515 0.699585
520 0.477576
525 0.425564
530 0.23908
535 0.244484
540 0.256945
545 0.395677
550 0.614968
555 0.280323
560 0.534714
565 0.429545
570 0.592218
575 0.493123
580 0.717553
585 0.310874
590 0.499892
595 0.527906
600 0.719046
Ex : 293
200 0.230769
205 0.101451
210 0.318216
215 0.297026
220 0.342393
225 0.278427
230 0.262599
235 0.212225
240 0.221506
245 0.761517
250 0.288643
255 0.237608
260 0.539778
265 0.336502
270 0.329123
275 0.279833
280 0.663575
285 0.220545
290 0.412692
295 0.33326
300 0.432054
305 0.263449
310 0.408369
315 0.609005
320 0.370063
325 0.329019
330 0.967189
335 0.546398
340 0.367572
345 0.422848
350 0.534913
355 0.513371
360 0.626608
365 0.50524
370 0.505781
375 0.466938
380 0.52819
385 0.672761
390 0.695907
395 0.852623
400 0.799567
405 0.432164
410 0.994649
415 0.737996
420 0.604443
425 0.58217
430 0.76882
435 0.500417
440 0.578602
445 0.504464
450 0.342324
455 0.497402
460 0.219838
465 0.571028
470 0.400593
475 0.392279
480 0.342718
485 0.370557
490 0.539445
495 0.489695
500 0.347035
505 0.332842
510 0.447256
515 0.243033
520 0.234833
525 0.492204
530 0.750268
535 0.323733
540 0.388039
545 0.461892
550 0.220504
555 0.503226
560 0.382646
565 0.225353
570 0.15524
575 0.521558
580 0.971325
585 0.384304
590 0.334718
595 0.38296
600 0.0435794
Ex : 298
200 0.122831
205 0.496399
210 0.557583
215 0.279311
220 0.147199
225 0.605928
230 0.186783
235 0.224344
240 0.258484
245 0.12227
250 0.35099
255 0.258541
260 0.117511
265 0.210124
270 0.236503
275 0.282432
280 0.40715
285 0.212495
290 0.449886
295 0.27408
300 0.455345
305 0.413758
310 0.467316
315 0.153958
320 0.153326
325 0.304425
330 0.293307
335 0.62472
340 0.328376
345 0.563615
350 0.475237
355 0.338858
360 0.290948
365 0.565399
370 0.528601
375 0.460413
380 0.8289
385 0.508158
390 0.624216
395 0.449486
400 0.447437
405 0.646073
410 0.616678
415 0.638707
420 0.422316
425 0.477171
430 0.553224
435 0.513759
440 0.376693
445 0.501248
450 0.327393
455 0.445645
460 0.338152
465 0.486066
470 0.384673
475 0.534526
480 0.361917
485 0.360793
490 0.48009
495 0.542782
500 0.268831
505 0.332642
510 0.247926
515 0.421809
520 0.428326
525 0.353729
530 0.174314
535 0.504601
540 0.432024
545 0.383077
550 0.397993
555 0.239045
560 0.204853
565 0.344525
570 0.224983
575 0.211002
580 0.359676
585 0.310254
590 0.474746
595 0.287992
600 0.0327724
Ex : 303
200 0.0797159
205 0.279064
210 0.355035
215 0.332522
220 0.200482
225 0.241021
230 0.288493
235 0.157617
240 0.137958
245 0.0990898
250 0.145398
255 0.175185
260 0.28829
265 0.159457
270 0.198623
275 0.336111
280 0.391111
285 0.288989
290 0.318089
295 0.168598
300 0.442915
305 0.302651
310 0.217499
315 0.269976
320 0.244133
325 0.173786
330 0.384369
335 0.336801
340 0.464156
345 0.529277
350 0.340896
355 0.34238
360 0.307593
365 0.396568
370 0.560108
375 0.685981
380 0.461848
385 0.427189
390 0.376875
395 0.588624
400 0.559632
405 0.378041
410 0.554697
415 0.335502
420 0.458444
425 0.553481
430 0.34762
435 0.6434
440 0.381355
445 0.707337
450 0.373545
455 0.351599
460 0.395271
465 0.383451
470 0.401761
475 0.586459
480 0.495637
485 0.35842
490 0.30987
495 0.229494
500 0.524846
505 0.306364
510 0.340426
515 0.264248
520 0.364414
525 0.190467
530 0.376085
535 0.43639
540 0.234094
545 0.304041
550 0.159471
555 0.215279
560 0.218642
565 0.234641
570 0.176858
575 0.267627
580 0.268269
585 0.505544
590 0.35444
595 0.312633
600 0.486189
Ex : 308
200 0.100034
205 0.134122
210 0.217249
215 0.285808
220 0.204428
225 0.213076
230 0.151602
235 0.223908
240 0.073232
245 0.408673
250 0.276216
255 0.241364
260 0.230568
265 0.103299
270 0.314316
275 0.304959
280 0.406018
285 0.279186
290 0.182158
295 0.373242
300 0.187047
305 0.0983061
310 0.203342
315 0.343681
320 0.183764
325 0.238462
330 0.278828
335 0.215799
340 0.312185
345 0.307307
350 0.43041
355 0.406857
360 0.167959
365 0.354843
370 0.407149
375 0.461673
380 0.626144
385 0.522953
390 0.645071
395 0.608706
400 0.844812
405 0.772964
410 0.461535
415 0.415674
420 0.438773
425 0.481687
430 0.728802
435 0.625072
440 0.302274
445 0.342937
450 0.349427
455 0.361935
460 0.42861
465 0.456274
470 0.350629
475 0.408972
480 0.292346
485 0.286024
490 0.168273
495 0.44747
500 0.355649
505 0.31953
510 0.378094
515 0.411278
520 0.433862
525 0.387987
530 0.287138
535 0.199552
540 0.177956
545 0.137811
550 0.534458
555 0.470241
560 0.119701
565 0.111371
570 0.128507
575 0.169779
580 0.206326
585 0.209107
590 0.273608
595 0.179042
600 0.0456944
Ex : 313
200 0.158893
205 0.0804287
210 0.149863
215 0.185829
220 0.194981
225 0.088532
230 0.241401
235 0.139665
240 0.124523
245 0.265059
250 0.242181
255 0.232317
260 0.129671
265 0.151137
270 0.176646
275 0.27596
280 0.136878
285 0.109454
290 0.167817
295 0.14708
300 0.257639
305 0.235292
310 0.16553
315 0.121507
320 0.192743
325 0.378017
330 0.257135
335 0.379185
340 0.433562
345 0.359969
350 0.199165
355 0.407097
360 0.378652
365 0.481855
370 0.676844
375 0.557407
380 0.623777
385 0.795837
390 0.891622
395 0.963468
400 0.960169
405 1.02063
410 0.947416
415 0.730712
420 0.84878
425 0.806838
430 0.709448
435 0.817974
440 0.900151
445 0.872542
450 0.608034
455 0.603817
460 0.822796
465 0.589157
470 0.427611
475 0.579355
480 0.580957
485 0.472924
490 0.394893
495 0.589397
500 0.466927
505 0.437519
510 0.278666
515 0.247412
520 0.226384
525 0.242576
530 0.241515
535 0.163055
540 0.237942
545 0.110976
550 0.299675
555 0.288154
560 0.281583
565 0.0718
570 0.248291
575 0.198833
580 0.122987
585 0.161202
590 0.108186
595 0.2404
600 0.0273566
Ex : 318
200 0.207405
205 0.312322
210 0.162933
215 0.158885
220 0.235311
225 0.19342
230 0.142435
235 0.255522
240 0.274846
245 0.186314
250 0.182265
255 0.0777385
260 0.254562
265 0.218369
270 0.15597
275 0.107539
280 0.166474
285 0.11893
290 0.0791696
295 0.162464
300 0.16559
305 0.213504
310 0.370697
315 1.25322
320 1.01445
325 0.61805
330 0.693108
335 1.12826
340 1.33181
345 1.48279
350 2.08456
355 2.62456
360 3.69152
365 4.34057
370 5.42535
375 6.37283
380 7.37792
385 7.59061
390 8.46377
395 9.50372
400 9.04902
405 10.366
410 9.48891
415 10.0932
420 10.0959
425 9.44069
430 8.96
435 8.19163
440 7.89807
445 7.42843
450 7.18024
455 6.62534
460 6.3812
465 5.50266
470 4.99549
475 4.66838
480 4.02538
485 3.99308
490 3.29781
495 3.00496
500 2.3698
505 1.96102
510 1.90251
515 1.58934
520 1.43891
525 1.08676
530 1.05785
535 0.796059
540 0.641036
545 0.693458
550 0.447905
555 0.49252
560 0.354708
565 0.204928
570 0.402441
575 0.306711
580 0.167283
585 0.185379
590 0.295454
595 0.2833
600 0.0322385
Ex : 323
200 0.0422101
205 0.128287
210 0.158059
215 0.149466
220 0.148543
225 0.255064
230 0.124499
235 0.103235
240 0.126753
245 0.347442
250 0.221042
255 0.132952
260 0.105519
265 0.167131
270 0.217429
275 0.150646
280 0.0903916
285 0.270194
290 0.0979573
295 0.144813
300 0.115615
305 0.161605
310 0.103884
315 12.9186
320 57.0234
325 24.1103
330 4.83855
335 3.51697
340 4.67704
345 5.86902
350 8.49579
355 12.0702
360 14.6298
365 17.6133
370 20.4528
375 23.5413
380 27.4832
385 32.0455
390 33.6597
395 35.4172
400 36.0968
405 37.3962
410 37.275
415 37.5251
420 36.1773
425 34.1526
430 33.1192
435 31.7458
440 30.848
445 30.1397
450 27.3359
455 25.8495
460 23.9517
465 22.2579
470 20.524
475 18.8065
480 16.756
485 14.529
490 13.4681
495 12.7221
500 10.8093
505 9.4104
510 7.91422
515 7.15478
520 6.49924
525 5.16195
530 4.39101
535 3.34443
540 2.79551
545 2.59934
550 2.10068
555 1.82057
560 1.74977
565 1.25429
570 0.837119
575 0.67346
580 0.625583
585 0.412937
590 0.448238
595 0.256306
600 0.109731
Ex : 328
200 0.187688
205 0.119953
210 0.0810538
215 0.19896
220 0.218619
225 0.143077
230 0.240432
235 0.122523
240 0.115629
245 0.148211
250 0.171096
255 0.102259
260 0.0660274
265 0.300288
270 0.175735
275 0.107726
280 0.221206
285 0.187016
290 0.146207
295 0.215099
300 0.13692
305 0.276893
310 0.166521
315 3.30225
320 133.157
325 309.299
330 89.8527
335 14.5918
340 6.86674
345 7.59075
350 9.25781
355 13.1221
360 18.2705
365 20.5287
370 22.9018
375 25.9929
380 29.6762
385 33.1077
390 35.6875
395 38.6636
400 40.3841
405 39.1908
410 40.7924
415 40.0614
420 38.2522
425 37.1652
430 34.8514
435 32.8055
440 31.6749
445 30.4858
450 28.2565
455 26.1543
460 24.0558
465 22.4542
470 20.832
475 18.8295
480 17.95
485 15.5416
490 14.353
495 12.7121
500 11.0608
505 9.68037
510 8.83384
515 7.38842
520 6.14867
525 5.46929
530 4.74967
535 4.18483
540 3.26162
545 3.10194
550 2.19574
555 2.02132
560 1.85453
565 1.52998
570 1.125
575 1.1033
580 0.774922
585 0.582581
590 0.40102
595 0.490648
600 0.104172
Ex : 333
200 0.16657
205 0.165757
210 0.204444
215 0.184393
220 0.135237
225 0.126361
230 0.208226
235 0.189642
240 0.118387
245 0.0864984
250 0.119427
255 0.13101
260 0.23659
265 0.123578
270 0.0921041
275 0.109721
280 0.176759
285 0.163978
290 0.111158
295 0.22408
300 0.221628
305 0.256169
310 0.25433
315 0.226975
320 18.4516
325 359.446
330 591.551
335 154.287
340 21.8733
345 7.17468
350 6.34899
355 7.1397
360 10.1926
365 14.4561
370 15.7077
375 15.3119
380 16.1586
385 19.5672
390 22.1317
395 23.6096
400 22.9512
405 23.574
410 24.5594
415 23.8628
420 23.0646
425 21.3382
430 20.0386
435 19.3497
440 18.6527
445 18.1598
450 15.7941
455 14.6031
460 13.8583
465 12.83
470 11.8439
475 10.7673
480 9.5435
485 8.29803
490 8.33041
495 7.30552
500 6.53469
505 5.40607
510 4.66608
515 4.23533
520 3.67543
525 2.91514
530 2.71287
535 2.52797
540 1.73157
545 1.66072
550 1.61823
555 1.65659
560 1.42622
565 0.981746
570 0.806682
575 0.594511
580 0.499994
585 0.485622
590 0.392756
595 0.319412
600 0.0508758
Ex : 338
200 0.0771403
205 0.166514
210 0.179201
215 0.145221
220 0.132042
225 0.114527
230 0.190337
235 0.0880259
240 0.138173
245 0.0897048
250 0.180208
255 0.187023
260 0.144987
265 0.153045
270 0.103729
275 0.1194
280 0.112582
285 0.188183
290 0.138729
295 0.270811
300 0.283042
305 0.252929
310 0.219659
315 0.206552
320 0.427581
325 34.7224
330 527.665
335 775.05
340 188.442
345 25.0279
350 6.76042
355 4.54512
360 4.4088
365 6.19837
370 10.8038
375 10.5879
380 9.52193
385 10.8425
390 12.7646
395 13.6622
400 13.5233
405 13.9252
410 14.6591
415 15.1287
420 13.8191
425 13.1133
430 11.5615
435 11.4955
440 11.144
445 10.2058
450 9.68678
455 8.68425
460 8.02968
465 7.42212
470 6.78775
475 6.2758
480 5.75314
485 5.59296
490 4.73312
495 4.58109
500 3.92987
505 3.24617
510 3.05778
515 2.49769
520 2.24514
525 2.08765
530 1.69616
535 1.55184
540 1.49515
545 1.1887
550 1.05659
555 1.03563
560 1.06331
565 0.786559
570 0.633885
575 0.698378
580 0.663873
585 0.521862
590 0.332695
595 0.409498
600 1.07722
Ex : 343
200 0.075777
205 0.162283
210 0.120976
215 0.0783616
220 0.109749
225 0.151939
230 0.0799524
235 0.0932397
240 0.16328
245 0.222073
250 0.0955453
255 0.109403
260 0.173694
265 0.117318
270 0.139868
275 0.118796
280 0.187985
285 0.130224
290 0.111049
295 0.210823
300 0.230369
305 0.218552
310 0.128851
315 0.152398
320 0.288099
325 0.695859
330 39.4396
335 602.518
340 868.316
345 206.589
350 26.4846
355 6.00082
360 3.4721
365 2.78922
370 3.86063
375 7.72177
380 9.88088
385 9.61764
390 10.918
395 11.03
400 10.1972
405 10.9292
410 12.4914
415 12.5448
420 11.7941
425 10.6731
430 9.7368
435 9.21194
440 9.4905
445 8.10433
450 7.98199
455 7.32187
460 6.50456
465 6.20204
470 5.85564
475 5.29754
480 4.88823
485 4.41098
490 4.05629
495 3.51509
500 3.45183
505 3.03228
510 2.52026
515 2.61155
520 2.12219
525 1.92524
530 1.63136
535 1.48019
540 1.3631
545 1.01319
550 1.14343
555 1.01618
560 0.828469
565 0.639135
570 0.539004
575 0.639126
580 0.472975
585 0.39113
590 0.322163
595 0.402245
600 0.634594
Ex : 348
200 0.143971
205 0.0612794
210 0.14772
215 0.044232
220 0.138795
225 0.0832416
230 0.0940056
235 0.0934256
240 0.0822252
245 0.187519
250 0.123315
255 0.156501
260 0.161043
265 0.226245
270 0.10985
275 0.133616
280 0.183043
285 0.112819
290 0.158629
295 0.10818
300 0.151228
305 0.156084
310 0.107688
315 0.190527
320 0.212854
325 0.33552
330 1.00595
335 38.9191
340 608.65
345 911.026
350 229.055
355 28.8817
360 5.83844
365 2.94542
370 2.19863
375 2.68235
380 7.14022
385 12.0661
390 13.5128
395 13.5732
400 12.0863
405 12.4731
410 13.8892
415 14.5812
420 13.8919
425 11.9024
430 10.9549
435 10.9882
440 10.7481
445 10.1681
450 8.8029
455 7.86764
460 7.06112
465 6.77507
470 6.59076
475 5.55947
480 5.17095
485 4.71579
490 4.24257
495 3.86577
500 3.77524
505 3.33506
510 2.84775
515 2.28265
520 2.28832
525 1.9518
530 1.72393
535 1.4862
540 1.59304
545 1.17691
550 1.24991
555 1.17143
560 0.968189
565 0.712938
570 0.601977
575 0.528607
580 0.463488
585 0.471625
590 0.437849
595 0.310838
600 0.123442
Ex : 353
200 0.106889
205 0.145935
210 0.115803
215 0.11943
220 0.117547
225 0.0911996
230 0.088066
235 0.131812
240 0.0930171
245 0.0684155
250 0.0774183
255 0.148737
260 0.121055
265 0.0934441
270 0.131953
275 0.164427
280 0.079774
285 0.153819
290 0.201199
295 0.118335
300 0.115472
305 0.148357
310 0.116008
315 0.103593
320 0.147078
325 0.369165
330 0.537465
335 0.982857
340 41.3302
345 627.571
350 908.547
355 221.363
360 27.9377
365 5.50749
370 3.05488
375 2.21073
380 3.44021
385 9.28715
390 16.3155
395 16.7805
400 14.4062
405 13.2306
410 14.7246
415 16.3151
420 15.6068
425 13.954
430 12.5973
435 11.9405
440 11.7919
445 11.4528
450 9.92917
455 8.38572
460 7.91002
465 7.59665
470 6.99898
475 6.58349
480 6.01647
485 5.10407
490 4.9136
495 4.44074
500 3.71703
505 3.32115
510 3.18607
515 3.07311
520 2.5054
525 2.25687
530 1.9494
535 1.67043
540 1.46617
545 1.28964
550 1.13308
555 1.04881
560 0.922241
565 0.831603
570 0.705113
575 0.598109
580 0.493391
585 0.346647
590 0.322322
595 0.313196
600 0.0356405
Ex : 358
200 0.0783125
205 0.0752889
210 0.127749
215 0.103283
220 0.0669434
225 0.0880893
230 0.148443
235 0.125738
240 0.116829
245 0.0622894
250 0.0781614
255 0.088525
260 0.108756
265 0.151802
270 0.0753677
275 0.161973
280 0.126191
285 0.132747
290 0.119754
295 0.234809
300 0.125464
305 0.0957232
310 0.157065
315 0.15741
320 0.172015
325 0.226967
330 0.414315
335 0.466862
340 1.05691
345 38.7366
350 604.633
355 917.929
360 227.063
365 28.5319
370 5.56876
375 3.21759
380 3.54338
385 6.32773
390 11.7465
395 17.0477
400 15.3116
405 14.2734
410 14.4826
415 15.6772
420 14.5769
425 12.5337
430 11.3639
435 11.205
440 11.1091
445 10.5291
450 9.52982
455 8.24087
460 7.88857
465 7.04844
470 6.60194
475 6.51171
480 5.96335
485 5.08313
490 5.15179
495 4.41358
500 3.99985
505 3.84529
510 3.21352
515 2.88904
520 2.74417
525 2.28874
530 1.93604
535 1.86623
540 1.61631
545 1.43761
550 1.11765
555 1.15374
560 0.80651
565 0.805125
570 0.648303
575 0.59332
580 0.592165
585 0.468584
590 0.30099
595 0.276529
600 0.0408956
Ex : 363
200 0.13009
205 0.132493
210 0.102472
215 0.0495609
220 0.122423
225 0.135526
230 0.126638
235 0.0967722
240 0.0852592
245 0.149818
250 0.0833848
255 0.0872797
260 0.077786
265 0.0720382
270 0.10505
275 0.0744091
280 0.081588
285 0.0811929
290 0.119683
295 0.187318
300 0.0704731
305 0.125077
310 0.165719
315 0.160956
320 0.121908
325 0.186744
330 0.23696
335 0.380682
340 0.605452
345 0.967883
350 34.584
355 582.479
360 916.444
365 234.745
370 29.3259
375 5.47382
380 4.95219
385 8.01508
390 11.666
395 13.5664
400 15.8871
405 16.87
410 17.2861
415 17.3667
420 15.6325
425 13.87
430 12.4722
435 12.3459
440 11.9932
445 11.2024
450 10.2984
455 9.26884
460 8.74142
465 8.09446
470 7.36982
475 7.25396
480 6.3965
485 5.66688
490 5.15777
495 4.9491
500 3.9989
505 3.84983
510 3.62005
515 2.9855
520 2.77209
525 2.41924
530 2.23374
535 1.9487
540 1.80413
545 1.45018
550 1.48452
555 1.08231
560 0.840282
565 0.977737
570 0.672395
575 0.668909
580 0.430959
585 0.405665
590 0.395194
595 0.25703
600 0.291993
Ex : 368
200 0.0540271
205 0.0374165
210 0.160758
215 0.0815728
220 0.0929463
225 0.0837915
230 0.0830704
235 0.173506
240 0.0944738
245 0.0484636
250 0.0648123
255 0.125748
260 0.085942
265 0.0790437
270 0.149326
275 0.130272
280 0.0800434
285 0.0953237
290 0.0925479
295 0.0892418
300 0.112621
305 0.103562
310 0.096529
315 0.171816
320 0.188005
325 0.170935
330 0.278006
335 0.228175
340 0.357982
345 0.478405
350 1.02957
355 29.8884
360 566.463
365 934.671
370 246.998
375 31.213
380 7.75076
385 9.873
390 14.8174
395 16.7845
400 15.5677
405 18.6273
410 23.0823
415 23.7216
420 20.9674
425 17.8161
430 15.3406
435 15.2169
440 14.9953
445 14.3723
450 12.7147
455 10.957
460 9.95635
465 9.20565
470 8.67798
475 7.85634
480 7.53991
485 6.59256
490 5.91699
495 5.44842
500 5.04593
505 4.32335
510 4.28117
515 3.85741
520 3.00425
525 2.46175
530 2.50312
535 1.89657
540 1.80166
545 1.42265
550 1.52218
555 1.25505
560 1.04978
565 0.905471
570 0.802954
575 0.537241
580 0.523637
585 0.485564
590 0.426765
595 0.31606
600 0.280294
Ex : 373
200 0.123627
205 0.102252
210 0.0616814
215 0.0588547
220 0.0806098
225 0.0470626
230 0.10812
235 0.077358
240 0.0998787
245 0.0807411
250 0.0713712
255 0.117133
260 0.0793627
265 0.0738595
270 0.0629606
275 0.144745
280 0.0840212
285 0.0731809
290 0.135735
295 0.0915578
300 0.13032
305 0.0845398
310 0.0703434
315 0.109333
320 0.14593
325 0.124762
330 0.138761
335 0.181884
340 0.235614
345 0.385959
350 0.501268
355 0.994309
360 35.0024
365 571.373
370 918.267
375 244.689
380 31.998
385 10.5366
390 14.9103
395 18.1338
400 16.0915
405 15.1275
410 19.3785
415 25.0341
420 23.8511
425 18.6435
430 15.767
435 14.5813
440 14.8969
445 14.465
450 12.5976
455 10.5673
460 9.51022
465 9.2172
470 8.70213
475 7.93995
480 7.16283
485 6.41916
490 6.00987
495 5.38876
500 4.75233
505 4.35164
510 4.07974
515 3.6079
520 3.15153
525 2.75431
530 2.58672
535 2.29241
540 1.89258
545 1.64124
550 1.47818
555 1.28054
560 1.12273
565 0.994527
570 0.782363
575 0.632387
580 0.492896
585 0.373157
590 0.333481
595 0.287619
600 0.328131
Ex : 378
200 0.113724
205 0.0706259
210 0.122167
215 0.106222
220 0.0714788
225 0.0755712
230 0.192158
235 0.125796
240 0.0828846
245 0.0915091
250 0.0649382
255 0.115901
260 0.0872669
265 0.0904546
270 0.0733358
275 0.0764269
280 0.0759415
285 0.0841271
290 0.0977357
295 0.0749131
300 0.0956852
305 0.106099
310 0.0884751
315 0.112904
320 0.0896536
325 0.120362
330 0.113761
335 0.15077
340 0.219004
345 0.296865
350 0.372759
355 0.448691
360 1.04118
365 31.4449
370 575.123
375 933.706
380 250.688
385 34.8613
390 14.0415
395 13.4223
400 12.0632
405 11.0548
410 12.8169
415 16.296
420 18.8584
425 16.2936
430 12.8946
435 11.898
440 11.6874
445 11.025
450 9.91659
455 8.89841
460 8.05673
465 7.66389
470 7.32696
475 7.001
480 6.39949
485 5.93746
490 5.37197
495 5.0265
500 4.73843
505 4.1048
510 3.48601
515 3.38005
520 2.94064
525 2.53214
530 2.49634
535 2.23404
540 1.90974
545 1.74724
550 1.49107
555 1.36421
560 1.07242
565 0.98923
570 0.760476
575 0.595235
580 0.51309
585 0.358253
590 0.369161
595 0.323209
600 0.75751
Ex : 383
200 0.0852039
205 0.0372428
210 0.0955158
215 0.0926212
220 0.0819327
225 0.113302
230 0.0728888
235 0.123473
240 0.105851
245 0.0613994
250 0.0769814
255 0.070336
260 0.156869
265 0.0614816
270 0.0445488
275 0.0629437
280 0.144686
285 0.105009
290 0.111551
295 0.0976013
300 0.0651445
305 0.0995115
310 0.124037
315 0.0762766
320 0.0651781
325 0.117282
330 0.155931
335 0.146949
340 0.171454
345 0.148782
350 0.229957
355 0.345989
360 0.480339
365 1.07309
370 30.3924
375 567.021
380 971.392
385 266.777
390 40.9124
395 14.9563
400 11.5469
405 12.1463
410 13.3683
415 15.0071
420 14.227
425 14.7715
430 14.5284
435 12.4401
440 12.1197
445 11.0836
450 9.7708
455 8.74326
460 8.1736
465 7.93131
470 7.2175
475 6.56275
480 6.65392
485 5.99241
490 5.65778
495 5.03603
500 4.57181
505 4.52085
510 3.92859
515 3.44007
520 2.7751
525 2.62945
530 2.41016
535 2.19284
540 1.90341
545 1.79368
550 1.54838
555 1.32564
560 1.13561
565 0.845556
570 0.688555
575 0.641481
580 0.513639
585 0.426825
590 0.328921
595 0.294119
600 0.0334697
Ex : 388
200 0.0821781
205 0.0683563
210 0.0832794
215 0.0769584
220 0.0900964
225 0.0931228
230 0.0681775
235 0.0842262
240 0.101629
245 0.0706507
250 0.0471654
255 0.0406186
260 0.0575057
265 0.100847
270 0.0849285
275 0.108078
280 0.0714113
285 0.167768
290 0.0744083
295 0.0928524
300 0.095443
305 0.124321
310 0.0828716
315 0.0632426
320 0.0661854
325 0.112378
330 0.114646
335 0.189525
340 0.13575
345 0.154222
350 0.20156
355 0.236111
360 0.343127
365 0.532401
370 1.04997
375 32.4965
380 586.727
385 977.253
390 267.54
395 44.1624
400 16.7802
405 14.4937
410 17.2499
415 18.3739
420 17.6674
425 15.3872
430 15.4151
435 16.5099
440 15.5182
445 13.9861
450 11.7442
455 10.199
460 9.05111
465 8.82664
470 8.08484
475 7.5744
480 7.20905
485 6.41961
490 5.81941
495 5.27209
500 4.97309
505 4.30247
510 4.1874
515 3.35772
520 3.25196
525 2.73119
530 2.46241
535 2.39136
540 2.08921
545 1.78741
550 1.52235
555 1.38475
560 1.19657
565 0.930595
570 0.932178
575 0.847979
580 0.574751
585 0.359565
590 0.412561
595 0.220764
600 0.299101
Ex : 393
200 0.0475136
205 0.0426127
210 0.115278
215 0.0829891
220 0.0510203
225 0.0752056
230 0.125546
235 0.0810001
240 0.0651746
245 0.0953826
250 0.0871048
255 0.0562927
260 0.0904596
265 0.0733698
270 0.100346
275 0.105599
280 0.0567489
285 0.108464
290 0.150872
295 0.0955991
300 0.109799
305 0.13856
310 0.0947469
315 0.114218
320 0.073087
325 0.104334
330 0.0939501
335 0.1061
340 0.111549
345 0.12726
350 0.152949
355 0.208607
360 0.262058
365 0.343702
370 0.496235
375 0.976503
380 29.3143
385 578.54
390 986.054
395 277.336
400 45.4173
405 16.8248
410 15.9775
415 19.5355
420 19.1314
425 15.8786
430 13.112
435 13.8871
440 15.6654
445 15.3806
450 12.9468
455 10.4906
460 8.96518
465 8.09546
470 7.51808
475 7.42755
480 6.75234
485 6.37741
490 5.66678
495 5.23288
500 4.97427
505 4.51381
510 3.91878
515 3.39076
520 3.18312
525 2.86341
530 2.58972
535 2.11477
540 1.97269
545 1.97982
550 1.61558
555 1.26654
560 1.21816
565 1.05177
570 0.832193
575 0.645658
580 0.535223
585 0.365903
590 0.37118
595 0.215414
600 0.635578
Ex : 398
200 0.0698619
205 0.0608004
210 0.091835
215 0.0529313
220 0.0559861
225 0.0855908
230 0.0595716
235 0.055347
240 0.144383
245 0.0498433
250 0.107463
255 0.0411756
260 0.0444073
265 0.0566657
270 0.101082
275 0.0801442
280 0.115531
285 0.0944308
290 0.0919043
295 0.0804218
300 0.0669117
305 0.0623752
310 0.0802423
315 0.0614698
320 0.0985095
325 0.0849159
330 0.104849
335 0.148542
340 0.149577
345 0.113052
350 0.147537
355 0.146068
360 0.238663
365 0.284397
370 0.36981
375 0.558812
380 1.2545
385 30.893
390 589.812
395 1004.99
400 274.283
405 39.1499
410 13.0017
415 12.3053
420 12.5937
425 10.3573
430 8.23057
435 7.70964
440 9.38598
445 11.4947
450 10.2685
455 8.31095
460 7.01417
465 6.25368
470 6.07412
475 5.88451
480 5.41708
485 4.95801
490 4.70816
495 4.46232
500 4.01975
505 3.95997
510 3.57296
515 3.0738
520 2.98368
525 2.64817
530 2.20347
535 2.08491
540 1.84389
545 1.76515
550 1.43299
555 1.38782
560 1.26149
565 1.00643
570 0.844339
575 0.631212
580 0.50177
585 0.435186
590 0.292063
595 0.267817
600 0.484093
Ex : 403
200 0.0536673
205 0.113361
210 0.130287
215 0.0367796
220 0.119109
225 0.078473
230 0.120862
235 0.0660504
240 0.0446386
245 0.0930086
250 0.0770966
255 0.0703203
260 0.076743
265 0.0657365
270 0.0564822
275 0.0630448
280 0.0760592
285 0.0898955
290 0.0278239
295 0.0570368
300 0.109977
305 0.0740498
310 0.057652
315 0.0616489
320 0.0886356
325 0.0769254
330 0.0840646
335 0.109472
340 0.173951
345 0.142506
350 0.103036
355 0.136631
360 0.197476
365 0.196153
370 0.246608
375 0.346811
380 0.507852
385 1.31633
390 34.3114
395 599.756
400 992.775
405 270.358
410 35.5018
415 9.23559
420 6.2755
425 5.68019
430 4.85653
435 4.43332
440 4.81375
445 5.47005
450 7.10259
455 7.24669
460 6.01761
465 5.42723
470 4.95775
475 4.74563
480 4.33754
485 4.26433
490 4.0414
495 3.80549
500 3.69947
505 3.49437
510 3.19826
515 2.81682
520 2.64841
525 2.4619
530 2.24113
535 1.89288
540 1.79162
545 1.58156
550 1.48747
555 1.42168
560 1.16051
565 1.02147
570 0.716749
575 0.58073
580 0.446932
585 0.428896
590 0.287591
595 0.232352
600 0.410963
Ex : 408
200 0.0606282
205 0.0530822
210 0.0807202
215 0.050903
220 0.0496912
225 0.11777
230 0.0726629
235 0.0571141
240 0.0693149
245 0.0677644
250 0.0673576
255 0.0637566
260 0.0639904
265 0.090146
270 0.0440419
275 0.0658106
280 0.0487381
285 0.049958
290 0.104007
295 0.0814229
300 0.0527518
305 0.0655528
310 0.0622868
315 0.071404
320 0.085605
325 0.175461
330 0.0714877
335 0.0754003
340 0.0886703
345 0.0988407
350 0.0761342
355 0.124117
360 0.159588
365 0.16212
370 0.172098
375 0.240466
380 0.303226
385 0.632626
390 1.38751
395 32.1173
400 608.17
405 1001.66
410 262.87
415 34.8658
420 8.13911
425 4.87123
430 4.27657
435 4.47276
440 4.50184
445 4.47518
450 4.6727
455 6.20817
460 7.13938
465 5.93855
470 5.13394
475 4.99612
480 4.39744
485 4.21268
490 4.00198
495 3.59464
500 3.57596
505 3.29495
510 2.94327
515 2.70685
520 2.47278
525 2.33633
530 2.21303
535 1.90924
540 1.65644
545 1.5023
550 1.3967
555 1.20928
560 1.24091
565 0.986148
570 0.812212
575 0.559441
580 0.428442
585 0.388599
590 0.284977
595 0.204324
600 0.196243
Ex : 413
200 0.0434332
205 0.0991012
210 0.0486196
215 0.0828473
220 0.0771675
225 0.0519884
230 0.0694628
235 0.0439541
240 0.0734165
245 0.0526647
250 0.0379225
255 0.0678903
260 0.0569948
265 0.0470246
270 0.0402266
275 0.0636768
280 0.0704703
285 0.0537277
290 0.0518357
295 0.0770792
300 0.0695781
305 0.0674628
310 0.0991799
315 0.1478
320 0.0795629
325 0.0977951
330 0.0924936
335 0.0809264
340 0.129472
345 0.0805941
350 0.082346
355 0.110562
360 0.162137
365 0.128907
370 0.152252
375 0.175391
380 0.258141
385 0.345806
390 0.597823
395 1.12433
400 35.2478
405 617.585
410 998.924
415 257.298
420 33.6608
425 7.28824
430 4.11689
435 4.02955
440 4.21416
445 3.98401
450 3.94398
455 3.75146
460 4.95252
465 6.34533
470 5.92604
475 4.73648
480 4.50207
485 4.02949
490 3.71732
495 3.43954
500 3.42649
505 3.26411
510 3.00498
515 2.68756
520 2.44194
525 2.27031
530 2.13804
535 1.79705
540 1.60628
545 1.57357
550 1.31605
555 1.1418
560 1.14348
565 0.911161
570 0.766775
575 0.565181
580 0.481498
585 0.329646
590 0.303451
595 0.269509
600 0.09333
Ex : 418
200 0.0671146
205 0.0336258
210 0.0444529
215 0.061311
220 0.102716
225 0.0607419
230 0.0804222
235 0.0802413
240 0.0899884
245 0.0735558
250 0.0484799
255 0.0555904
260 0.0412892
265 0.0527288
270 0.0930608
275 0.0583027
280 0.0669459
285 0.0474452
290 0.0487713
295 0.0915313
300 0.0683919
305 0.0360986
310 0.0388885
315 0.0493517
320 0.0790435
325 0.0928145
330 0.0451957
335 0.0838527
340 0.128453
345 0.101496
350 0.131083
355 0.130692
360 0.0883726
365 0.108133
370 0.178468
375 0.193561
380 0.178456
385 0.231603
390 0.413275
395 0.678686
400 1.16056
405 33.1497
410 613.5
415 1009.44
420 268.167
425 33.8575
430 6.24221
435 3.1041
440 3.21414
445 3.10552
450 2.71719
455 2.59682
460 2.68232
465 3.26564
470 5.26913
475 5.2941
480 4.22219
485 3.74284
490 3.38722
495 3.00369
500 2.83467
505 2.77637
510 2.47979
515 2.48113
520 2.03121
525 2.02491
530 1.85424
535 1.67099
540 1.46699
545 1.381
550 1.35503
555 1.1444
560 0.948727
565 0.8607
570 0.746352
575 0.5827
580 0.411755
585 0.363836
590 0.28367
595 0.207513
600 0.0791847
Ex : 423
200 0.135418
205 0.102071
210 0.0735177
215 0.0662496
220 0.0587931
225 0.0341017
230 0.0577555
235 0.0755257
240 0.0854077
245 0.110377
250 0.0820298
255 0.0821667
260 0.107533
265 0.0519675
270 0.0774368
275 0.0680866
280 0.0713768
285 0.0525267
290 0.0495464
295 0.0611607
300 0.0427949
305 0.0648657
310 0.0878249
315 0.0560818
320 0.0458734
325 0.09639
330 0.0624012
335 0.0776719
340 0.0980231
345 0.128789
350 0.10463
355 0.0928815
360 0.132357
365 0.216743
370 0.125681
375 0.138309
380 0.155974
385 0.217761
390 0.221253
395 0.336899
400 0.569252
405 1.18694
410 33.9495
415 633.234
420 999.644
425 255.405
430 31.5709
435 5.59779
440 2.23815
445 2.06988
450 2.02731
455 1.95561
460 2.0458
465 1.93695
470 2.48864
475 4.42048
480 5.24025
485 3.87604
490 3.39375
495 2.99939
500 2.58553
505 2.39235
510 2.41598
515 2.19217
520 2.09631
525 1.81214
530 1.85783
535 1.53646
540 1.52345
545 1.2419
550 1.1647
555 1.07301
560 0.941413
565 0.835664
570 0.647625
575 0.636399
580 0.512221
585 0.355232
590 0.300855
595 0.28344
600 0.22774
Ex : 428
200 0.0845059
205 0.11356
210 0.12301
215 0.0546037
220 0.0729339
225 0.039639
230 0.154593
235 0.0681597
240 0.0474699
245 0.0623641
250 0.0774618
255 0.0393932
260 0.0926151
265 0.041098
270 0.0397348
275 0.0576331
280 0.0587839
285 0.035915
290 0.073931
295 0.082534
300 0.101404
305 0.0890441
310 0.0742777
315 0.0652514
320 0.0442032
325 0.09346
330 0.0683816
335 0.0837944
340 0.0957787
345 0.101028
350 0.154275
355 0.111667
360 0.114065
365 0.14921
370 0.101373
375 0.124135
380 0.112782
385 0.176079
390 0.197799
395 0.228346
400 0.340746
405 0.523721
410 1.12817
415 37.1229
420 631.973
425 997.368
430 259.613
435 31.8628
440 5.17304
445 1.94103
450 1.79091
455 1.85977
460 1.73013
465 1.64195
470 1.66923
475 2.07695
480 3.2198
485 4.61315
490 3.70531
495 3.12402
500 2.76597
505 2.37302
510 2.16688
515 1.99537
520 1.89816
525 1.71633
530 1.64754
535 1.54442
540 1.31867
545 1.16234
550 1.04391
555 0.946763
560 0.997054
565 0.790938
570 0.745251
575 0.562915
580 0.440733
585 0.32095
590 0.273166
595 0.243885
600 0.134811
Ex : 433
200 0.0793029
205 0.0748376
210 0.0688109
215 0.0564814
220 0.071871
225 0.0446849
230 0.0529025
235 0.0523585
240 0.0517386
245 0.0883319
250 0.040667
255 0.0355311
260 0.0557872
265 0.0358199
270 0.0538669
275 0.0833248
280 0.083451
285 0.0907525
290 0.0650567
295 0.0616882
300 0.0618388
305 0.0410834
310 0.0556285
315 0.0756217
320 0.0889814
325 0.113813
330 0.11897
335 0.056215
340 0.112414
345 0.0745626
350 0.079155
355 0.0888977
360 0.110902
365 0.0846966
370 0.0845326
375 0.117155
380 0.109906
385 0.106525
390 0.141104
395 0.22956
400 0.318001
405 0.344147
410 0.583396
415 1.23497
420 40.1209
425 675.07
430 1020.17
435 256.096
440 31.2815
445 5.137
450 1.9589
455 1.76709
460 1.75555
465 1.64496
470 1.53458
475 1.60966
480 1.88895
485 2.58219
490 4.15412
495 3.95815
500 2.76868
505 2.6578
510 2.34102
515 1.81595
520 1.79203
525 1.65562
530 1.43106
535 1.57228
540 1.37518
545 1.12974
550 1.07924
555 1.04136
560 0.904833
565 0.772516
570 0.661428
575 0.531199
580 0.456899
585 0.389398
590 0.295419
595 0.235469
600 0.0267954
Ex : 438
200 0.059088
205 0.0656439
210 0.0935422
215 0.0551356
220 0.0442906
225 0.0334161
230 0.121469
235 0.0694859
240 0.0533083
245 0.0754852
250 0.0610389
255 0.0898243
260 0.0890788
265 0.0758392
270 0.0514962
275 0.0775052
280 0.0655464
285 0.0722997
290 0.100158
295 0.0893982
300 0.0591717
305 0.0451444
310 0.0558665
315 0.0670698
320 0.0484364
325 0.082807
330 0.126671
335 0.100374
340 0.0783122
345 0.0794817
350 0.0891591
355 0.0718713
360 0.085381
365 0.083301
370 0.117215
375 0.0723576
380 0.0714437
385 0.118307
390 0.112305
395 0.148072
400 0.22009
405 0.271882
410 0.402187
415 0.670392
420 1.13955
425 38.7994
430 672.188
435 1077.25
440 270.343
445 33.0146
450 5.23103
455 1.89607
460 1.78686
465 1.86982
470 1.53262
475 1.48492
480 1.61476
485 1.58861
490 2.14901
495 3.65063
500 4.01584
505 2.65214
510 2.30035
515 2.13506
520 1.6666
525 1.44413
530 1.40622
535 1.25147
540 1.15673
545 1.19937
550 1.04039
555 0.871708
560 0.905222
565 0.7523
570 0.685062
575 0.559896
580 0.467718
585 0.392959
590 0.295202
595 0.24044
600 0.594766
Ex : 443
200 0.0487727
205 0.0653557
210 0.0390798
215 0.0717881
220 0.0828818
225 0.0656111
230 0.0560893
235 0.0469392
240 0.0323582
245 0.0790764
250 0.116248
255 0.0853813
260 0.0652328
265 0.103441
270 0.0381708
275 0.0810042
280 0.0472942
285 0.0745744
290 0.0766887
295 0.105562
300 0.0876632
305 0.0629495
310 0.0388823
315 0.0683819
320 0.0759676
325 0.0502135
330 0.0718433
335 0.0492174
340 0.0536634
345 0.0507131
350 0.0601424
355 0.0620267
360 0.144538
365 0.132685
370 0.138068
375 0.155959
380 0.120874
385 0.196353
390 0.111774
395 0.195862
400 0.314787
405 0.223893
410 0.275375
415 0.35542
420 0.574269
425 1.09861
430 42.9828
435 711.215
440 1094.55
445 271.281
450 33.1007
455 5.43027
460 1.99272
465 1.67916
470 1.85912
475 1.49388
480 1.39666
485 1.40199
490 1.53788
495 1.76642
500 2.88927
505 3.80056
510 2.81854
515 2.28628
520 2.06696
525 1.70058
530 1.33278
535 1.17798
540 1.04907
545 1.21845
550 1.03056
555 0.862809
560 0.822689
565 0.695078
570 0.6264
575 0.561
580 0.497738
585 0.371517
590 0.263243
595 0.223682
600 0.0314018
Ex : 448
200 0.0453425
205 0.0338946
210 0.052681
215 0.0715765
220 0.180149
225 0.0659046
230 0.0404791
235 0.0540343
240 0.06139
245 0.0733804
250 0.0450293
255 0.115166
260 0.0879357
265 0.0694317
270 0.0724312
275 0.0378489
280 0.0536952
285 0.0511076
290 0.0673686
295 0.0401797
300 0.0669007
305 0.0546713
310 0.0435644
315 0.111583
320 0.0734765
325 0.0635752
330 0.118773
335 0.122574
340 0.0846085
345 0.0937511
350 0.106665
355 0.154825
360 0.108002
365 0.0697359
370 0.0589755
375 0.0867817
380 0.115673
385 0.0975364
390 0.151638
395 0.173014
400 0.230846
405 0.183343
410 0.191509
415 0.318621
420 0.374348
425 0.597231
430 1.12117
435 44.3433
440 758.217
445 1142.69
450 284.352
455 34.7086
460 5.70401
465 2.19564
470 1.60845
475 1.76536
480 1.66711
485 1.5076
490 1.42471
495 1.44192
500 1.49603
505 2.42382
510 3.35467
515 3.05418
520 2.21628
525 2.09771
530 1.63052
535 1.32859
540 1.23114
545 0.993633
550 0.906513
555 0.884174
560 0.827806
565 0.771954
570 0.674148
575 0.502261
580 0.483594
585 0.377042
590 0.276353
595 0.291027
600 0.25541
Ex : 453
200 0.0567541
205 0.124408
210 0.0818124
215 0.0546055
220 0.0670502
225 0.0465251
230 0.0275628
235 0.0698819
240 0.0673484
245 0.0824331
250 0.0640531
255 0.0789441
260 0.0660846
265 0.066136
270 0.0632875
275 0.0771267
280 0.0528054
285 0.0587059
290 0.0793224
295 0.0532192
300 0.0448455
305 0.0904956
310 0.0385712
315 0.119318
320 0.0740422
325 0.105717
330 0.0622307
335 0.0366306
340 0.064322
345 0.0949107
350 0.0894787
355 0.0731286
360 0.133092
365 0.0939444
370 0.0709572
375 0.0919383
380 0.145211
385 0.122146
390 0.175699
395 0.10473
400 0.133119
405 0.191264
410 0.17397
415 0.190903
420 0.226839
425 0.356811
430 0.63386
435 1.09863
440 46.8235
445 828.025
450 1199.36
455 282.576
460 34.3746
465 5.7508
470 1.88632
475 1.51479
480 1.76785
485 1.59339
490 1.49211
495 1.29295
500 1.38981
505 1.42589
510 1.83747
515 3.1064
520 3.08949
525 2.12095
530 1.86823
535 1.5877
540 1.32251
545 1.05831
550 0.985701
555 0.873065
560 0.741821
565 0.705142
570 0.599065
575 0.594399
580 0.374305
585 0.357866
590 0.291383
595 0.231392
600 0.0263315
Ex : 458
200 0.0862513
205 0.095941
210 0.0528163
215 0.0818278
220 0.0655401
225 0.105771
230 0.0748793
235 0.0989132
240 0.0740693
245 0.062764
250 0.093934
255 0.109956
260 0.059045
265 0.111448
270 0.0608734
275 0.0708064
280 0.0698921
285 0.070857
290 0.0562084
295 0.088252
300 0.0724632
305 0.083817
310 0.110495
315 0.104341
320 0.0916154
325 0.0662035
330 0.0855876
335 0.102172
340 0.199411
345 0.0899339
350 0.0975238
355 0.0996626
360 0.135577
365 0.0784709
370 0.12325
375 0.0919288
380 0.145492
385 0.124272
390 0.108747
395 0.102654
400 0.127715
405 0.088476
410 0.143938
415 0.234012
420 0.188212
425 0.266909
430 0.471732
435 0.716863
440 1.31797
445 53.2092
450 865.244
455 1274.87
460 307.934
465 37.6284
470 6.1271
475 2.17998
480 1.58483
485 1.70696
490 1.60228
495 1.27498
500 1.21522
505 1.23558
510 1.15414
515 1.51257
520 2.40301
525 3.02992
530 2.3755
535 1.75159
540 1.44403
545 1.27125
550 0.940861
555 0.834114
560 0.814825
565 0.7374
570 0.708273
575 0.482908
580 0.509969
585 0.346373
590 0.312201
595 0.26801
600 0.230329
Ex : 463
200 0.0876911
205 0.0435458
210 0.064991
215 0.0791868
220 0.0373192
225 0.0577313
230 0.0529011
235 0.0609708
240 0.0843161
245 0.0823604
250 0.0930657
255 0.0632028
260 0.0496404
265 0.0753569
270 0.0739355
275 0.0350375
280 0.0944611
285 0.0877794
290 0.11903
295 0.0344207
300 0.0582139
305 0.0885158
310 0.0507433
315 0.0385847
320 0.0900011
325 0.0821644
330 0.0940275
335 0.0713652
340 0.0609648
345 0.0812719
350 0.0937659
355 0.0852234
360 0.0867113
365 0.0454605
370 0.0668352
375 0.0964398
380 0.108223
385 0.110043
390 0.147324
395 0.150424
400 0.15515
405 0.123843
410 0.137545
415 0.152578
420 0.165215
425 0.215351
430 0.294103
435 0.438868
440 0.658224
445 1.25122
450 51.6044
455 896.372
460 1368.13
465 330.641
470 40.0526
475 6.23746
480 2.01853
485 1.39557
490 1.5965
495 1.46721
500 1.38193
505 1.20695
510 1.08853
515 1.19053
520 1.36083
525 1.88983
530 2.96948
535 2.43584
540 1.75704
545 1.49472
550 1.33207
555 1.03494
560 0.912849
565 0.792385
570 0.745713
575 0.592966
580 0.477985
585 0.39675
590 0.278343
595 0.237805
600 0.129731
Ex : 468
200 0.0506888
205 0.0445309
210 0.104199
215 0.0744931
220 0.0581021
225 0.0474886
230 0.0442906
235 0.0494578
240 0.072685
245 0.0586159
250 0.06287
255 0.0841323
260 0.0705614
265 0.0847756
270 0.0465506
275 0.0687303
280 0.0490063
285 0.119428
290 0.0713638
295 0.0460788
300 0.10636
305 0.0692909
310 0.0692336
315 0.0596817
320 0.0428095
325 0.0710062
330 0.0972226
335 0.132972
340 0.0938141
345 0.0883498
350 0.129127
355 0.106706
360 0.070221
365 0.0781325
370 0.0929447
375 0.075318
380 0.0919769
385 0.0838277
390 0.146452
395 0.110346
400 0.091928
405 0.120246
410 0.13454
415 0.153107
420 0.195289
425 0.241491
430 0.182997
435 0.274009
440 0.48596
445 0.690382
450 1.24466
455 56.1179
460 912.069
465 1439.26
470 350.535
475 42.108
480 6.54243
485 2.05678
490 1.47717
495 1.59093
500 1.38907
505 1.24064
510 1.11514
515 1.13983
520 1.14989
525 1.18378
530 1.46548
535 2.68355
540 2.68753
545 1.87771
550 1.42334
555 1.17795
560 1.03888
565 0.90073
570 0.792136
575 0.563275
580 0.450829
585 0.376827
590 0.329033
595 0.327235
600 0.404867
Ex : 473
200 0.0751724
205 0.0682245
210 0.0660029
215 0.0507464
220 0.0607264
225 0.0596964
230 0.0876497
235 0.0784463
240 0.0621522
245 0.0537864
250 0.0522412
255 0.0533384
260 0.0576046
265 0.0526021
270 0.0969434
275 0.061767
280 0.0652498
285 0.0517446
290 0.0522294
295 0.0785994
300 0.0371783
305 0.0549079
310 0.075202
315 0.0797946
320 0.0733767
325 0.093276
330 0.107644
335 0.0701217
340 0.111341
345 0.0692941
350 0.0702242
355 0.0945339
360 0.103916
365 0.0938333
370 0.0939189
375 0.0857134
380 0.089374
385 0.172319
390 0.130723
395 0.105699
400 0.10418
405 0.11422
410 0.124751
415 0.101479
420 0.161219
425 0.157343
430 0.185471
435 0.278312
440 0.326866
445 0.410561
450 0.672859
455 1.37551
460 66.7417
465 1010.36
470 1419.24
475 330.382
480 39.8544
485 6.16263
490 2.08333
495 1.3335
500 1.44416
505 1.44494
510 1.2875
515 1.08452
520 1.06519
525 1.0514
530 1.23543
535 1.40497
540 2.15209
545 2.57948
550 1.86729
555 1.26794
560 1.24941
565 1.00662
570 0.704039
575 0.558965
580 0.469943
585 0.37321
590 0.382904
595 0.293924
600 0.777044
Ex : 478
200 0.0873584
205 0.0984864
210 0.0529234
215 0.0622258
220 0.0869327
225 0.0803035
230 0.0617346
235 0.101538
240 0.100287
245 0.0856426
250 0.0399479
255 0.0612044
260 0.0788758
265 0.0478588
270 0.0842414
275 0.11102
280 0.0861296
285 0.0911721
290 0.112242
295 0.0977706
300 0.0856182
305 0.176014
310 0.0938303
315 0.0576658
320 0.0903108
325 0.0813621
330 0.101213
335 0.0834324
340 0.0908819
345 0.138873
350 0.101514
355 0.0728907
360 0.0817547
365 0.136727
370 0.124877
375 0.140779
380 0.116139
385 0.104464
390 0.110705
395 0.0932844
400 0.165841
405 0.176572
410 0.16191
415 0.196685
420 0.127808
425 0.165929
430 0.202056
435 0.249203
440 0.264545
445 0.309813
450 0.502244
455 0.788292
460 1.75841
465 74.5155
470 1061.21
475 1472.91
480 358.115
485 43.0952
490 6.56959
495 2.02196
500 1.28156
505 1.34213
510 1.34382
515 1.14177
520 1.14979
525 1.08538
530 1.05186
535 1.127
540 1.13272
545 1.7352
550 2.39859
555 1.95496
560 1.24577
565 1.12392
570 0.89829
575 0.670286
580 0.503589
585 0.419109
590 0.349252
595 0.389698
600 0.179738
Ex : 483
200 0.101365
205 0.100037
210 0.117549
215 0.0541386
220 0.0660983
225 0.0732728
230 0.0762053
235 0.103743
240 0.0673824
245 0.146227
250 0.0880855
255 0.0822976
260 0.139888
265 0.0807163
270 0.0504609
275 0.0692381
280 0.0899445
285 0.0596859
290 0.0653615
295 0.0533255
300 0.0725978
305 0.072058
310 0.0660521
315 0.0506259
320 0.0956786
325 0.0782402
330 0.0913462
335 0.0972616
340 0.0702071
345 0.0820166
350 0.109581
355 0.110699
360 0.171035
365 0.094118
370 0.0690684
375 0.111958
380 0.0832975
385 0.107469
390 0.134763
395 0.127424
400 0.0837569
405 0.149314
410 0.133867
415 0.292039
420 0.122912
425 0.1631
430 0.188861
435 0.181636
440 0.192472
445 0.247737
450 0.3412
455 0.530753
460 0.973362
465 1.80446
470 59.2424
475 1061.97
480 1610.01
485 387.936
490 46.5575
495 6.85104
500 1.96268
505 1.08789
510 1.12497
515 1.38581
520 1.38422
525 1.04136
530 1.02315
535 1.15955
540 1.02266
545 1.05541
550 1.13958
555 1.98591
560 2.18737
565 1.3504
570 0.834753
575 0.80369
580 0.52346
585 0.456154
590 0.430414
595 0.284395
600 0.331881
Ex : 488
200 0.0783848
205 0.0753994
210 0.0704349
215 0.0777093
220 0.0487018
225 0.0562172
230 0.109074
235 0.0981161
240 0.0528275
245 0.111972
250 0.0794568
255 0.141399
260 0.0806567
265 0.0942455
270 0.0442524
275 0.0596714
280 0.0557794
285 0.0752672
290 0.0969975
295 0.092419
300 0.064469
305 0.0855881
310 0.0684432
315 0.061083
320 0.101577
325 0.0904252
330 0.0742041
335 0.108388
340 0.0958289
345 0.134601
350 0.129253
355 0.0990085
360 0.105459
365 0.0581564
370 0.0932737
375 0.141225
380 0.155912
385 0.185328
390 0.12821
395 0.0994053
400 0.120439
405 0.136966
410 0.155805
415 0.150558
420 0.225273
425 0.230433
430 0.143296
435 0.219959
440 0.190959
445 0.226478
450 0.283889
455 0.380859
460 0.715102
465 1.17564
470 1.85938
475 72.9207
480 1152.52
485 1601.64
490 378.393
495 45.5737
500 6.86908
505 1.93429
510 1.28068
515 1.31103
520 1.3867
525 1.34087
530 1.22034
535 0.937761
540 0.97015
545 0.942472
550 0.890686
555 0.899186
560 1.71115
565 2.11883
570 1.35685
575 0.905004
580 0.621177
585 0.532888
590 0.373573
595 0.318002
600 0.18445
Ex : 493
200 0.0949906
205 0.0799716
210 0.0488149
215 0.105748
220 0.0637048
225 0.126272
230 0.0776002
235 0.104626
240 0.120696
245 0.116956
250 0.0653537
255 0.0863214
260 0.087395
265 0.120539
270 0.056274
275 0.10859
280 0.0808793
285 0.0465806
290 0.0561663
295 0.0945298
300 0.0905953
305 0.0782119
310 0.0758671
315 0.0980269
320 0.158936
325 0.105079
330 0.104211
335 0.0658474
340 0.129101
345 0.103384
350 0.127882
355 0.129513
360 0.121971
365 0.0993456
370 0.168244
375 0.150417
380 0.123665
385 0.137255
390 0.15793
395 0.122786
400 0.138413
405 0.118002
410 0.169983
415 0.215663
420 0.167426
425 0.173818
430 0.160577
435 0.142941
440 0.181321
445 0.187329
450 0.214403
455 0.307499
460 0.498555
465 0.789435
470 0.96127
475 1.78145
480 69.0608
485 1160.65
490 1733.72
495 398.858
500 47.4948
505 6.89502
510 2.07189
515 1.44662
520 1.19513
525 1.49877
530 1.31704
535 1.18783
540 1.03708
545 0.870056
550 0.877255
555 0.796843
560 0.845485
565 1.04071
570 1.68847
575 1.24351
580 0.753278
585 0.573108
590 0.503721
595 0.351808
600 0.205775
Ex : 498
200 0.0665407
205 0.116725
210 0.0907173
215 0.128626
220 0.111892
225 0.0524479
230 0.106134
235 0.134769
240 0.0773873
245 0.160773
250 0.141532
255 0.0706934
260 0.116724
265 0.0633133
270 0.10206
275 0.0535225
280 0.0843609
285 0.107278
290 0.116041
295 0.115613
300 0.0915602
305 0.0753626
310 0.10871
315 0.12445
320 0.0881602
325 0.121395
330 0.153284
335 0.116493
340 0.110529
345 0.128611
350 0.12419
355 0.136727
360 0.0977859
365 0.0978833
370 0.102245
375 0.13409
380 0.0990179
385 0.145142
390 0.113218
395 0.122037
400 0.135424
405 0.0998747
410 0.165891
415 0.219667
420 0.141231
425 0.186399
430 0.248359
435 0.18265
440 0.241646
445 0.196808
450 0.24649
455 0.244513
460 0.303172
465 0.505985
470 0.697768
475 0.886982
480 1.67413
485 81.6231
490 1233.31
495 1692.58
500 392.876
505 47.1781
510 6.99538
515 2.16824
520 1.26341
525 1.37608
530 1.47681
535 1.39454
540 1.19281
545 1.03584
550 0.92039
555 0.946006
560 0.750981
565 0.680194
570 0.731954
575 1.16861
580 1.28376
585 0.722181
590 0.431381
595 0.396636
600 0.231313
Ex : 503
200 0.103656
205 0.0655192
210 0.0493809
215 0.092076
220 0.0914016
225 0.131855
230 0.113304
235 0.0844114
240 0.0792112
245 0.0588418
250 0.0997234
255 0.111094
260 0.134258
265 0.134414
270 0.0962088
275 0.0851906
280 0.0713826
285 0.067415
290 0.109922
295 0.112464
300 0.0678044
305 0.106162
310 0.090815
315 0.101193
320 0.0620405
325 0.0992259
330 0.13212
335 0.0993773
340 0.128892
345 0.087618
350 0.0843531
355 0.0720619
360 0.0993282
365 0.0536108
370 0.0854608
375 0.112748
380 0.0888788
385 0.0757899
390 0.126535
395 0.118117
400 0.104006
405 0.221439
410 0.131993
415 0.104108
420 0.141499
425 0.159808
430 0.170158
435 0.148175
440 0.160045
445 0.201371
450 0.232993
455 0.275522
460 0.338271
465 0.510485
470 0.500677
475 0.643659
480 1.08351
485 1.81759
490 77.0927
495 1259.67
500 1772.91
505 410.768
510 49.4687
515 7.24387
520 2.19902
525 1.4007
530 1.26459
535 1.28484
540 1.17263
545 1.05283
550 0.892604
555 0.832658
560 0.655336
565 0.701356
570 0.566178
575 0.588031
580 0.699245
585 0.954988
590 0.701313
595 0.461993
600 0.213345
Ex : 508
200 0.0907214
205 0.0664471
210 0.0609589
215 0.0868652
220 0.114932
225 0.107707
230 0.0846237
235 0.0842372
240 0.097714
245 0.0901372
250 0.114391
255 0.0914544
260 0.101158
265 0.104002
270 0.0868349
275 0.101148
280 0.132114
285 0.0882016
290 0.0971491
295 0.0653264
300 0.101117
305 0.159191
310 0.136386
315 0.0670684
320 0.112086
325 0.0776252
330 0.0840051
335 0.084488
340 0.0984865
345 0.10536
350 0.142254
355 0.135733
360 0.161387
365 0.13753
370 0.178033
375 0.115262
380 0.128209
385 0.179755
390 0.128791
395 0.0922994
400 0.0963747
405 0.149945
410 0.141792
415 0.196979
420 0.241766
425 0.154528
430 0.186585
435 0.170454
440 0.288741
445 0.193562
450 0.1937
455 0.157784
460 0.272127
465 0.312032
470 0.382989
475 0.441753
480 0.761127
485 1.01874
490 1.93741
495 83.6698
500 1277.37
505 1776.91
510 429.934
515 51.7139
520 7.73407
525 2.30423
530 1.42356
535 1.14286
540 1.07711
545 1.04968
550 0.852709
555 0.914569
560 0.617669
565 0.641952
570 0.594639
575 0.520812
580 0.424419
585 0.672187
590 0.853828
595 0.803872
600 0.461407
Ex : 513
200 0.0772227
205 0.117691
210 0.057708
215 0.0719834
220 0.0724596
225 0.14315
230 0.105611
235 0.112302
240 0.0711112
245 0.0727226
250 0.144836
255 0.148901
260 0.108224
265 0.108205
270 0.115268
275 0.14037
280 0.0696078
285 0.0897813
290 0.0727606
295 0.0916978
300 0.0706202
305 0.146481
310 0.0765072
315 0.14011
320 0.144078
325 0.102061
330 0.122177
335 0.154109
340 0.162826
345 0.0839595
350 0.138288
355 0.165141
360 0.10234
365 0.168566
370 0.190577
375 0.175952
380 0.138467
385 0.0575263
390 0.158109
395 0.109053
400 0.203589
405 0.1713
410 0.126009
415 0.148151
420 0.121995
425 0.146764
430 0.151032
435 0.139922
440 0.211896
445 0.206218
450 0.259055
455 0.27883
460 0.172855
465 0.317678
470 0.327732
475 0.372991
480 0.493943
485 0.813476
490 1.12071
495 1.89366
500 77.3883
505 1262.07
510 1824.59
515 448.039
520 53.9143
525 7.91003
530 2.57328
535 1.41222
540 0.958824
545 1.04904
550 1.08396
555 0.890597
560 0.786506
565 0.572272
570 0.581379
575 0.454097
580 0.465416
585 0.448246
590 0.431561
595 0.584954
600 0.499266
Ex : 518
200 0.126475
205 0.0939995
210 0.0828961
215 0.0694684
220 0.0856924
225 0.0728761
230 0.0956536
235 0.115
240 0.0966063
245 0.0969555
250 0.0771066
255 0.105338
260 0.147964
265 0.0974017
270 0.0983152
275 0.0567576
280 0.0873198
285 0.0905006
290 0.0823194
295 0.0881913
300 0.0455207
305 0.0901794
310 0.107845
315 0.120176
320 0.0938949
325 0.105599
330 0.0891449
335 0.106353
340 0.190247
345 0.103197
350 0.119994
355 0.092663
360 0.104125
365 0.158096
370 0.131399
375 0.125576
380 0.137689
385 0.147964
390 0.16367
395 0.140683
400 0.135259
405 0.11013
410 0.124679
415 0.134769
420 0.11558
425 0.142101
430 0.265566
435 0.191442
440 0.24308
445 0.152872
450 0.145563
455 0.165828
460 0.194042
465 0.203173
470 0.27015
475 0.305162
480 0.274368
485 0.450249
490 0.650535
495 1.01459
500 1.78513
505 79.2937
510 1224.61
515 1815.53
520 450.377
525 53.8479
530 7.64978
535 2.25268
540 1.31229
545 1.0336
550 0.95316
555 0.897799
560 0.739828
565 0.797493
570 0.653379
575 0.673499
580 0.438683
585 0.465351
590 0.412609
595 0.418597
600 0.115804
Ex : 523
200 0.0896544
205 0.147822
210 0.117747
215 0.0924758
220 0.083583
225 0.0968985
230 0.0870266
235 0.0900387
240 0.0866339
245 0.192029
250 0.105217
255 0.0954303
260 0.129869
265 0.0723845
270 0.0924264
275 0.110146
280 0.138985
285 0.126317
290 0.0810835
295 0.0750358
300 0.166925
305 0.108592
310 0.10862
315 0.0907072
320 0.0915592
325 0.111081
330 0.149004
335 0.204404
340 0.123348
345 0.100992
350 0.13197
355 0.146393
360 0.110021
365 0.0795977
370 0.128259
375 0.147537
380 0.153777
385 0.160239
390 0.0887484
395 0.103295
400 0.171867
405 0.196567
410 0.0938909
415 0.16346
420 0.148978
425 0.15962
430 0.162794
435 0.128686
440 0.229386
445 0.198934
450 0.163491
455 0.159165
460 0.213424
465 0.236567
470 0.223176
475 0.314092
480 0.338277
485 0.374931
490 0.414344
495 0.678655
500 1.11493
505 1.84772
510 73.3774
515 1209.91
520 1827.88
525 469.968
530 56.151
535 7.74684
540 1.93243
545 1.08815
550 0.806425
555 0.700279
560 0.916
565 0.67214
570 0.697647
575 0.580329
580 0.419676
585 0.441987
590 0.373174
595 0.253968
600 0.0289006
Ex : 528
200 0.121765
205 0.124537
210 0.0940326
215 0.0742491
220 0.0737599
225 0.105531
230 0.113089
235 0.126427
240 0.131221
245 0.101708
250 0.0863742
255 0.142857
260 0.0862143
265 0.169319
270 0.0920337
275 0.098353
280 0.096053
285 0.0952738
290 0.119476
295 0.134958
300 0.0753583
305 0.0675544
310 0.121746
315 0.0916561
320 0.0983235
325 0.102031
330 0.150043
335 0.097658
340 0.118839
345 0.120684
350 0.104629
355 0.108178
360 0.102157
365 0.159109
370 0.110092
375 0.1412
380 0.0841459
385 0.131613
390 0.150092
395 0.207406
400 0.174558
405 0.184258
410 0.202346
415 0.16433
420 0.145936
425 0.171714
430 0.206875
435 0.183741
440 0.165506
445 0.175799
450 0.159127
455 0.225633
460 0.201502
465 0.283233
470 0.248603
475 0.228418
480 0.246456
485 0.270618
490 0.305715
495 0.589332
500 0.634589
505 1.05804
510 2.03484
515 69.8717
520 1205.67
525 1832.1
530 461.134
535 55.2825
540 7.54616
545 1.94807
550 1.0357
555 0.684235
560 0.612544
565 0.751484
570 0.727759
575 0.529496
580 0.490915
585 0.38291
590 0.4126
595 0.369708
600 0.244504
Ex : 533
200 0.11004
205 0.128436
210 0.157942
215 0.123327
220 0.142252
225 0.176888
230 0.0834454
235 0.168704
240 0.156902
245 0.0966285
250 0.0827565
255 0.0902157
260 0.110524
265 0.108229
270 0.0884489
275 0.0828115
280 0.088232
285 0.165652
290 0.0721838
295 0.130653
300 0.119757
305 0.157124
310 0.138008
315 0.102548
320 0.172553
325 0.139002
330 0.0733068
335 0.191399
340 0.165646
345 0.171284
350 0.10717
355 0.155838
360 0.239117
365 0.138307
370 0.193517
375 0.218268
380 0.101264
385 0.104738
390 0.19329
395 0.118269
400 0.114596
405 0.171036
410 0.181291
415 0.165427
420 0.166675
425 0.143773
430 0.0963427
435 0.203631
440 0.145241
445 0.183006
450 0.133253
455 0.201153
460 0.267058
465 0.373766
470 0.315804
475 0.242383
480 0.19399
485 0.353379
490 0.298085
495 0.426026
500 0.54283
505 0.734769
510 0.929862
515 1.68018
520 68.9537
525 1161.31
530 1820.24
535 472.003
540 56.1624
545 7.7495
550 1.8202
555 0.972322
560 0.681107
565 0.675701
570 0.738473
575 0.591507
580 0.463959
585 0.452383
590 0.336795
595 0.253488
600 0.028846
Ex : 538
200 0.0804509
205 0.113584
210 0.122917
215 0.09982
220 0.0885506
225 0.124959
230 0.104862
235 0.0733415
240 0.0774203
245 0.0825452
250 0.0802205
255 0.0782062
260 0.0963402
265 0.130071
270 0.0673131
275 0.0875428
280 0.071579
285 0.165541
290 0.133146
295 0.115005
300 0.0596508
305 0.0728333
310 0.159329
315 0.0760961
320 0.153792
325 0.0890227
330 0.0497868
335 0.106675
340 0.0810649
345 0.0796777
350 0.127404
355 0.119144
360 0.0963354
365 0.140572
370 0.112223
375 0.122127
380 0.126952
385 0.118401
390 0.139014
395 0.145842
400 0.177399
405 0.176725
410 0.136264
415 0.162936
420 0.139309
425 0.0917803
430 0.230009
435 0.14364
440 0.110318
445 0.2008
450 0.191058
455 0.164174
460 0.146361
465 0.20654
470 0.163947
475 0.195345
480 0.24257
485 0.237013
490 0.306265
495 0.263814
500 0.37999
505 0.44742
510 0.65138
515 0.952253
520 1.64438
525 59.007
530 1111.46
535 1798.94
540 484.518
545 57.6672
550 7.6001
555 1.76981
560 0.913427
565 0.682814
570 0.687748
575 0.642726
580 0.430563
585 0.400613
590 0.421992
595 0.450381
600 0.0512516
Ex : 543
200 0.099302
205 0.0744144
210 0.128469
215 0.116294
220 0.165978
225 0.130926
230 0.243409
235 0.141055
240 0.0950587
245 0.135438
250 0.0798764
255 0.130203
260 0.141773
265 0.132111
270 0.120858
275 0.0973258
280 0.0506327
285 0.103431
290 0.0890059
295 0.0677909
300 0.109691
305 0.128704
310 0.0933409
315 0.114972
320 0.079764
325 0.143859
330 0.112028
335 0.110584
340 0.133016
345 0.156193
350 0.134738
355 0.102651
360 0.081436
365 0.175274
370 0.135964
375 0.0732501
380 0.151763
385 0.123652
390 0.133828
395 0.134321
400 0.140216
405 0.137049
410 0.112784
415 0.199016
420 0.150106
425 0.153339
430 0.208229
435 0.176947
440 0.177415
445 0.242478
450 0.213326
455 0.15913
460 0.188869
465 0.243664
470 0.26699
475 0.182398
480 0.223584
485 0.330046
490 0.272041
495 0.228312
500 0.341055
505 0.349373
510 0.385538
515 0.64264
520 0.868987
525 1.59324
530 55.0773
535 1080.58
540 1810.64
545 496.541
550 59.5651
555 8.01899
560 1.96602
565 0.870347
570 0.572829
575 0.471176
580 0.417928
585 0.430644
590 0.414316
595 0.365638
600 0.28152
Ex : 548
200 0.0967171
205 0.165877
210 0.107048
215 0.140769
220 0.0887662
225 0.185478
230 0.0849772
235 0.103229
240 0.0752211
245 0.143025
250 0.141919
255 0.0943336
260 0.112029
265 0.21532
270 0.124097
275 0.138205
280 0.163791
285 0.136718
290 0.152421
295 0.115023
300 0.0651543
305 0.104345
310 0.0750958
315 0.0833709
320 0.107318
325 0.104179
330 0.142586
335 0.175655
340 0.112844
345 0.0859189
350 0.150069
355 0.100759
360 0.154142
365 0.0887732
370 0.0994875
375 0.158391
380 0.100552
385 0.143815
390 0.158153
395 0.230354
400 0.181326
405 0.12834
410 0.132094
415 0.151249
420 0.130158
425 0.182967
430 0.142168
435 0.148404
440 0.175134
445 0.140257
450 0.210928
455 0.160734
460 0.148551
465 0.17944
470 0.238327
475 0.211549
480 0.291175
485 0.212978
490 0.338087
495 0.281163
500 0.264456
505 0.395602
510 0.319143
515 0.533045
520 0.605003
525 0.893883
530 1.67161
535 60.7267
540 1088.03
545 1763.98
550 487.685
555 58.0401
560 7.82447
565 1.64783
570 0.775121
575 0.44534
580 0.388355
585 0.392862
590 0.441483
595 0.369073
600 0.32052
Ex : 553
200 0.15014
205 0.114845
210 0.0965501
215 0.117667
220 0.189957
225 0.113008
230 0.119426
235 0.176681
240 0.108463
245 0.160273
250 0.126288
255 0.151905
260 0.167469
265 0.157699
270 0.117168
275 0.101741
280 0.108547
285 0.171308
290 0.159131
295 0.09149
300 0.13778
305 0.17418
310 0.190689
315 0.0737849
320 0.169969
325 0.120704
330 0.199769
335 0.165758
340 0.151982
345 0.138067
350 0.296651
355 0.1496
360 0.150531
365 0.130414
370 0.129258
375 0.105416
380 0.237083
385 0.198023
390 0.125537
395 0.102868
400 0.154336
405 0.118165
410 0.119138
415 0.117109
420 0.181645
425 0.154251
430 0.138083
435 0.12491
440 0.209496
445 0.168475
450 0.187937
455 0.234236
460 0.2207
465 0.140603
470 0.264202
475 0.173416
480 0.414078
485 0.330851
490 0.227747
495 0.304193
500 0.210332
505 0.370935
510 0.333692
515 0.451045
520 0.437263
525 0.809558
530 0.863028
535 1.69667
540 52.2645
545 1031.5
550 1740.83
555 487.541
560 58.0681
565 7.65303
570 1.58729
575 0.822659
580 0.514255
585 0.428397
590 0.316252
595 0.394624
600 0.122644
Ex : 558
200 0.158016
205 0.101932
210 0.117597
215 0.127994
220 0.155202
225 0.10985
230 0.145209
235 0.181183
240 0.121158
245 0.11306
250 0.138056
255 0.120191
260 0.224918
265 0.198146
270 0.115921
275 0.0905389
280 0.188398
285 0.0867287
290 0.0892483
295 0.127535
300 0.114057
305 0.0780134
310 0.0893829
315 0.154968
320 0.123363
325 0.120931
330 0.10833
335 0.139462
340 0.120776
345 0.108838
350 0.144863
355 0.159583
360 0.112124
365 0.127213
370 0.222804
375 0.207189
380 0.189393
385 0.211333
390 0.18385
395 0.162574
400 0.231422
405 0.12198
410 0.150518
415 0.151265
420 0.14066
425 0.10189
430 0.165621
435 0.256964
440 0.260021
445 0.244869
450 0.173132
455 0.235192
460 0.21082
465 0.208638
470 0.266988
475 0.271003
480 0.165797
485 0.195285
490 0.284615
495 0.288136
500 0.155389
505 0.188648
510 0.358835
515 0.405529
520 0.393295
525 0.491421
530 0.674494
535 1.02402
540 1.66903
545 48.9218
550 979.63
555 1741.13
560 493.809
565 58.8951
570 7.75373
575 1.43033
580 0.651809
585 0.458616
590 0.348795
595 0.347587
600 0.689437
Ex : 563
200 0.136431
205 0.101525
210 0.161372
215 0.124289
220 0.188074
225 0.11788
230 0.14202
235 0.150418
240 0.116058
245 0.134913
250 0.149436
255 0.0964663
260 0.130909
265 0.128117
270 0.255729
275 0.210849
280 0.149509
285 0.12644
290 0.130137
295 0.097089
300 0.0700221
305 0.150279
310 0.213217
315 0.111376
320 0.147222
325 0.144288
330 0.11991
335 0.228312
340 0.193529
345 0.0951215
350 0.0950593
355 0.196489
360 0.132454
365 0.12228
370 0.135199
375 0.159274
380 0.137568
385 0.18819
390 0.123464
395 0.108094
400 0.167542
405 0.192627
410 0.172052
415 0.169552
420 0.175188
425 0.123215
430 0.082867
435 0.14258
440 0.220262
445 0.161497
450 0.21671
455 0.197336
460 0.207293
465 0.223639
470 0.190238
475 0.177614
480 0.215931
485 0.185566
490 0.202707
495 0.19557
500 0.199762
505 0.288633
510 0.200444
515 0.28314
520 0.382413
525 0.328368
530 0.40247
535 0.589167
540 1.0019
545 1.36464
550 48.8423
555 965.093
560 1670.86
565 480.76
570 57.03
575 7.32217
580 1.43597
585 0.653892
590 0.450181
595 0.304811
600 0.153983
Ex : 568
200 0.177826
205 0.131613
210 0.13092
215 0.222454
220 0.246591
225 0.151912
230 0.108183
235 0.245364
240 0.0973172
245 0.184456
250 0.126543
255 0.119434
260 0.103102
265 0.158358
270 0.203316
275 0.247085
280 0.21534
285 0.1359
290 0.104414
295 0.14984
300 0.0801462
305 0.138498
310 0.0964748
315 0.0793275
320 0.0862545
325 0.0675814
330 0.122592
335 0.203636
340 0.132984
345 0.135848
350 0.117197
355 0.0818948
360 0.0821862
365 0.165701
370 0.106926
375 0.116363
380 0.147016
385 0.143958
390 0.255677
395 0.243641
400 0.167407
405 0.122995
410 0.165149
415 0.0979211
420 0.103914
425 0.107631
430 0.221466
435 0.261614
440 0.2705
445 0.200909
450 0.192239
455 0.204245
460 0.192772
465 0.22095
470 0.145671
475 0.264741
480 0.22233
485 0.293946
490 0.175511
495 0.223528
500 0.144889
505 0.213697
510 0.252849
515 0.242303
520 0.284091
525 0.287785
530 0.38598
535 0.38087
540 0.586046
545 0.869028
550 1.25898
555 35.7549
560 859.397
565 1600.27
570 485.795
575 58.1425
580 7.4439
585 1.34006
590 0.582991
595 0.336479
600 1.29854
Ex : 573
200 0.0543222
205 0.123712
210 0.159767
215 0.105611
220 0.149051
225 0.181089
230 0.0905295
235 0.0807568
240 0.144865
245 0.138403
250 0.119791
255 0.113553
260 0.138857
265 0.211019
270 0.251111
275 0.159276
280 0.183261
285 0.17027
290 0.0909714
295 0.147935
300 0.108935
305 0.0906864
310 0.0997014
315 0.079158
320 0.10834
325 0.170433
330 0.171063
335 0.163251
340 0.139865
345 0.0986266
350 0.0841317
355 0.164606
360 0.0947322
365 0.110333
370 0.107941
375 0.171921
380 0.12007
385 0.138036
390 0.0929044
395 0.13699
400 0.117762
405 0.162183
410 0.178057
415 0.205674
420 0.160094
425 0.105668
430 0.12064
435 0.128478
440 0.148067
445 0.204987
450 0.142536
455 0.227449
460 0.148049
465 0.100787
470 0.247048
475 0.238201
480 0.200031
485 0.174956
490 0.115423
495 0.208932
500 0.198956
505 0.280281
510 0.326307
515 0.263898
520 0.252043
525 0.19457
530 0.319866
535 0.297447
540 0.282279
545 0.54666
550 0.847633
555 1.11771
560 31.3601
565 753.773
570 1498.38
575 465.173
580 55.6684
585 6.94117
590 1.246
595 0.628303
600 0.780461
Ex : 578
200 0.0651466
205 0.137427
210 0.12505
215 0.113825
220 0.286963
225 0.13234
230 0.206502
235 0.165414
240 0.163516
245 0.167805
250 0.160029
255 0.0752393
260 0.182421
265 0.110708
270 0.131011
275 0.0722887
280 0.125969
285 0.115727
290 0.155569
295 0.123497
300 0.128477
305 0.183525
310 0.115283
315 0.132589
320 0.156799
325 0.197779
330 0.144893
335 0.0748392
340 0.200215
345 0.130889
350 0.0601963
355 0.0899725
360 0.149766
365 0.110642
370 0.16454
375 0.142839
380 0.112009
385 0.099666
390 0.0792093
395 0.129721
400 0.176552
405 0.150467
410 0.145055
415 0.206854
420 0.181235
425 0.328919
430 0.250702
435 0.124915
440 0.157935
445 0.208641
450 0.174023
455 0.124345
460 0.160904
465 0.129431
470 0.107205
475 0.192504
480 0.224475
485 0.208716
490 0.20321
495 0.17983
500 0.244021
505 0.265
510 0.237955
515 0.21364
520 0.208418
525 0.242767
530 0.228569
535 0.199727
540 0.278607
545 0.407678
550 0.562044
555 0.767341
560 1.1862
565 27.7283
570 679.968
575 1307.98
580 396.147
585 47.217
590 5.96314
595 1.10161
600 0.26308
Ex : 583
200 0.109192
205 0.140444
210 0.103686
215 0.129025
220 0.110889
225 0.133615
230 0.125528
235 0.111195
240 0.0816385
245 0.153882
250 0.0968347
255 0.151433
260 0.174033
265 0.158641
270 0.164434
275 0.132262
280 0.219767
285 0.147095
290 0.180917
295 0.167219
300 0.113322
305 0.11198
310 0.142948
315 0.107804
320 0.140577
325 0.162707
330 0.186521
335 0.12214
340 0.20158
345 0.191669
350 0.128168
355 0.199236
360 0.101016
365 0.118204
370 0.13798
375 0.201641
380 0.137935
385 0.175063
390 0.12264
395 0.186282
400 0.147885
405 0.116556
410 0.131166
415 0.158305
420 0.118424
425 0.136472
430 0.158889
435 0.0834652
440 0.168949
445 0.180245
450 0.165686
455 0.116061
460 0.141085
465 0.214356
470 0.141104
475 0.14396
480 0.203722
485 0.239352
490 0.188365
495 0.249797
500 0.141406
505 0.158413
510 0.250846
515 0.261222
520 0.314359
525 0.176913
530 0.324797
535 0.22129
540 0.276233
545 0.335386
550 0.378057
555 0.574744
560 0.590336
565 0.691413
570 23.9438
575 606.996
580 1151.27
585 334.372
590 39.896
595 5.14981
600 0.685184
Ex : 588
200 0.1688
205 0.237529
210 0.182856
215 0.0928926
220 0.08008
225 0.216519
230 0.100942
235 0.177939
240 0.107929
245 0.116632
250 0.145093
255 0.125098
260 0.195463
265 0.0740032
270 0.102184
275 0.325389
280 0.166943
285 0.154089
290 0.121143
295 0.0769868
300 0.129199
305 0.110961
310 0.117067
315 0.140514
320 0.105012
325 0.186769
330 0.189343
335 0.150756
340 0.129284
345 0.108272
350 0.144016
355 0.128846
360 0.129001
365 0.100412
370 0.0996479
375 0.149621
380 0.122974
385 0.145541
390 0.143493
395 0.0640948
400 0.149408
405 0.133335
410 0.113193
415 0.157064
420 0.138411
425 0.181239
430 0.149654
435 0.316751
440 0.132247
445 0.209488
450 0.274074
455 0.0833728
460 0.186728
465 0.109176
470 0.182533
475 0.103198
480 0.0879211
485 0.113519
490 0.199624
495 0.2318
500 0.201572
505 0.256785
510 0.12432
515 0.121421
520 0.183897
525 0.258817
530 0.174269
535 0.223925
540 0.170184
545 0.274289
550 0.243612
555 0.324778
560 0.45695
565 0.4805
570 0.908141
575 20.5838
580 509.4
585 975.872
590 292.808
595 34.8295
600 5.1557
Ex : 593
200 0.124548
205 0.16539
210 0.093718
215 0.113197
220 0.13845
225 0.225718
230 0.0796315
235 0.0916563
240 0.22252
245 0.171973
250 0.23767
255 0.115122
260 0.223487
265 0.170105
270 0.150414
275 0.105834
280 0.193108
285 0.186117
290 0.0996956
295 0.0722292
300 0.140354
305 0.175034
310 0.114185
315 0.230638
320 0.13151
325 0.13196
330 0.179219
335 0.108064
340 0.0607439
345 0.142096
350 0.167692
355 0.117568
360 0.170851
365 0.185345
370 0.126199
375 0.168623
380 0.0995185
385 0.203725
390 0.212234
395 0.313166
400 0.147114
405 0.105732
410 0.117191
415 0.127383
420 0.233952
425 0.143017
430 0.0937101
435 0.136872
440 0.131628
445 0.0711613
450 0.27261
455 0.193804
460 0.119372
465 0.112834
470 0.141488
475 0.11428
480 0.117141
485 0.276591
490 0.251662
495 0.126908
500 0.168676
505 0.180631
510 0.268048
515 0.190023
520 0.123195
525 0.165275
530 0.133584
535 0.197395
540 0.16662
545 0.219894
550 0.255187
555 0.235462
560 0.392205
565 0.56413
570 0.561114
575 0.723912
580 17.6427
585 448.775
590 838.728
595 252.194
600 35.051
Ex : 598
200 0.11044
205 0.189101
210 0.0795452
215 0.158887
220 0.142466
225 0.112539
230 0.0841317
235 0.145666
240 0.117274
245 0.114214
250 0.0818547
255 0.186793
260 0.132431
265 0.18
270 0.240938
275 0.155538
280 0.141136
285 0.139913
290 0.0806216
295 0.106853
300 0.12977
305 0.131772
310 0.205687
315 0.260552
320 0.192261
325 0.126532
330 0.220493
335 0.107188
340 0.145948
345 0.0931334
350 0.108264
355 0.173128
360 0.18278
365 0.149859
370 0.15194
375 0.106736
380 0.0792468
385 0.15903
390 0.16046
395 0.136274
400 0.237863
405 0.161649
410 0.151047
415 0.258804
420 0.171867
425 0.247637
430 0.169885
435 0.216398
440 0.114633
445 0.172642
450 0.203371
455 0.141405
460 0.113207
465 0.224004
470 0.225612
475 0.191477
480 0.183379
485 0.214062
490 0.207538
495 0.226106
500 0.182783
505 0.172532
510 0.176181
515 0.161748
520 0.280511
525 0.113054
530 0.172874
535 0.312447
540 0.230635
545 0.195126
550 0.155042
555 0.250401
560 0.297563
565 0.317312
570 0.364927
575 0.486233
580 0.687129
585 17.2899
590 404.669
595 737.722
600 468.064
Ex : 603
200 0.0736677
205 0.153677
210 0.171855
215 0.183636
220 0.18552
225 0.0836712
230 0.163381
235 0.165622
240 0.150408
245 0.196925
250 0.172963
255 0.177594
260 0.121951
265 0.168312
270 0.206313
275 0.188961
280 0.16331
285 0.108677
290 0.0648489
295 0.104816
300 0.148429
305 0.153528
310 0.0820369
315 0.0848282
320 0.114088
325 0.128452
330 0.189014
335 0.0853242
340 0.188422
345 0.171956
350 0.178446
355 0.128376
360 0.132021
365 0.111963
370 0.134401
375 0.09353
380 0.177466
385 0.112138
390 0.154063
395 0.199466
400 0.153955
405 0.337489
410 0.187156
415 0.120583
420 0.139568
425 0.168871
430 0.206326
435 0.3087
440 0.161905
445 0.217719
450 0.195349
455 0.150192
460 0.296362
465 0.138725
470 0.179261
475 0.228067
480 0.160649
485 0.141579
490 0.209805
495 0.191828
500 0.232201
505 0.206558
510 0.206828
515 0.19611
520 0.299387
525 0.219182
530 0.236205
535 0.213024
540 0.15969
545 0.228745
550 0.222807
555 0.270632
560 0.236047
565 0.193354
570 0.37028
575 0.37818
580 0.488516
585 0.749661
590 16.0286
595 352.553
600 727.638
