File format V 1.0
jeu. 5. janv. 22:03:14 2017
Operator : 
Comments : 

=============================================
SpectroFluorometer parameters
Mode : 3D measurement
Data : Fluorescence
Phospho. : Ordinary
Spectrum : Fluorescence

Scan speed : 2400 nm/mn
Response : 100 ms
PM Voltage : 700 V
Shutter : On

Lambda Ex. Start : 203
Lambda Ex. End : 603
Lambda Ex. Step : 5
Ex. Slit : 5 nm

Lambda Em. Start : 200
Lambda Em. End : 600
Lambda Em. Step : 5
Em. Slit : 5 nm

Repetition : 1
Decal lambda em : 10
=============================================
DATA
Ex : 203
200 4.07383
205 3.30942
210 2.64528
215 4.03073
220 5.7821
225 4.08222
230 8.35361
235 4.56777
240 6.69328
245 5.98373
250 3.82182
255 3.1971
260 6.49044
265 7.92467
270 4.08676
275 6.56214
280 2.86
285 4.63613
290 4.56728
295 8.85867
300 7.7897
305 5.04926
310 1.61358
315 5.6942
320 2.83921
325 3.53158
330 3.93589
335 2.49797
340 4.16214
345 6.07873
350 5.17131
355 5.48287
360 10.7002
365 5.56063
370 8.4542
375 4.59549
380 4.88354
385 4.04665
390 6.18537
395 5.84757
400 4.14526
405 4.82002
410 6.99144
415 4.73983
420 6.19393
425 5.51483
430 7.59824
435 4.43901
440 5.70704
445 5.47954
450 4.81709
455 10.7622
460 3.04634
465 8.0757
470 4.17775
475 4.14849
480 4.29042
485 10.2249
490 4.92268
495 4.67308
500 6.54761
505 4.76003
510 5.96595
515 5.02436
520 4.92168
525 8.33963
530 4.35995
535 6.62666
540 8.51111
545 9.7908
550 4.44973
555 7.16383
560 5.57139
565 6.35352
570 2.82407
575 6.47232
580 4.68946
585 3.77715
590 2.12223
595 3.80358
600 0.432833
Ex : 208
200 2.53595
205 2.16007
210 6.60628
215 7.26868
220 6.20549
225 6.67864
230 6.45216
235 8.24424
240 3.78476
245 3.73993
250 2.42841
255 3.35985
260 4.87922
265 6.68532
270 5.04034
275 5.33624
280 2.46022
285 3.97061
290 5.63445
295 1.85516
300 2.50913
305 3.29862
310 5.12106
315 8.0788
320 7.35949
325 4.4331
330 5.98387
335 3.88491
340 3.48453
345 6.86276
350 5.86555
355 10.0426
360 6.9377
365 3.18032
370 4.28573
375 5.49248
380 3.97476
385 4.95617
390 4.37467
395 6.79214
400 4.42199
405 6.70663
410 3.23433
415 3.08384
420 8.88064
425 5.69017
430 5.49129
435 4.83588
440 5.38194
445 7.67273
450 2.71504
455 6.31017
460 4.86955
465 6.1834
470 5.53401
475 5.87413
480 5.2321
485 5.50817
490 7.49086
495 4.86036
500 6.93487
505 5.4242
510 3.35489
515 9.2884
520 4.32658
525 3.96197
530 5.02542
535 5.47206
540 8.19945
545 3.65279
550 3.88568
555 6.27829
560 4.33927
565 4.38388
570 7.67317
575 5.82021
580 8.94664
585 3.21028
590 5.7263
595 6.53388
600 7.16851
Ex : 213
200 8.43949
205 2.99449
210 3.17769
215 2.12877
220 4.22046
225 5.10496
230 5.1746
235 2.82708
240 3.87232
245 2.16093
250 2.39481
255 1.34037
260 3.22359
265 2.72817
270 5.83261
275 2.31607
280 2.61005
285 4.43263
290 2.12135
295 5.31118
300 4.09382
305 3.97569
310 6.33892
315 3.06346
320 4.12752
325 7.64914
330 6.83875
335 5.95619
340 3.31397
345 6.22127
350 5.16975
355 4.4826
360 4.91869
365 5.75879
370 5.81718
375 5.70375
380 5.10831
385 3.54647
390 7.06714
395 8.31585
400 6.88945
405 5.71274
410 3.65084
415 6.23486
420 9.53679
425 5.36134
430 4.5127
435 4.1441
440 6.33969
445 8.25134
450 5.06711
455 5.9744
460 5.14432
465 6.28721
470 9.7939
475 3.49993
480 9.73703
485 6.15773
490 4.20363
495 3.9893
500 3.77443
505 4.41429
510 4.80853
515 3.98807
520 9.39803
525 5.81494
530 6.42498
535 9.78632
540 8.4359
545 4.29938
550 6.35673
555 6.4204
560 6.08865
565 4.70294
570 3.09659
575 4.40997
580 8.09941
585 5.6273
590 4.63389
595 4.30736
600 0.490161
Ex : 218
200 2.6747
205 5.86904
210 7.23384
215 7.86136
220 4.63255
225 6.98379
230 4.90762
235 3.69833
240 6.06397
245 5.12694
250 4.30072
255 5.30777
260 2.68764
265 3.76367
270 5.08086
275 3.255
280 6.42711
285 4.03829
290 5.56825
295 4.10043
300 2.77665
305 4.48567
310 4.60148
315 3.81688
320 3.84623
325 3.3164
330 4.30282
335 4.32597
340 5.67362
345 6.19404
350 4.89915
355 3.93921
360 5.57234
365 5.96838
370 4.50353
375 11.954
380 4.65607
385 7.7617
390 5.1788
395 6.44598
400 7.55269
405 3.60116
410 8.84055
415 5.7614
420 9.63654
425 6.21191
430 7.13059
435 9.00882
440 10.9495
445 5.30472
450 5.50693
455 4.45221
460 7.48971
465 7.07299
470 5.29234
475 7.34561
480 2.76399
485 4.93353
490 6.3908
495 3.99036
500 8.75582
505 2.55379
510 3.61388
515 10.0077
520 5.50422
525 6.64785
530 5.09663
535 4.21341
540 8.74893
545 4.0205
550 3.38084
555 6.72014
560 3.24271
565 2.8088
570 5.66472
575 7.5547
580 4.89192
585 5.13914
590 7.02314
595 6.01376
600 0.684343
Ex : 223
200 5.77852
205 3.46667
210 4.83127
215 3.01596
220 4.55267
225 6.92342
230 7.2073
235 3.99527
240 3.78209
245 1.91731
250 3.88153
255 5.47091
260 3.5054
265 2.09178
270 3.82661
275 5.474
280 2.62529
285 11.1104
290 7.91661
295 3.11921
300 3.73624
305 3.53204
310 4.6158
315 8.67834
320 5.58069
325 3.79665
330 5.45966
335 5.10634
340 9.35872
345 4.72058
350 5.35422
355 4.85753
360 7.71994
365 5.78256
370 6.78672
375 4.81824
380 4.57244
385 6.0307
390 7.91675
395 4.92618
400 7.31995
405 6.8924
410 10.8483
415 5.36493
420 5.47686
425 4.61116
430 8.45626
435 4.74089
440 5.87959
445 7.13836
450 7.89146
455 6.35239
460 7.36115
465 9.34101
470 7.58657
475 6.36967
480 7.56768
485 8.6125
490 5.89012
495 7.73761
500 6.19202
505 4.49014
510 9.7106
515 6.63405
520 3.59406
525 5.09576
530 3.22727
535 5.39255
540 11.259
545 3.75499
550 3.65802
555 3.82144
560 7.51355
565 8.15047
570 7.523
575 3.01689
580 3.69119
585 6.81145
590 3.4616
595 3.0634
600 0.348603
Ex : 228
200 3.31638
205 4.25652
210 4.69111
215 2.96288
220 4.40023
225 4.39329
230 2.67896
235 4.32442
240 3.81944
245 3.55672
250 1.41389
255 6.25726
260 8.49151
265 6.5608
270 4.21501
275 3.39146
280 6.31211
285 6.23304
290 2.35589
295 2.03519
300 5.17719
305 5.54682
310 3.39312
315 3.59083
320 4.79432
325 6.87966
330 6.13084
335 3.61253
340 5.19551
345 4.05244
350 6.82571
355 6.28711
360 5.07579
365 5.82706
370 4.56137
375 5.34452
380 5.63918
385 4.75187
390 4.01819
395 4.9668
400 7.43984
405 4.54783
410 4.97573
415 4.78705
420 3.13519
425 4.19521
430 5.65119
435 8.21424
440 10.5695
445 6.51484
450 6.93398
455 5.63901
460 3.65377
465 6.00093
470 6.43474
475 3.75793
480 8.16857
485 8.05857
490 6.34168
495 6.08369
500 5.43816
505 3.64476
510 4.99875
515 3.41375
520 7.00009
525 3.78816
530 3.03817
535 4.17093
540 8.66773
545 4.36533
550 5.43945
555 4.2671
560 1.89147
565 3.28287
570 3.98907
575 4.70033
580 2.80252
585 4.3555
590 5.11498
595 2.99275
600 0.340564
Ex : 233
200 5.91005
205 3.19096
210 5.32275
215 3.12834
220 4.62807
225 2.07518
230 4.06082
235 4.42594
240 4.47533
245 4.61354
250 8.37351
255 2.72085
260 4.98737
265 5.51237
270 3.16526
275 2.77857
280 5.62849
285 2.0605
290 6.60833
295 2.18909
300 1.46702
305 4.38696
310 4.24816
315 3.94559
320 4.07215
325 3.85046
330 4.11465
335 5.65739
340 6.96945
345 2.87
350 3.64853
355 3.98476
360 4.83708
365 5.08316
370 4.9605
375 4.9955
380 6.95525
385 5.88715
390 2.89011
395 2.17393
400 5.36974
405 4.71456
410 7.51178
415 6.25481
420 5.57417
425 3.60943
430 7.39365
435 3.82042
440 5.07175
445 5.40559
450 4.82008
455 6.02911
460 6.42672
465 7.28048
470 7.46751
475 6.60765
480 5.95669
485 10.1069
490 5.4009
495 4.52261
500 5.26544
505 4.73159
510 3.99224
515 6.87133
520 4.37916
525 5.72042
530 7.19368
535 5.27358
540 4.25508
545 3.7943
550 4.73262
555 6.34552
560 5.70453
565 4.74331
570 4.33978
575 2.68988
580 2.89207
585 2.54462
590 3.15462
595 2.46192
600 0.280157
Ex : 238
200 3.00518
205 2.39559
210 3.09425
215 4.78313
220 2.74691
225 2.0365
230 3.64189
235 3.97261
240 5.85459
245 4.16418
250 1.72144
255 3.07821
260 4.7385
265 4.20053
270 1.83156
275 2.0949
280 2.78623
285 2.80276
290 6.88922
295 3.05052
300 3.80539
305 2.36618
310 2.48895
315 2.65844
320 2.48849
325 5.41383
330 6.39153
335 7.55513
340 4.20334
345 3.92281
350 2.29165
355 6.17029
360 2.26137
365 7.43385
370 2.80244
375 3.04409
380 8.31347
385 6.31036
390 4.49104
395 3.92506
400 3.85074
405 5.395
410 3.50464
415 3.98772
420 5.30605
425 4.57227
430 5.77982
435 4.08914
440 4.88312
445 2.66147
450 3.18948
455 4.67145
460 4.63182
465 6.92132
470 4.69885
475 5.10752
480 3.94177
485 4.25791
490 5.83232
495 2.86491
500 8.60744
505 4.81076
510 2.23812
515 2.04414
520 6.64381
525 5.26487
530 4.76756
535 4.23505
540 2.65057
545 3.19368
550 5.15616
555 3.15186
560 3.18736
565 3.08336
570 3.7034
575 4.48591
580 3.6337
585 1.88469
590 2.85178
595 2.63277
600 2.95821
Ex : 243
200 1.40741
205 2.29246
210 2.58534
215 2.47507
220 3.87427
225 3.61119
230 4.69362
235 3.18107
240 4.61056
245 3.4574
250 1.45409
255 3.17169
260 2.55332
265 3.08971
270 1.78675
275 2.0742
280 2.26422
285 2.43079
290 2.78309
295 2.62743
300 2.06781
305 4.40401
310 3.10924
315 1.67362
320 2.50383
325 2.35522
330 6.09218
335 5.07864
340 3.38897
345 3.44571
350 3.89334
355 4.73352
360 4.00256
365 4.82766
370 3.95703
375 5.99671
380 3.3297
385 2.66274
390 5.43713
395 3.68944
400 5.69715
405 3.58247
410 3.23983
415 3.85392
420 2.11018
425 2.47708
430 3.05173
435 7.0334
440 5.03874
445 3.52619
450 3.49111
455 3.14717
460 3.0884
465 4.94001
470 3.58101
475 2.94375
480 2.35356
485 2.82638
490 5.58525
495 2.73256
500 6.62334
505 4.28676
510 3.38881
515 3.20106
520 3.28874
525 3.88766
530 4.7005
535 2.81678
540 3.88344
545 3.42862
550 2.29641
555 4.03954
560 2.23585
565 3.03339
570 4.29817
575 2.36816
580 1.75939
585 1.08642
590 4.48536
595 3.38967
600 1.27194
Ex : 248
200 4.65979
205 3.85041
210 5.99593
215 2.57642
220 1.64955
225 0.830586
230 1.08795
235 1.25086
240 2.43457
245 2.47962
250 2.1225
255 2.97665
260 2.79162
265 3.83977
270 1.47352
275 3.57208
280 1.7216
285 1.96206
290 1.04301
295 1.30234
300 2.21165
305 2.19105
310 1.71992
315 2.49985
320 1.60595
325 1.29619
330 2.54256
335 1.69977
340 2.27066
345 4.71885
350 3.79707
355 2.75959
360 2.58534
365 3.84507
370 2.97044
375 2.80074
380 2.45395
385 3.39783
390 2.65675
395 2.78755
400 2.3096
405 6.45331
410 3.18921
415 3.03149
420 2.18555
425 2.15035
430 3.63821
435 4.83835
440 2.76276
445 3.22234
450 3.34756
455 3.70499
460 4.68329
465 3.45618
470 3.5895
475 2.38316
480 3.79491
485 5.51009
490 3.94131
495 2.82529
500 3.66872
505 5.78871
510 3.10025
515 3.73703
520 3.23105
525 3.2547
530 2.39232
535 1.97159
540 3.77884
545 3.90325
550 2.19255
555 3.13364
560 2.57962
565 1.27565
570 0.754228
575 5.27415
580 3.73919
585 2.1001
590 2.527
595 3.17477
600 0.361277
Ex : 253
200 1.51873
205 1.314
210 1.95448
215 1.1609
220 1.88941
225 2.37559
230 3.58778
235 2.68226
240 2.4718
245 1.28548
250 1.88103
255 2.86753
260 1.34239
265 2.77836
270 1.30472
275 1.71085
280 1.96216
285 1.41247
290 1.86034
295 1.77132
300 2.38115
305 1.42965
310 0.784316
315 1.49736
320 3.71772
325 2.35682
330 1.74348
335 2.00146
340 3.71437
345 1.95977
350 2.72493
355 5.29498
360 3.14502
365 2.424
370 2.97062
375 4.10245
380 2.34444
385 2.01834
390 4.09584
395 4.09901
400 4.26482
405 3.46547
410 4.49781
415 2.42097
420 4.09498
425 4.18008
430 2.28684
435 3.07882
440 2.97769
445 1.93145
450 1.85838
455 3.22963
460 2.69542
465 2.78496
470 2.52593
475 4.55261
480 2.59283
485 2.91111
490 3.8397
495 1.8082
500 2.99382
505 3.35275
510 3.20367
515 2.84329
520 2.00395
525 3.64903
530 3.26432
535 2.4125
540 1.71397
545 2.28053
550 2.53057
555 1.90592
560 3.25455
565 2.0518
570 1.27701
575 3.71332
580 1.80339
585 2.49773
590 2.48091
595 3.29177
600 3.52554
Ex : 258
200 2.22122
205 3.18626
210 1.67441
215 0.587467
220 1.39616
225 2.02998
230 0.970187
235 1.26789
240 2.81313
245 1.61976
250 1.12692
255 1.15972
260 1.2608
265 1.48515
270 1.2128
275 0.772726
280 1.80071
285 2.81221
290 1.14865
295 0.604585
300 1.7824
305 2.61813
310 2.17531
315 1.4488
320 1.29462
325 1.54304
330 2.68548
335 1.71674
340 1.93891
345 2.92184
350 2.79906
355 2.55757
360 3.0449
365 1.81145
370 1.31744
375 2.78436
380 2.05133
385 2.89006
390 3.54287
395 2.97825
400 1.51984
405 1.09674
410 2.57798
415 2.02075
420 2.4313
425 1.85599
430 1.84412
435 2.45709
440 2.78812
445 1.84633
450 2.86872
455 3.67932
460 1.88033
465 2.0888
470 1.8542
475 2.59678
480 3.32033
485 1.58781
490 1.55604
495 4.52556
500 3.30079
505 2.21773
510 3.10407
515 2.76634
520 1.8525
525 1.84559
530 0.959729
535 1.39933
540 3.57571
545 2.20648
550 1.99927
555 1.17129
560 2.30833
565 1.21596
570 2.01976
575 2.75491
580 1.12552
585 1.36027
590 1.51501
595 2.56828
600 0.292261
Ex : 263
200 1.7133
205 1.32257
210 1.10634
215 0.94197
220 0.559014
225 1.50369
230 2.07475
235 1.3773
240 1.36813
245 1.46858
250 0.562526
255 0.598272
260 1.37515
265 0.645261
270 1.06963
275 0.528895
280 0.798948
285 0.94716
290 1.0792
295 1.27391
300 0.706176
305 0.832385
310 1.00165
315 0.990972
320 1.35155
325 1.99271
330 1.51028
335 2.46175
340 1.59108
345 1.66335
350 2.43132
355 2.21699
360 2.03917
365 0.978744
370 2.06592
375 2.3214
380 2.50871
385 2.07053
390 1.31356
395 2.7258
400 2.7789
405 2.3299
410 2.60484
415 1.57649
420 1.51265
425 1.48245
430 1.98606
435 1.51389
440 0.975541
445 1.28519
450 1.49552
455 2.05493
460 1.81037
465 2.36772
470 2.5761
475 2.00136
480 2.01232
485 2.32043
490 1.63393
495 1.41446
500 1.47223
505 2.16701
510 1.92899
515 3.71543
520 3.69373
525 2.63903
530 1.38807
535 1.03472
540 1.11017
545 2.27832
550 1.4211
555 1.17143
560 1.35867
565 1.43094
570 1.6857
575 1.37084
580 1.70166
585 0.999283
590 0.952935
595 1.23476
600 0.140511
Ex : 268
200 1.20862
205 1.21752
210 0.710763
215 1.08458
220 1.37898
225 1.08246
230 1.42278
235 1.50046
240 1.17287
245 0.907494
250 0.621358
255 1.1822
260 0.827555
265 0.981606
270 1.0127
275 0.551468
280 1.34241
285 0.803312
290 1.42513
295 1.05964
300 1.16022
305 0.549434
310 0.742867
315 0.909319
320 0.891352
325 1.52034
330 1.32711
335 1.24413
340 1.39305
345 1.22497
350 1.18785
355 2.06433
360 1.43279
365 1.08116
370 0.885841
375 1.59163
380 1.84728
385 1.1875
390 1.23169
395 1.37815
400 1.45205
405 1.8123
410 2.02698
415 1.59443
420 1.86238
425 1.33972
430 2.01658
435 2.22818
440 1.68264
445 1.60742
450 0.783446
455 1.44701
460 0.989273
465 0.987369
470 0.88856
475 1.80914
480 2.03005
485 1.73221
490 1.20833
495 1.15225
500 1.18531
505 1.27376
510 2.04695
515 1.13418
520 0.78753
525 1.0052
530 1.27566
535 1.54106
540 0.971343
545 1.2642
550 1.64406
555 0.962058
560 1.83425
565 0.857203
570 1.24197
575 0.811538
580 0.520913
585 1.29268
590 0.967661
595 0.802386
600 0.682111
Ex : 273
200 0.576404
205 0.993806
210 0.938555
215 0.984036
220 0.669252
225 0.564889
230 0.762534
235 0.864422
240 0.494437
245 0.530419
250 1.16712
255 0.674215
260 0.745089
265 0.911509
270 0.777726
275 0.866191
280 1.00464
285 0.527226
290 0.788939
295 0.630122
300 1.35963
305 1.28584
310 1.09207
315 1.06367
320 1.27899
325 1.06046
330 0.628672
335 0.93095
340 0.759712
345 1.43615
350 1.21518
355 1.35041
360 0.743493
365 1.70464
370 1.08018
375 1.61558
380 0.851441
385 1.13796
390 1.40002
395 1.26832
400 1.3017
405 1.22085
410 1.32153
415 1.0808
420 1.12716
425 1.64978
430 1.24609
435 1.72394
440 0.851329
445 1.04681
450 1.19422
455 1.12801
460 1.05743
465 1.11368
470 1.15244
475 0.832023
480 1.13552
485 1.21962
490 1.27037
495 1.24016
500 1.34128
505 0.766853
510 0.880715
515 0.77891
520 0.888212
525 0.730668
530 1.14939
535 0.939545
540 1.23224
545 1.05238
550 0.659526
555 0.555991
560 0.619008
565 0.600977
570 0.673163
575 0.849373
580 0.574816
585 0.879575
590 1.13233
595 0.898949
600 0.566499
Ex : 278
200 0.528302
205 0.55649
210 0.984652
215 0.770726
220 0.611042
225 0.883624
230 1.21424
235 0.434395
240 0.621907
245 1.69656
250 0.670806
255 0.669019
260 0.474363
265 0.855051
270 1.12642
275 0.596777
280 0.994878
285 0.836084
290 0.796414
295 1.07332
300 0.564023
305 0.540304
310 0.675876
315 0.9623
320 0.795415
325 0.668261
330 0.942719
335 1.09548
340 1.04573
345 1.23359
350 1.91198
355 1.47756
360 0.977779
365 1.35228
370 1.35529
375 0.962988
380 0.774438
385 0.957052
390 1.48579
395 1.53259
400 1.41006
405 2.00455
410 0.90004
415 1.49571
420 1.30607
425 0.778018
430 1.24723
435 1.41288
440 1.28439
445 1.17302
450 1.35242
455 0.830816
460 0.900698
465 1.35619
470 1.03644
475 0.633684
480 1.08387
485 1.41474
490 0.719544
495 0.922969
500 0.657185
505 0.527555
510 0.781623
515 1.45846
520 0.674123
525 0.629078
530 1.13307
535 0.865048
540 0.840584
545 1.0611
550 1.02386
555 1.03013
560 0.602007
565 0.549891
570 0.811629
575 0.950315
580 0.545141
585 1.40511
590 1.19842
595 0.498727
600 0.331782
Ex : 283
200 0.590361
205 0.454519
210 0.577324
215 0.384972
220 0.612417
225 0.494192
230 0.514109
235 0.437246
240 0.745437
245 0.627211
250 0.286252
255 0.382887
260 0.452329
265 0.391387
270 0.513037
275 0.642546
280 0.806646
285 0.744221
290 0.434141
295 0.493846
300 0.8287
305 0.490465
310 0.491903
315 0.377621
320 0.527331
325 0.425111
330 0.486778
335 0.765449
340 0.501739
345 0.606582
350 0.811992
355 0.890656
360 0.72894
365 0.959734
370 0.539579
375 1.03576
380 1.12857
385 0.573203
390 1.07378
395 1.1956
400 1.04883
405 0.820569
410 1.13007
415 0.839449
420 1.10371
425 1.04972
430 0.959551
435 1.21612
440 0.93043
445 1.55072
450 1.16211
455 1.2623
460 1.20562
465 0.817041
470 0.787225
475 1.51095
480 1.42349
485 1.03689
490 0.735409
495 1.24257
500 0.58249
505 0.644039
510 0.62472
515 0.507469
520 1.08409
525 0.549169
530 0.567165
535 0.889278
540 0.41784
545 0.830752
550 0.697182
555 0.636744
560 1.09541
565 0.780511
570 0.482837
575 0.454606
580 0.217812
585 0.794613
590 0.407257
595 0.376379
600 0.0428305
Ex : 288
200 0.434837
205 0.878548
210 0.802808
215 0.605765
220 0.452414
225 0.325851
230 0.390886
235 0.412817
240 0.276015
245 0.356313
250 0.32798
255 0.193349
260 0.437773
265 0.660549
270 0.500591
275 0.624829
280 0.8085
285 0.719499
290 0.756516
295 0.321924
300 0.471386
305 0.220192
310 0.27547
315 0.179787
320 0.561345
325 0.823165
330 1.02036
335 0.649748
340 0.595764
345 0.746235
350 0.80057
355 0.8339
360 0.818954
365 0.825519
370 0.695254
375 1.22633
380 1.06296
385 1.0804
390 0.783077
395 0.717976
400 0.790666
405 1.33988
410 0.923737
415 0.647021
420 0.895462
425 1.25719
430 1.88406
435 1.07385
440 1.16294
445 0.949645
450 1.02193
455 0.558835
460 0.667134
465 0.758339
470 0.823864
475 0.730973
480 0.476438
485 1.0036
490 0.777321
495 0.454437
500 0.437964
505 0.721997
510 0.535946
515 0.504649
520 0.749112
525 0.657632
530 0.674641
535 0.731328
540 0.383621
545 0.561948
550 0.619986
555 0.513654
560 0.568758
565 0.524566
570 0.793181
575 0.56941
580 0.531249
585 0.353063
590 0.426986
595 0.324076
600 0.0835209
Ex : 293
200 0.401914
205 0.411038
210 0.244503
215 0.718882
220 0.322293
225 0.327188
230 0.789867
235 0.342546
240 0.313765
245 0.344723
250 0.329233
255 0.383972
260 0.44772
265 0.511756
270 0.326423
275 0.373095
280 0.631375
285 0.378137
290 0.40308
295 0.210612
300 0.407512
305 0.418788
310 0.262422
315 0.497938
320 0.334162
325 0.498244
330 0.861946
335 0.858096
340 0.690338
345 0.740593
350 0.59769
355 0.800901
360 0.772142
365 0.890324
370 0.597916
375 0.838301
380 1.17218
385 0.582166
390 0.889551
395 1.04146
400 1.30485
405 0.665913
410 0.909243
415 0.627305
420 0.815682
425 0.954921
430 0.612094
435 0.605168
440 0.636301
445 0.682002
450 0.621275
455 0.977172
460 0.718272
465 0.719156
470 0.849786
475 0.499694
480 0.638137
485 0.485546
490 0.451056
495 0.531136
500 0.628994
505 0.498057
510 0.52709
515 0.418365
520 0.372267
525 0.551859
530 0.438519
535 0.417688
540 0.517229
545 0.505253
550 0.313765
555 0.415848
560 0.477885
565 0.511197
570 0.346593
575 0.407586
580 0.440407
585 0.758416
590 0.604334
595 0.312182
600 0.0355251
Ex : 298
200 0.227768
205 0.292357
210 0.276944
215 0.30781
220 0.328634
225 0.362504
230 0.260235
235 0.496617
240 0.464829
245 0.227414
250 0.458743
255 0.389785
260 0.356509
265 0.386911
270 0.271828
275 0.20801
280 0.336785
285 0.222692
290 0.328419
295 0.271387
300 0.264656
305 0.395432
310 0.454426
315 0.364417
320 0.45561
325 0.293651
330 0.829602
335 0.836267
340 0.529626
345 0.698303
350 0.396732
355 0.446804
360 0.645345
365 0.56728
370 0.75887
375 0.977099
380 0.726575
385 1.20964
390 0.894098
395 0.65444
400 0.65536
405 0.933165
410 0.584446
415 0.625734
420 0.776978
425 1.01357
430 0.620682
435 0.578031
440 0.829011
445 0.853531
450 0.801219
455 0.731327
460 0.63525
465 0.910679
470 0.666242
475 0.736952
480 0.645084
485 0.495272
490 0.508846
495 0.343473
500 0.611365
505 0.376712
510 0.367672
515 0.588056
520 0.376904
525 0.528673
530 0.427591
535 0.565883
540 0.341794
545 0.316599
550 0.331566
555 0.293864
560 0.400454
565 0.371206
570 0.349608
575 0.41684
580 0.326379
585 0.554983
590 0.647812
595 0.555083
600 0.0631663
Ex : 303
200 0.13811
205 0.426853
210 0.258848
215 0.185698
220 0.373837
225 0.588087
230 0.598644
235 0.506198
240 0.310805
245 0.237485
250 0.212197
255 0.301352
260 0.214941
265 0.435226
270 0.361202
275 0.280428
280 0.197941
285 0.220903
290 0.305327
295 0.419927
300 0.24096
305 0.218361
310 0.12379
315 0.238833
320 0.420144
325 0.454385
330 0.628488
335 0.402161
340 0.820256
345 0.578585
350 0.533832
355 0.503495
360 0.350433
365 0.514605
370 0.564407
375 0.659884
380 1.08932
385 0.792512
390 0.651258
395 0.611696
400 0.956871
405 0.807421
410 0.608182
415 0.730429
420 0.815875
425 0.521904
430 0.546012
435 0.604823
440 0.736306
445 0.696608
450 0.694384
455 0.637209
460 0.563425
465 0.63796
470 0.444881
475 0.41716
480 0.327644
485 0.466562
490 0.620873
495 0.602657
500 0.48797
505 0.673475
510 0.305314
515 0.509785
520 0.64118
525 0.577435
530 0.404848
535 0.259028
540 0.248192
545 0.275457
550 0.333228
555 0.441225
560 0.218332
565 0.406111
570 0.364952
575 0.314235
580 0.153588
585 0.196354
590 0.235316
595 0.593091
600 0.156112
Ex : 308
200 0.370984
205 0.252033
210 0.331294
215 0.174659
220 0.177045
225 0.333946
230 0.220068
235 0.27255
240 0.125411
245 0.263797
250 0.313802
255 0.275936
260 0.153018
265 0.179816
270 0.290407
275 0.177537
280 0.164071
285 0.230636
290 0.270951
295 0.308852
300 0.235137
305 0.3677
310 0.20212
315 0.28683
320 0.268072
325 0.420695
330 0.678544
335 0.741014
340 0.626993
345 0.614397
350 0.564613
355 0.623385
360 0.625439
365 0.416579
370 0.466472
375 0.518317
380 0.602371
385 0.581171
390 0.838897
395 0.543038
400 0.614355
405 0.588907
410 0.782143
415 0.591146
420 0.596755
425 0.654358
430 0.589662
435 0.668101
440 0.581632
445 0.63502
450 0.858819
455 0.639109
460 0.644263
465 0.43626
470 0.46377
475 0.292641
480 0.383762
485 0.335995
490 0.347101
495 0.283775
500 0.225026
505 0.184002
510 0.305878
515 0.371776
520 0.436828
525 0.416147
530 0.272483
535 0.328494
540 0.301938
545 0.268107
550 0.20719
555 0.221921
560 0.192462
565 0.26196
570 0.243989
575 0.292544
580 0.202648
585 0.218032
590 0.415055
595 0.629533
600 0.932155
Ex : 313
200 0.196956
205 0.260701
210 0.0859726
215 0.246967
220 0.0890236
225 0.163271
230 0.247883
235 0.149865
240 0.25687
245 0.197656
250 0.172578
255 0.208681
260 0.176315
265 0.283126
270 0.170434
275 0.159435
280 0.164301
285 0.187485
290 0.26109
295 0.258514
300 0.22466
305 0.286214
310 0.325783
315 0.220755
320 0.490555
325 0.723114
330 0.870628
335 0.80201
340 0.669866
345 0.72116
350 0.71333
355 0.769632
360 0.671584
365 0.618386
370 0.767951
375 0.869175
380 0.891714
385 1.10845
390 1.03037
395 0.95697
400 1.17435
405 0.923749
410 1.10819
415 1.45029
420 1.03468
425 0.964717
430 0.825183
435 0.89541
440 1.0875
445 1.01623
450 0.754014
455 0.787258
460 0.723359
465 0.667488
470 0.629084
475 0.814435
480 0.669932
485 0.6487
490 0.494441
495 0.374411
500 0.377772
505 0.352577
510 0.385541
515 0.312016
520 0.264178
525 0.470984
530 0.39608
535 0.215392
540 0.519823
545 0.34909
550 0.258491
555 0.293832
560 0.236548
565 0.156534
570 0.176728
575 0.172792
580 0.14201
585 0.170142
590 0.264776
595 0.0659148
600 0.00750085
Ex : 318
200 0.123812
205 0.26459
210 0.179569
215 0.218411
220 0.217812
225 0.140241
230 0.257386
235 0.210559
240 0.160652
245 0.182349
250 0.252408
255 0.244091
260 0.233172
265 0.390948
270 0.152709
275 0.0459025
280 0.140342
285 0.128105
290 0.160716
295 0.143276
300 0.153651
305 0.235467
310 0.669841
315 4.75301
320 2.72707
325 1.36513
330 1.38618
335 1.61264
340 1.8722
345 2.06495
350 2.65646
355 3.41004
360 3.86943
365 4.99379
370 5.99893
375 6.95921
380 8.18006
385 8.47104
390 9.8038
395 10.6957
400 10.4176
405 10.9426
410 11.6169
415 11.5316
420 10.8852
425 10.1108
430 10.2694
435 9.79346
440 9.75873
445 8.95355
450 8.60891
455 8.05092
460 7.42875
465 6.92123
470 6.0369
475 5.42461
480 4.99954
485 4.62731
490 3.54276
495 3.26867
500 2.748
505 2.27204
510 1.83325
515 1.82411
520 1.8872
525 1.21771
530 0.985162
535 1.09713
540 0.830975
545 0.82084
550 0.643987
555 0.413724
560 0.464612
565 0.387899
570 0.365261
575 0.371445
580 0.197655
585 0.304586
590 0.303368
595 0.325821
600 0.49025
Ex : 323
200 0.213091
205 0.340933
210 0.190553
215 0.156159
220 0.140878
225 0.371157
230 0.471656
235 0.180914
240 0.243908
245 0.302062
250 0.181155
255 0.192766
260 0.177771
265 0.249557
270 0.148739
275 0.116573
280 0.0694545
285 0.0820755
290 0.118878
295 0.220773
300 0.349318
305 0.295231
310 0.380074
315 36.7414
320 152.313
325 59.2792
330 9.93802
335 5.0254
340 5.46062
345 6.55395
350 9.33239
355 12.8044
360 14.9925
365 18.087
370 20.6584
375 24.2508
380 28.0139
385 31.7119
390 35.8172
395 37.0319
400 38.8027
405 40.264
410 40.4695
415 39.9563
420 39.1723
425 38.411
430 37.2175
435 35.9853
440 34.817
445 32.8257
450 30.1785
455 29.315
460 27.1532
465 24.415
470 22.7196
475 20.888
480 19.1728
485 16.8059
490 14.6346
495 12.9252
500 11.1848
505 9.90587
510 9.00604
515 7.61364
520 6.86795
525 5.33091
530 4.68028
535 4.02864
540 3.49361
545 2.99307
550 2.34926
555 1.84309
560 1.65377
565 1.58875
570 1.05999
575 0.911483
580 0.930775
585 0.531527
590 0.409855
595 0.300513
600 0.224098
Ex : 328
200 0.0767746
205 0.105884
210 0.153711
215 0.123921
220 0.125713
225 0.175294
230 0.225172
235 0.215456
240 0.183057
245 0.14724
250 0.139584
255 0.209343
260 0.376769
265 0.265192
270 0.137562
275 0.102937
280 0.228025
285 0.265922
290 0.202777
295 0.145635
300 0.190792
305 0.238831
310 0.326127
315 8.01871
320 304.083
325 680.365
330 202.115
335 29.0748
340 9.81616
345 8.42378
350 10.2195
355 13.7774
360 18.6062
365 20.852
370 23.1776
375 26.4261
380 29.6463
385 32.8344
390 36.8527
395 39.0873
400 39.9908
405 41.7861
410 41.4017
415 42.5602
420 40.4713
425 38.5516
430 37.0429
435 36.5245
440 34.6631
445 33.4343
450 31.9371
455 29.0316
460 27.0917
465 24.4796
470 22.9612
475 20.8777
480 18.5239
485 16.7291
490 15.2867
495 13.3513
500 12.0299
505 10.7043
510 9.05758
515 8.0468
520 6.90279
525 6.37305
530 5.3793
535 4.45153
540 3.87867
545 3.25948
550 3.07056
555 2.41896
560 2.10114
565 1.70991
570 1.39174
575 1.12542
580 0.871579
585 0.668212
590 0.512157
595 0.385356
600 0.714493
Ex : 333
200 0.127152
205 0.152595
210 0.301763
215 0.223068
220 0.204818
225 0.302592
230 0.142275
235 0.167218
240 0.18345
245 0.206328
250 0.265505
255 0.284592
260 0.176132
265 0.190634
270 0.168034
275 0.180297
280 0.128753
285 0.245379
290 0.322977
295 0.232915
300 0.307127
305 0.301546
310 0.35871
315 0.730767
320 43.2046
325 820.578
330 1383.06
335 352.576
340 46.1844
345 11.7253
350 7.91125
355 7.77493
360 10.9411
365 15.7148
370 17.3954
375 16.7897
380 18.0358
385 20.4379
390 23.382
395 24.8083
400 25.4934
405 24.9285
410 26.18
415 27.2024
420 25.5942
425 24.1979
430 23.1833
435 22.5973
440 22.3326
445 19.8201
450 19.0656
455 17.7114
460 16.441
465 15.2232
470 13.7922
475 12.9488
480 12.1945
485 10.4227
490 9.41336
495 8.48353
500 7.70999
505 6.99156
510 6.5368
515 5.57582
520 4.83879
525 4.0899
530 3.62345
535 3.48737
540 3.11806
545 2.62055
550 2.32285
555 2.06302
560 1.9564
565 1.49084
570 1.2483
575 0.863834
580 0.809309
585 0.849711
590 0.797929
595 0.697989
600 1.9608
Ex : 338
200 0.196268
205 0.191932
210 0.252172
215 0.293086
220 0.175769
225 0.140747
230 0.209364
235 0.171893
240 0.247818
245 0.187923
250 0.144083
255 0.178445
260 0.249177
265 0.152531
270 0.165453
275 0.143512
280 0.320163
285 0.342947
290 0.300557
295 0.273563
300 0.315767
305 0.320575
310 0.696783
315 0.485633
320 1.00095
325 72.488
330 1134.73
335 1658.62
340 398.912
345 51.1646
350 11.0197
355 6.48003
360 5.43177
365 7.37042
370 11.7629
375 12.1569
380 11.5296
385 12.6471
390 15.1474
395 15.9458
400 16.0657
405 16.0816
410 18.0069
415 18.5795
420 17.7971
425 17.0632
430 15.2094
435 15.1043
440 14.4102
445 13.7957
450 12.5271
455 11.9329
460 10.9687
465 10.1484
470 10.0763
475 9.06033
480 8.26435
485 7.37291
490 7.42485
495 6.42532
500 5.73243
505 5.10495
510 4.70567
515 4.45132
520 4.11208
525 3.41015
530 3.07904
535 2.78152
540 2.43754
545 2.36714
550 1.96822
555 1.91111
560 1.48398
565 1.48409
570 1.36367
575 1.06087
580 0.924199
585 0.792759
590 0.607887
595 0.721729
600 1.10722
Ex : 343
200 0.128661
205 0.134535
210 0.18228
215 0.191694
220 0.15357
225 0.0915181
230 0.228662
235 0.244392
240 0.183095
245 0.168824
250 0.254454
255 0.249681
260 0.167089
265 0.17086
270 0.264118
275 0.186683
280 0.237324
285 0.460934
290 0.22872
295 0.299537
300 0.252852
305 0.354882
310 0.363397
315 0.411572
320 0.719442
325 1.69823
330 82.9745
335 1316.46
340 1920.04
345 454.828
350 57.2481
355 11.5422
360 5.59495
365 4.27621
370 4.92409
375 8.98151
380 11.2368
385 12.1039
390 13.7154
395 14.2331
400 12.9374
405 13.9585
410 15.1016
415 15.7384
420 15.4731
425 13.5109
430 12.9032
435 12.6893
440 12.9868
445 12.179
450 10.7423
455 10.3636
460 9.58823
465 9.52567
470 8.98251
475 8.05166
480 7.38132
485 7.19346
490 6.62653
495 6.0619
500 5.59405
505 4.88113
510 4.47521
515 4.27888
520 4.05561
525 3.28378
530 3.23945
535 3.00134
540 2.56431
545 2.60314
550 2.24149
555 2.04557
560 1.72573
565 1.43522
570 1.25986
575 1.04292
580 0.982754
585 0.879126
590 0.620813
595 0.59726
600 0.280412
Ex : 348
200 0.167035
205 0.194016
210 0.131775
215 0.179245
220 0.121294
225 0.129568
230 0.294207
235 0.177195
240 0.171647
245 0.221856
250 0.182134
255 0.147914
260 0.197314
265 0.244661
270 0.192889
275 0.254597
280 0.252185
285 0.247165
290 0.182249
295 0.177268
300 0.313189
305 0.290511
310 0.30589
315 0.333753
320 0.517155
325 0.990626
330 2.25163
335 80.8611
340 1267.17
345 1972.93
350 505.068
355 63.1239
360 11.5377
365 5.07159
370 3.52935
375 4.1743
380 8.6766
385 14.4973
390 16.5031
395 16.4947
400 15.4388
405 15.5461
410 17.8454
415 19.0862
420 18.2973
425 15.8248
430 14.8127
435 14.3327
440 14.5303
445 13.5119
450 12.1709
455 11.0254
460 10.1476
465 9.88103
470 9.54857
475 8.99372
480 8.31491
485 8.05207
490 7.20366
495 6.901
500 6.39977
505 5.5862
510 5.51393
515 4.95095
520 4.18925
525 3.74834
530 3.72699
535 2.77778
540 2.8742
545 2.71754
550 2.42798
555 2.29176
560 1.85554
565 1.75125
570 1.50017
575 1.29269
580 0.952983
585 0.721422
590 0.76932
595 0.752429
600 0.562167
Ex : 353
200 0.17023
205 0.175322
210 0.224113
215 0.136849
220 0.117451
225 0.159948
230 0.0839609
235 0.121448
240 0.154488
245 0.147922
250 0.168369
255 0.176084
260 0.251301
265 0.169659
270 0.215491
275 0.185149
280 0.168484
285 0.17528
290 0.25806
295 0.214431
300 0.158143
305 0.195408
310 0.212408
315 0.425593
320 0.378116
325 0.64627
330 1.14551
335 2.29129
340 84.9914
345 1283.39
350 1890.4
355 470.665
360 58.2927
365 10.3936
370 4.55425
375 3.49383
380 4.779
385 10.7695
390 18.8026
395 20.6491
400 17.5887
405 16.88
410 18.7508
415 21.1566
420 20.1323
425 17.7484
430 15.7866
435 15.3572
440 15.5118
445 15.1238
450 13.2179
455 11.8806
460 11.0819
465 10.653
470 10.5386
475 9.84347
480 9.23631
485 8.41487
490 7.54234
495 7.64915
500 6.9368
505 6.48872
510 5.93888
515 5.5169
520 5.0421
525 4.44007
530 3.78302
535 3.57802
540 3.14467
545 2.68891
550 2.56753
555 2.28089
560 2.1061
565 1.83152
570 1.48818
575 1.26555
580 1.07568
585 0.933822
590 0.62446
595 0.649414
600 0.808184
Ex : 358
200 0.225913
205 0.143974
210 0.138803
215 0.132899
220 0.230286
225 0.196281
230 0.253689
235 0.168256
240 0.13717
245 0.118848
250 0.150238
255 0.21509
260 0.157037
265 0.145514
270 0.120357
275 0.112277
280 0.201081
285 0.107445
290 0.194348
295 0.242875
300 0.144757
305 0.240719
310 0.249427
315 0.269671
320 0.471289
325 0.358437
330 0.750691
335 1.24626
340 2.49481
345 81.3572
350 1244.99
355 1862.19
360 456.846
365 57.0487
370 10.2646
375 4.62054
380 4.77197
385 7.62675
390 14.2484
395 19.1428
400 18.3934
405 16.5013
410 17.3969
415 18.9309
420 18.1316
425 16.4546
430 14.588
435 14.1612
440 13.8233
445 14.0903
450 12.601
455 11.4343
460 10.9189
465 10.6456
470 10.0671
475 9.78087
480 9.44099
485 8.69534
490 8.20628
495 7.86607
500 7.33651
505 6.9086
510 6.25685
515 6.09806
520 4.96766
525 4.65141
530 4.22301
535 3.9888
540 3.58844
545 3.42516
550 2.83164
555 2.52155
560 2.20215
565 1.91491
570 1.57538
575 1.34203
580 1.04108
585 0.784627
590 0.657364
595 0.608219
600 0.568881
Ex : 363
200 0.111335
205 0.123604
210 0.108033
215 0.0797534
220 0.222906
225 0.122442
230 0.177919
235 0.147741
240 0.22163
245 0.124595
250 0.142466
255 0.133622
260 0.131784
265 0.149698
270 0.190425
275 0.183029
280 0.191831
285 0.166093
290 0.141384
295 0.142176
300 0.157632
305 0.203306
310 0.226697
315 0.284529
320 0.315951
325 0.320142
330 0.519223
335 0.845161
340 1.32451
345 2.38394
350 73.408
355 1211.53
360 1853.37
365 475.602
370 58.7782
375 10.3522
380 6.38121
385 10.0794
390 13.8298
395 16.3576
400 18.4374
405 19.9614
410 21.1422
415 21.5308
420 18.8312
425 16.4833
430 15.4013
435 15.318
440 15.0848
445 14.3954
450 13.0573
455 12.0614
460 11.1305
465 11.1566
470 10.5584
475 10.3791
480 9.73132
485 9.75046
490 8.93352
495 8.006
500 7.72905
505 7.03124
510 6.68927
515 6.41008
520 5.48994
525 5.55849
530 4.57399
535 4.40686
540 3.74366
545 3.36356
550 3.24136
555 2.70404
560 2.31145
565 1.98177
570 1.51874
575 1.53748
580 1.11619
585 0.947605
590 0.712293
595 0.470474
600 0.696036
Ex : 368
200 0.137836
205 0.134894
210 0.0959414
215 0.135177
220 0.0816777
225 0.113455
230 0.15539
235 0.190723
240 0.216708
245 0.188604
250 0.136959
255 0.331711
260 0.139956
265 0.170392
270 0.116921
275 0.116909
280 0.278761
285 0.120116
290 0.142065
295 0.167323
300 0.122373
305 0.156977
310 0.17427
315 0.173435
320 0.193007
325 0.2764
330 0.437411
335 0.557426
340 0.74715
345 1.22484
350 2.27438
355 60.8463
360 1145.08
365 1855.67
370 493.333
375 61.762
380 12.6897
385 12.6623
390 18.1427
395 20.6122
400 19.1759
405 21.3534
410 27.4459
415 28.0945
420 25.0913
425 21.0346
430 18.6805
435 18.387
440 18.1441
445 17.2361
450 15.323
455 14.0454
460 12.952
465 12.3914
470 12.2467
475 11.6274
480 11.1094
485 10.5564
490 10.2772
495 9.71243
500 8.71319
505 8.1338
510 7.62888
515 6.96348
520 6.63345
525 5.89072
530 5.02405
535 4.86321
540 4.28325
545 3.93633
550 3.39116
555 2.99063
560 2.58885
565 2.16525
570 1.7728
575 1.50908
580 1.09955
585 0.985915
590 0.758473
595 0.674316
600 0.655229
Ex : 373
200 0.0757432
205 0.0786834
210 0.106416
215 0.127535
220 0.115871
225 0.104359
230 0.122686
235 0.0876718
240 0.153271
245 0.105697
250 0.149903
255 0.0957011
260 0.155391
265 0.184921
270 0.125456
275 0.157535
280 0.104064
285 0.204901
290 0.166897
295 0.180889
300 0.17094
305 0.147157
310 0.129222
315 0.152958
320 0.187314
325 0.168025
330 0.280174
335 0.324561
340 0.529238
345 0.879542
350 1.29676
355 2.41091
360 69.3928
365 1216.76
370 1950.94
375 518.448
380 65.3525
385 16.4803
390 18.0411
395 21.9706
400 19.4264
405 18.1227
410 21.9087
415 28.5515
420 27.2208
425 22.4689
430 18.626
435 17.4433
440 17.5043
445 17.2613
450 15.5835
455 13.9797
460 12.4189
465 12.5891
470 12.0534
475 12.0062
480 11.2824
485 10.9649
490 10.5677
495 9.64561
500 9.5199
505 9.0664
510 8.40739
515 7.30171
520 6.97073
525 5.98852
530 5.73666
535 5.17009
540 5.03316
545 4.57107
550 3.76729
555 3.30826
560 2.97116
565 2.73422
570 2.24285
575 1.75059
580 1.4566
585 0.966773
590 0.807163
595 0.645344
600 0.796393
Ex : 378
200 0.119048
205 0.153819
210 0.120481
215 0.112989
220 0.13966
225 0.126206
230 0.132084
235 0.0738293
240 0.104749
245 0.137055
250 0.260936
255 0.120173
260 0.108764
265 0.132205
270 0.173901
275 0.101747
280 0.154012
285 0.101562
290 0.15729
295 0.159607
300 0.0741733
305 0.12309
310 0.15634
315 0.186558
320 0.162498
325 0.224713
330 0.278507
335 0.404553
340 0.385876
345 0.44775
350 0.92049
355 1.41375
360 2.46895
365 70.0549
370 1262.73
375 2064.29
380 555.41
385 72.9134
390 20.5179
395 16.3748
400 14.4802
405 13.5229
410 14.751
415 18.4947
420 20.9133
425 18.1326
430 15.2282
435 13.9259
440 13.5026
445 13.0977
450 11.7497
455 11.2782
460 10.4765
465 10.8437
470 11.0965
475 10.8811
480 10.4701
485 10.4897
490 10.2558
495 9.64817
500 9.1477
505 9.08141
510 8.28498
515 7.75446
520 7.31235
525 6.65477
530 5.65283
535 5.55014
540 4.99142
545 4.25608
550 3.96837
555 3.60339
560 3.08681
565 2.5459
570 2.12313
575 1.8111
580 1.50712
585 1.05125
590 0.950152
595 0.654171
600 1.14741
Ex : 383
200 0.0870502
205 0.0883356
210 0.0803006
215 0.185761
220 0.0981382
225 0.0973975
230 0.0878346
235 0.0569559
240 0.148619
245 0.186543
250 0.183489
255 0.0880298
260 0.121476
265 0.143931
270 0.100138
275 0.104658
280 0.152106
285 0.160739
290 0.127862
295 0.143044
300 0.11222
305 0.127267
310 0.187947
315 0.168572
320 0.206819
325 0.232128
330 0.21912
335 0.297742
340 0.40615
345 0.490324
350 0.599402
355 0.833392
360 1.24688
365 2.27954
370 63.9461
375 1198.62
380 2029.42
385 563.868
390 78.4415
395 22.5431
400 14.1935
405 14.1871
410 15.295
415 16.78
420 15.997
425 16.8442
430 16.3158
435 14.3833
440 13.8074
445 12.8114
450 11.6046
455 11.0519
460 10.7596
465 10.8551
470 10.5297
475 10.4709
480 10.9562
485 10.6004
490 9.76242
495 9.75129
500 9.22536
505 8.64615
510 8.35075
515 7.65585
520 7.58213
525 6.53117
530 5.90912
535 5.4831
540 4.81694
545 4.55435
550 3.98491
555 3.70638
560 3.19729
565 2.89079
570 2.31657
575 1.90713
580 1.40531
585 1.05992
590 0.826849
595 0.662244
600 0.289031
Ex : 388
200 0.0884483
205 0.126637
210 0.155473
215 0.115441
220 0.159198
225 0.0999072
230 0.101583
235 0.143596
240 0.146667
245 0.102729
250 0.169445
255 0.136579
260 0.12928
265 0.0914015
270 0.117556
275 0.0848025
280 0.0888132
285 0.0959917
290 0.127357
295 0.0974435
300 0.115847
305 0.124253
310 0.179657
315 0.187404
320 0.164488
325 0.210693
330 0.212942
335 0.278581
340 0.42539
345 0.399126
350 0.514392
355 0.594737
360 0.811814
365 1.1313
370 2.37209
375 68.0108
380 1234.54
385 2071.34
390 575.575
395 83.9322
400 24.545
405 18.1139
410 20.0477
415 21.2733
420 20.2467
425 17.317
430 17.6538
435 19.4121
440 17.4374
445 16.1644
450 13.8361
455 12.3421
460 11.6801
465 11.6773
470 11.4105
475 11.4182
480 11.265
485 10.9597
490 10.3668
495 10.4626
500 9.78471
505 9.17444
510 8.94002
515 8.2524
520 7.35854
525 6.84762
530 6.27919
535 5.79089
540 5.23434
545 4.63266
550 4.22238
555 3.72572
560 3.23659
565 2.73577
570 2.37308
575 1.90041
580 1.49397
585 1.07152
590 0.870857
595 0.772151
600 0.551264
Ex : 393
200 0.117143
205 0.0942627
210 0.122644
215 0.0999034
220 0.126022
225 0.116844
230 0.128203
235 0.0972779
240 0.107287
245 0.120496
250 0.126734
255 0.176446
260 0.0777912
265 0.111297
270 0.163942
275 0.0956838
280 0.141896
285 0.137861
290 0.138963
295 0.138091
300 0.0928423
305 0.132013
310 0.156894
315 0.179044
320 0.164412
325 0.206321
330 0.232685
335 0.256573
340 0.287293
345 0.30452
350 0.389807
355 0.43723
360 0.630629
365 0.864818
370 1.47629
375 2.6274
380 65.462
385 1310.06
390 2236.17
395 624.453
400 89.03
405 25.0671
410 19.6325
415 22.4364
420 22.0224
425 18.0985
430 15.5352
435 15.9344
440 18.9927
445 17.7883
450 14.9757
455 13.0751
460 12.057
465 11.5461
470 11.7368
475 11.8331
480 11.6781
485 11.3281
490 10.6988
495 10.4193
500 10.0555
505 9.65711
510 9.06558
515 8.52804
520 7.51245
525 6.88989
530 6.54927
535 5.72815
540 5.24609
545 4.68712
550 4.32259
555 3.94398
560 3.44127
565 2.90077
570 2.49557
575 1.90542
580 1.43023
585 1.12733
590 0.873376
595 0.797492
600 0.420652
Ex : 398
200 0.118233
205 0.0592951
210 0.116401
215 0.145416
220 0.109053
225 0.1107
230 0.135769
235 0.111463
240 0.0786072
245 0.0862674
250 0.115063
255 0.161049
260 0.151958
265 0.0906377
270 0.0935245
275 0.139124
280 0.112772
285 0.126196
290 0.136423
295 0.149826
300 0.148938
305 0.0942873
310 0.125534
315 0.12624
320 0.141889
325 0.318556
330 0.207334
335 0.210033
340 0.259025
345 0.217531
350 0.296947
355 0.351294
360 0.434287
365 0.472772
370 0.761259
375 1.33878
380 2.5925
385 61.1523
390 1230.3
395 2178.63
400 608.655
405 80.5222
410 19.3216
415 14.5672
420 13.9138
425 11.3833
430 9.41376
435 9.14607
440 10.3971
445 12.5571
450 12.2929
455 10.1786
460 10.0195
465 9.22099
470 9.65864
475 9.9325
480 10.2358
485 10.4341
490 10.0124
495 9.96977
500 9.26954
505 9.13477
510 8.87384
515 8.35557
520 7.64376
525 6.81306
530 6.43551
535 5.91618
540 5.41925
545 4.72208
550 4.30619
555 3.82178
560 3.43021
565 2.90783
570 2.28934
575 2.0511
580 1.59761
585 1.23435
590 0.969923
595 0.771912
600 0.465076
Ex : 403
200 0.135391
205 0.134739
210 0.116364
215 0.115434
220 0.133457
225 0.0926859
230 0.111755
235 0.114627
240 0.0824699
245 0.120715
250 0.0796354
255 0.0979245
260 0.0834405
265 0.0751858
270 0.0992345
275 0.161683
280 0.12271
285 0.131675
290 0.108911
295 0.121586
300 0.114213
305 0.250883
310 0.135155
315 0.101636
320 0.137461
325 0.158861
330 0.1705
335 0.221946
340 0.242187
345 0.272296
350 0.278422
355 0.319383
360 0.434537
365 0.466824
370 0.583221
375 0.849056
380 1.37173
385 2.7384
390 73.1938
395 1369.87
400 2318.33
405 626.672
410 78.5337
415 14.862
420 7.36463
425 5.82436
430 5.21484
435 4.70161
440 4.97432
445 6.00178
450 8.14527
455 9.27181
460 8.38626
465 8.28975
470 8.71424
475 8.72585
480 9.06701
485 9.62854
490 9.5017
495 9.55047
500 9.57338
505 9.31672
510 8.68808
515 8.06053
520 7.60349
525 7.03365
530 6.36904
535 6.01641
540 5.55623
545 5.23426
550 4.76226
555 3.87488
560 3.46014
565 2.87435
570 2.48236
575 1.86176
580 1.55413
585 1.25361
590 0.935598
595 0.684835
600 0.455136
Ex : 408
200 0.108055
205 0.0865083
210 0.0600707
215 0.125765
220 0.131383
225 0.115221
230 0.0804852
235 0.0638961
240 0.109102
245 0.0962337
250 0.066828
255 0.10231
260 0.142619
265 0.0939794
270 0.096937
275 0.123512
280 0.095002
285 0.127633
290 0.0944059
295 0.11556
300 0.161881
305 0.120016
310 0.136617
315 0.117397
320 0.170441
325 0.154234
330 0.157615
335 0.196048
340 0.177665
345 0.235229
350 0.247631
355 0.253394
360 0.344162
365 0.371183
370 0.450212
375 0.628103
380 0.89405
385 1.51255
390 2.85928
395 69.5733
400 1392.94
405 2320.04
410 603.44
415 74.8075
420 12.853
425 5.1244
430 4.51747
435 4.03119
440 3.94998
445 4.36381
450 5.15044
455 7.14925
460 9.38751
465 8.72942
470 9.06587
475 8.9334
480 9.1457
485 9.13971
490 9.38876
495 9.66133
500 9.4175
505 8.99171
510 8.97172
515 8.46515
520 7.79807
525 7.15378
530 6.66607
535 6.1733
540 5.7589
545 5.05527
550 4.53512
555 4.17393
560 3.58431
565 3.10672
570 2.62089
575 2.01548
580 1.59959
585 1.25862
590 0.950077
595 0.749834
600 0.788283
Ex : 413
200 0.0981308
205 0.100503
210 0.0740518
215 0.0967925
220 0.0883962
225 0.0890412
230 0.0793818
235 0.115709
240 0.124368
245 0.14643
250 0.105531
255 0.0689944
260 0.121892
265 0.0819473
270 0.118889
275 0.0891625
280 0.0742837
285 0.0748159
290 0.140283
295 0.102525
300 0.147935
305 0.086547
310 0.1335
315 0.146785
320 0.0967298
325 0.158756
330 0.15128
335 0.146681
340 0.156044
345 0.173776
350 0.222993
355 0.306894
360 0.295659
365 0.417711
370 0.423616
375 0.483552
380 0.692829
385 1.05128
390 1.56747
395 2.9192
400 81.8883
405 1505.95
410 2528.45
415 647.333
420 79.4882
425 12.8491
430 4.85382
435 4.1073
440 4.08966
445 3.72261
450 4.15111
455 4.94121
460 6.86122
465 9.42127
470 9.49136
475 9.42333
480 9.29156
485 9.40488
490 9.22759
495 9.29945
500 9.18766
505 9.09997
510 8.73862
515 8.11883
520 7.58943
525 7.26169
530 6.85613
535 6.01674
540 5.56168
545 5.16742
550 4.55169
555 4.15378
560 3.76558
565 3.16397
570 2.67771
575 2.07662
580 1.62613
585 1.15518
590 1.00502
595 0.733098
600 0.545791
Ex : 418
200 0.0805148
205 0.121851
210 0.11346
215 0.147628
220 0.131318
225 0.101358
230 0.0900973
235 0.108618
240 0.135431
245 0.11058
250 0.111705
255 0.0895366
260 0.112465
265 0.0946711
270 0.11561
275 0.127944
280 0.140057
285 0.12009
290 0.10046
295 0.137343
300 0.11174
305 0.140678
310 0.218473
315 0.135374
320 0.0993039
325 0.118398
330 0.190032
335 0.21197
340 0.153387
345 0.189096
350 0.233226
355 0.211861
360 0.259942
365 0.316618
370 0.341368
375 0.398832
380 0.465255
385 0.703723
390 1.19458
395 1.57148
400 2.78657
405 79.0899
410 1417.24
415 2311.73
420 614.84
425 75.0293
430 12.0173
435 4.28955
440 3.68737
445 3.93839
450 3.92434
455 4.2929
460 4.91932
465 6.5107
470 9.34763
475 10.2767
480 9.35078
485 9.50147
490 9.54456
495 9.17712
500 8.95938
505 8.98713
510 8.30367
515 7.70712
520 7.35499
525 7.00295
530 6.55108
535 5.94497
540 5.45645
545 4.89053
550 4.45123
555 3.79505
560 3.46749
565 3.1408
570 2.60298
575 1.91651
580 1.48367
585 1.24203
590 0.900178
595 0.696998
600 0.657402
Ex : 423
200 0.0742071
205 0.104713
210 0.104805
215 0.161185
220 0.0855768
225 0.0827583
230 0.132961
235 0.121154
240 0.0708715
245 0.12359
250 0.128641
255 0.102891
260 0.0903682
265 0.13575
270 0.10537
275 0.0724641
280 0.201038
285 0.103644
290 0.128106
295 0.0783377
300 0.0812081
305 0.144744
310 0.10921
315 0.0992982
320 0.0985015
325 0.18472
330 0.125337
335 0.167315
340 0.19367
345 0.249513
350 0.234993
355 0.192272
360 0.310969
365 0.318285
370 0.327785
375 0.337425
380 0.435153
385 0.533705
390 0.701357
395 0.930556
400 1.50455
405 2.75028
410 76.9199
415 1480.73
420 2410.53
425 611.241
430 74.5382
435 11.7698
440 4.27089
445 3.73392
450 3.87135
455 3.81743
460 4.6379
465 5.0333
470 6.62083
475 9.05444
480 10.256
485 9.46684
490 9.1255
495 9.12781
500 8.56315
505 8.24738
510 7.7629
515 7.75232
520 7.01608
525 6.58714
530 6.2346
535 5.60292
540 5.09045
545 4.78057
550 4.17881
555 3.74265
560 3.4307
565 3.00821
570 2.61681
575 2.05166
580 1.46649
585 1.0906
590 0.842453
595 0.724645
600 0.442208
Ex : 428
200 0.0936978
205 0.0927184
210 0.0844546
215 0.0692324
220 0.107815
225 0.115189
230 0.0849239
235 0.119153
240 0.0947154
245 0.0991716
250 0.0563526
255 0.0899954
260 0.0899205
265 0.107943
270 0.119685
275 0.135139
280 0.0764958
285 0.104715
290 0.134139
295 0.146115
300 0.104894
305 0.123514
310 0.112641
315 0.165096
320 0.174508
325 0.198287
330 0.109619
335 0.180843
340 0.147059
345 0.214014
350 0.159151
355 0.255944
360 0.287675
365 0.263972
370 0.303202
375 0.330731
380 0.403152
385 0.441277
390 0.637596
395 0.748524
400 0.946176
405 1.44158
410 2.7228
415 81.9522
420 1471.59
425 2384.4
430 626.051
435 76.1653
440 11.9819
445 4.40676
450 3.71624
455 3.98669
460 4.45394
465 4.95066
470 5.62338
475 6.4308
480 8.36609
485 10.2334
490 9.48651
495 8.77179
500 8.43911
505 7.7419
510 7.76943
515 7.09734
520 6.68934
525 6.31468
530 5.76854
535 5.39121
540 4.89309
545 4.43248
550 3.83679
555 3.42962
560 3.11781
565 2.72379
570 2.27195
575 1.8202
580 1.54759
585 1.09444
590 0.794869
595 0.697472
600 0.411326
Ex : 433
200 0.0866249
205 0.127321
210 0.17697
215 0.0761723
220 0.0707815
225 0.10555
230 0.114989
235 0.180672
240 0.0952886
245 0.138311
250 0.102026
255 0.133667
260 0.13475
265 0.107069
270 0.11396
275 0.136857
280 0.0838263
285 0.0724627
290 0.0943997
295 0.127672
300 0.138613
305 0.173101
310 0.160002
315 0.124045
320 0.181138
325 0.111862
330 0.148529
335 0.157166
340 0.125905
345 0.158835
350 0.18167
355 0.232809
360 0.189882
365 0.255559
370 0.269622
375 0.283008
380 0.287259
385 0.302988
390 0.535566
395 0.537967
400 0.780752
405 1.01654
410 1.66564
415 2.89549
420 96.8221
425 1698.25
430 2590.88
435 648.223
440 78.8961
445 12.6513
450 4.92524
455 4.20617
460 4.4885
465 4.97461
470 5.21775
475 5.76178
480 6.30821
485 7.4717
490 9.46707
495 9.14621
500 8.28883
505 7.85978
510 7.3789
515 6.44653
520 6.23111
525 5.72526
530 5.40746
535 4.88359
540 4.59358
545 4.28667
550 3.70924
555 3.30633
560 2.74041
565 2.5499
570 2.15423
575 1.79439
580 1.36738
585 1.03123
590 0.855186
595 0.653875
600 0.554808
Ex : 438
200 0.081049
205 0.050115
210 0.0996749
215 0.149069
220 0.100056
225 0.0905982
230 0.100094
235 0.0771636
240 0.0998079
245 0.12109
250 0.0729069
255 0.0909297
260 0.0886588
265 0.106188
270 0.101373
275 0.129092
280 0.107233
285 0.0612253
290 0.109817
295 0.111082
300 0.126735
305 0.0990876
310 0.14879
315 0.160566
320 0.119692
325 0.0898084
330 0.182006
335 0.140484
340 0.179642
345 0.151383
350 0.203305
355 0.199966
360 0.170444
365 0.199593
370 0.219206
375 0.204492
380 0.310002
385 0.340408
390 0.478732
395 0.489766
400 0.679343
405 0.707357
410 1.08194
415 1.64706
420 3.0442
425 97.4512
430 1681.76
435 2666.55
440 662.762
445 80.617
450 12.9347
455 4.95791
460 4.33754
465 4.87383
470 4.79586
475 5.05553
480 5.56543
485 6.01921
490 6.62416
495 8.21402
500 8.76202
505 7.35301
510 6.85204
515 5.93801
520 5.49338
525 5.12405
530 4.80285
535 4.55623
540 4.00707
545 3.68764
550 3.22209
555 3.03623
560 2.73345
565 2.3187
570 1.89247
575 1.52795
580 1.27657
585 0.923257
590 0.805122
595 0.565483
600 0.228679
Ex : 443
200 0.0840793
205 0.113547
210 0.0489876
215 0.100104
220 0.126884
225 0.120255
230 0.0931918
235 0.106758
240 0.108715
245 0.145694
250 0.122249
255 0.107751
260 0.0981517
265 0.145466
270 0.124306
275 0.0880493
280 0.0844858
285 0.0905987
290 0.151947
295 0.131064
300 0.0976118
305 0.115803
310 0.104235
315 0.144412
320 0.111483
325 0.126236
330 0.14554
335 0.189744
340 0.1821
345 0.167651
350 0.137334
355 0.223531
360 0.160371
365 0.276755
370 0.291335
375 0.210265
380 0.25739
385 0.291721
390 0.343921
395 0.501243
400 0.472399
405 0.591302
410 0.782572
415 1.1372
420 1.63211
425 2.98279
430 102.856
435 1752.53
440 2679.05
445 658.145
450 80.3353
455 13.2646
460 5.22524
465 4.63244
470 4.67618
475 4.89997
480 4.82154
485 5.13205
490 5.25431
495 5.53977
500 6.71785
505 7.91584
510 6.78265
515 5.83351
520 5.48612
525 4.60225
530 4.1848
535 4.00399
540 3.7286
545 3.33286
550 2.90466
555 2.54527
560 2.42043
565 2.08146
570 1.58809
575 1.38291
580 1.02552
585 0.902829
590 0.602773
595 0.489653
600 0.0557206
Ex : 448
200 0.117778
205 0.0998911
210 0.10045
215 0.138948
220 0.129779
225 0.0925904
230 0.117586
235 0.105893
240 0.102159
245 0.104043
250 0.107457
255 0.114094
260 0.127547
265 0.170204
270 0.129521
275 0.127695
280 0.152994
285 0.148026
290 0.1176
295 0.147464
300 0.130482
305 0.138343
310 0.143881
315 0.100195
320 0.130113
325 0.134397
330 0.140709
335 0.171623
340 0.206708
345 0.158201
350 0.195286
355 0.193882
360 0.244593
365 0.188968
370 0.234816
375 0.250648
380 0.310818
385 0.321647
390 0.359661
395 0.348847
400 0.420538
405 0.475548
410 0.656794
415 0.801798
420 1.17501
425 1.75209
430 3.1346
435 113.249
440 1919.08
445 2833.05
450 700.142
455 85.3769
460 13.871
465 5.30467
470 4.39227
475 4.35525
480 4.57158
485 4.50181
490 4.53141
495 4.52586
500 4.92144
505 5.35253
510 6.69371
515 5.86069
520 4.86829
525 4.80997
530 4.14008
535 3.57326
540 3.25404
545 3.03854
550 2.69175
555 2.49617
560 2.12224
565 1.86236
570 1.58343
575 1.18018
580 1.02497
585 0.715684
590 0.682787
595 0.558933
600 0.371849
Ex : 453
200 0.144773
205 0.130548
210 0.118435
215 0.165232
220 0.157741
225 0.155504
230 0.12848
235 0.111864
240 0.0676154
245 0.12778
250 0.113523
255 0.140354
260 0.118535
265 0.127924
270 0.120317
275 0.115384
280 0.186471
285 0.178919
290 0.137278
295 0.112125
300 0.142492
305 0.109457
310 0.144539
315 0.131351
320 0.119624
325 0.130808
330 0.223916
335 0.148426
340 0.0961656
345 0.132964
350 0.165242
355 0.153539
360 0.239443
365 0.201367
370 0.232796
375 0.257596
380 0.258299
385 0.214655
390 0.275111
395 0.357549
400 0.473621
405 0.411999
410 0.455793
415 0.620506
420 0.956278
425 1.21944
430 1.86017
435 3.14614
440 120.727
445 2120.09
450 3050.69
455 707.792
460 86.5074
465 14.4442
470 5.17709
475 4.02902
480 4.24218
485 4.31517
490 3.87343
495 3.81941
500 3.79731
505 3.7676
510 4.0873
515 5.72531
520 5.61425
525 4.22022
530 4.07883
535 3.53219
540 3.02569
545 2.53425
550 2.26601
555 2.04166
560 1.79715
565 1.6167
570 1.37014
575 1.07711
580 0.946321
585 0.744159
590 0.631689
595 0.483328
600 0.277945
Ex : 458
200 0.106488
205 0.156569
210 0.0980915
215 0.091561
220 0.135757
225 0.117754
230 0.0963373
235 0.153684
240 0.121674
245 0.154103
250 0.0796068
255 0.169698
260 0.124922
265 0.13717
270 0.104721
275 0.0947688
280 0.152158
285 0.171296
290 0.157953
295 0.13566
300 0.193582
305 0.144206
310 0.173076
315 0.151708
320 0.179701
325 0.151384
330 0.167425
335 0.106021
340 0.164277
345 0.208103
350 0.188227
355 0.184431
360 0.138178
365 0.176487
370 0.162519
375 0.203406
380 0.269033
385 0.331692
390 0.264641
395 0.295415
400 0.382262
405 0.406224
410 0.459224
415 0.560917
420 0.618913
425 0.735222
430 1.27237
435 1.92572
440 3.44749
445 133.455
450 2185.69
455 3229.74
460 766.535
465 93.81
470 15.0901
475 4.89495
480 3.76354
485 3.69347
490 3.73586
495 3.33706
500 2.93681
505 3.28447
510 3.11113
515 3.11187
520 4.35464
525 4.82848
530 3.73554
535 3.17222
540 3.05439
545 2.48749
550 2.04396
555 1.76657
560 1.62359
565 1.4283
570 1.29827
575 0.95015
580 0.734014
585 0.600434
590 0.467726
595 0.463317
600 0.257904
Ex : 463
200 0.120886
205 0.0938601
210 0.061191
215 0.0894309
220 0.117263
225 0.138662
230 0.084559
235 0.114814
240 0.132707
245 0.142212
250 0.091544
255 0.0861552
260 0.0981905
265 0.0957103
270 0.138192
275 0.0736446
280 0.0880685
285 0.139369
290 0.104849
295 0.135368
300 0.169555
305 0.126008
310 0.112316
315 0.153988
320 0.126808
325 0.184107
330 0.161386
335 0.154789
340 0.143277
345 0.147709
350 0.15392
355 0.169159
360 0.205285
365 0.156201
370 0.198209
375 0.268741
380 0.204091
385 0.243952
390 0.252817
395 0.261759
400 0.383399
405 0.343988
410 0.379822
415 0.455425
420 0.433084
425 0.651954
430 0.84289
435 1.28382
440 1.8944
445 3.36868
450 124.907
455 2241.15
460 3399.57
465 805.464
470 97.5858
475 14.7668
480 4.68707
485 3.36518
490 3.23254
495 3.23231
500 2.79792
505 2.46567
510 2.41122
515 2.46671
520 2.48047
525 3.24048
530 4.4086
535 3.6904
540 2.57906
545 2.3606
550 2.19524
555 1.75896
560 1.60555
565 1.40158
570 1.14158
575 0.809328
580 0.727691
585 0.627638
590 0.51776
595 0.448286
600 0.320965
Ex : 468
200 0.0822642
205 0.103357
210 0.0729132
215 0.0683739
220 0.107077
225 0.118251
230 0.136398
235 0.109143
240 0.103193
245 0.115862
250 0.0842386
255 0.116889
260 0.0883878
265 0.121664
270 0.0994882
275 0.116718
280 0.0993095
285 0.103861
290 0.140731
295 0.103775
300 0.174277
305 0.173821
310 0.112261
315 0.120418
320 0.147712
325 0.168441
330 0.13235
335 0.172705
340 0.178814
345 0.115864
350 0.189281
355 0.181404
360 0.168198
365 0.223322
370 0.215074
375 0.24565
380 0.242709
385 0.292479
390 0.313844
395 0.304
400 0.282479
405 0.324031
410 0.361976
415 0.463055
420 0.479071
425 0.533003
430 0.610027
435 0.836703
440 1.28938
445 2.07269
450 3.36428
455 137.351
460 2189.43
465 3470.31
470 830.615
475 99.6035
480 14.6948
485 4.38354
490 2.92524
495 2.87903
500 2.68404
505 2.48177
510 2.3328
515 2.16214
520 2.23606
525 2.28402
530 2.49743
535 3.4761
540 3.52558
545 2.50012
550 2.09092
555 1.90669
560 1.55746
565 1.24924
570 1.01513
575 0.885773
580 0.756728
585 0.555919
590 0.460021
595 0.465717
600 0.435895
Ex : 473
200 0.166027
205 0.181098
210 0.160102
215 0.128458
220 0.127228
225 0.127688
230 0.119957
235 0.143614
240 0.144339
245 0.0907881
250 0.140701
255 0.119187
260 0.0802198
265 0.147571
270 0.140667
275 0.089689
280 0.164707
285 0.111691
290 0.116193
295 0.119973
300 0.15603
305 0.182503
310 0.138453
315 0.150988
320 0.173614
325 0.146673
330 0.172999
335 0.230202
340 0.197075
345 0.102834
350 0.242025
355 0.161942
360 0.275329
365 0.177607
370 0.236845
375 0.221615
380 0.296873
385 0.270104
390 0.261074
395 0.223057
400 0.213776
405 0.304821
410 0.33056
415 0.405067
420 0.363043
425 0.423285
430 0.461825
435 0.756909
440 0.889962
445 1.30756
450 1.98117
455 3.58577
460 156.731
465 2324.97
470 3294.49
475 763.309
480 91.7788
485 13.765
490 4.01575
495 2.56813
500 2.48825
505 2.45404
510 2.08373
515 1.9565
520 1.92974
525 1.87236
530 1.83154
535 1.9384
540 2.83446
545 3.32694
550 2.45452
555 1.72971
560 1.72519
565 1.44696
570 1.0959
575 0.902311
580 0.839269
585 0.589651
590 0.483522
595 0.362849
600 0.249356
Ex : 478
200 0.133116
205 0.186296
210 0.122348
215 0.109254
220 0.14016
225 0.209945
230 0.100045
235 0.199086
240 0.114883
245 0.148354
250 0.110293
255 0.118028
260 0.122059
265 0.142808
270 0.141692
275 0.137353
280 0.179976
285 0.135342
290 0.0762976
295 0.100297
300 0.114308
305 0.122723
310 0.127383
315 0.127976
320 0.157151
325 0.198513
330 0.170716
335 0.147186
340 0.103504
345 0.138009
350 0.144736
355 0.280793
360 0.203551
365 0.168394
370 0.221679
375 0.219128
380 0.171814
385 0.288913
390 0.23102
395 0.197923
400 0.277668
405 0.353711
410 0.32329
415 0.364493
420 0.355643
425 0.38745
430 0.453357
435 0.635175
440 0.652912
445 1.08661
450 1.37599
455 2.24168
460 4.17538
465 171.757
470 2468.89
475 3288.85
480 783.65
485 94.413
490 14.018
495 4.20331
500 2.56411
505 2.42965
510 2.20863
515 1.97676
520 1.77647
525 1.64717
530 1.74586
535 1.58553
540 1.74482
545 2.08865
550 2.8888
555 2.52476
560 1.7663
565 1.41873
570 1.15102
575 0.821996
580 0.640224
585 0.561126
590 0.447798
595 0.426194
600 0.315915
Ex : 483
200 0.0961777
205 0.096851
210 0.132215
215 0.115506
220 0.185028
225 0.170258
230 0.116247
235 0.112226
240 0.118409
245 0.116515
250 0.11175
255 0.0951044
260 0.133055
265 0.162203
270 0.0982535
275 0.174018
280 0.156807
285 0.132233
290 0.185743
295 0.125553
300 0.156841
305 0.106734
310 0.145944
315 0.140547
320 0.18157
325 0.132908
330 0.150221
335 0.125909
340 0.126095
345 0.179769
350 0.154465
355 0.214102
360 0.260204
365 0.224422
370 0.207022
375 0.185929
380 0.212788
385 0.240614
390 0.251866
395 0.294648
400 0.326259
405 0.272523
410 0.343378
415 0.409387
420 0.409477
425 0.314593
430 0.39729
435 0.509875
440 0.666217
445 0.851685
450 0.934819
455 1.41278
460 2.5148
465 4.57029
470 127.074
475 2364.77
480 3632.85
485 862.622
490 103.518
495 14.9844
500 3.95767
505 2.20002
510 2.10905
515 1.97117
520 1.79343
525 1.691
530 1.6266
535 1.50208
540 1.5599
545 1.51361
550 1.81002
555 2.57107
560 2.56092
565 1.79543
570 1.39277
575 1.1654
580 0.862723
585 0.601385
590 0.507914
595 0.37845
600 0.481568
Ex : 488
200 0.156046
205 0.172438
210 0.085582
215 0.136048
220 0.16829
225 0.130907
230 0.133785
235 0.127966
240 0.100639
245 0.140729
250 0.172346
255 0.0822855
260 0.148357
265 0.131445
270 0.130137
275 0.170569
280 0.104744
285 0.128942
290 0.111237
295 0.141195
300 0.0701551
305 0.121978
310 0.180302
315 0.184071
320 0.164176
325 0.152634
330 0.162756
335 0.165188
340 0.23061
345 0.159145
350 0.153985
355 0.193454
360 0.174203
365 0.202496
370 0.153951
375 0.191299
380 0.284535
385 0.246228
390 0.296304
395 0.282833
400 0.290477
405 0.332805
410 0.295591
415 0.312547
420 0.326561
425 0.305162
430 0.368167
435 0.512339
440 0.503361
445 0.658697
450 0.858662
455 1.12628
460 1.7339
465 2.59945
470 4.2421
475 148.364
480 2405.32
485 3415.78
490 809.725
495 97.0103
500 13.8668
505 3.93995
510 2.24403
515 2.14434
520 1.94946
525 2.0795
530 1.81324
535 1.44181
540 1.49223
545 1.3082
550 1.36844
555 1.3287
560 1.759
565 2.08484
570 1.7124
575 1.01268
580 0.904216
585 0.664683
590 0.589557
595 0.44006
600 0.162991
Ex : 493
200 0.15076
205 0.129402
210 0.126396
215 0.120824
220 0.176523
225 0.140835
230 0.138522
235 0.151761
240 0.216022
245 0.139899
250 0.150364
255 0.139679
260 0.126128
265 0.0975251
270 0.154962
275 0.156828
280 0.157586
285 0.209966
290 0.15023
295 0.126033
300 0.123916
305 0.154812
310 0.129448
315 0.116562
320 0.123899
325 0.176041
330 0.122537
335 0.157818
340 0.188764
345 0.290445
350 0.242933
355 0.158952
360 0.203387
365 0.136385
370 0.224896
375 0.254493
380 0.25265
385 0.201959
390 0.187283
395 0.297837
400 0.216013
405 0.231352
410 0.328265
415 0.328614
420 0.298323
425 0.346076
430 0.364305
435 0.368933
440 0.463816
445 0.552208
450 0.641028
455 0.758885
460 1.14774
465 1.81314
470 2.59549
475 4.1984
480 150.29
485 2490.62
490 3512.9
495 779.319
500 93.0772
505 13.3391
510 3.76847
515 2.20165
520 1.95238
525 1.94424
530 1.83288
535 1.71527
540 1.50225
545 1.28994
550 1.27788
555 1.14362
560 1.12528
565 1.33315
570 1.99599
575 1.69759
580 1.00767
585 0.759768
590 0.615811
595 0.36275
600 0.407755
Ex : 498
200 0.119038
205 0.176009
210 0.205584
215 0.17108
220 0.164493
225 0.147014
230 0.144773
235 0.109192
240 0.140894
245 0.127642
250 0.11953
255 0.18852
260 0.142033
265 0.145057
270 0.114619
275 0.124518
280 0.166275
285 0.158984
290 0.156171
295 0.144765
300 0.118087
305 0.131533
310 0.181702
315 0.157112
320 0.0818436
325 0.149736
330 0.12768
335 0.128913
340 0.227784
345 0.166016
350 0.131794
355 0.199287
360 0.21405
365 0.181166
370 0.147305
375 0.25421
380 0.219691
385 0.264693
390 0.247023
395 0.282176
400 0.320677
405 0.384739
410 0.320205
415 0.219545
420 0.269435
425 0.2305
430 0.313264
435 0.396767
440 0.385718
445 0.482457
450 0.63997
455 0.612543
460 0.889227
465 1.29855
470 1.85342
475 2.62214
480 4.37894
485 176.92
490 2573.68
495 3399.53
500 770.859
505 92.1252
510 13.4407
515 3.68864
520 2.2274
525 1.95764
530 1.96568
535 1.67354
540 1.58624
545 1.40231
550 1.20429
555 1.16474
560 1.00833
565 0.863695
570 1.04837
575 1.47836
580 1.34232
585 0.936024
590 0.601013
595 0.48542
600 0.664504
Ex : 503
200 0.154267
205 0.10533
210 0.117399
215 0.15038
220 0.114982
225 0.186057
230 0.153429
235 0.155661
240 0.13503
245 0.179789
250 0.163244
255 0.179653
260 0.124355
265 0.107931
270 0.142526
275 0.120367
280 0.177242
285 0.101801
290 0.140116
295 0.114901
300 0.167234
305 0.138623
310 0.18761
315 0.152184
320 0.162285
325 0.141963
330 0.145177
335 0.185896
340 0.163762
345 0.228937
350 0.140577
355 0.196304
360 0.167656
365 0.197706
370 0.235296
375 0.25565
380 0.268457
385 0.258436
390 0.183218
395 0.185746
400 0.296358
405 0.280576
410 0.316119
415 0.293679
420 0.288067
425 0.352668
430 0.326962
435 0.354954
440 0.378947
445 0.447831
450 0.479688
455 0.597452
460 0.822294
465 0.944345
470 1.39058
475 1.86832
480 2.59168
485 4.42994
490 155.185
495 2614.18
500 3599.61
505 817.897
510 98.1834
515 14.3837
520 3.995
525 2.34856
530 1.89192
535 1.79229
540 1.83321
545 1.42521
550 1.33292
555 0.998898
560 0.93016
565 0.945944
570 0.903433
575 0.792475
580 0.994641
585 1.13324
590 0.770663
595 0.503074
600 0.107777
Ex : 508
200 0.0650926
205 0.215783
210 0.151253
215 0.0897001
220 0.167008
225 0.0910429
230 0.134623
235 0.100429
240 0.0978376
245 0.0950189
250 0.101975
255 0.0938275
260 0.104652
265 0.173239
270 0.156418
275 0.123303
280 0.121771
285 0.154407
290 0.134235
295 0.151007
300 0.177049
305 0.200226
310 0.137165
315 0.150963
320 0.194809
325 0.257329
330 0.225501
335 0.207828
340 0.201567
345 0.16776
350 0.2369
355 0.194923
360 0.162995
365 0.253934
370 0.181393
375 0.270918
380 0.188293
385 0.210373
390 0.270339
395 0.262561
400 0.245664
405 0.305046
410 0.286829
415 0.31709
420 0.318326
425 0.277182
430 0.259776
435 0.382953
440 0.36979
445 0.420416
450 0.568098
455 0.552511
460 0.68563
465 0.809901
470 0.914225
475 1.15578
480 1.68898
485 2.36034
490 4.11646
495 166.496
500 2514.89
505 3544.33
510 839.054
515 100.236
520 14.2561
525 3.7969
530 2.21044
535 1.73537
540 1.58554
545 1.53759
550 1.46
555 1.09256
560 1.02838
565 1.04265
570 0.850044
575 0.693178
580 0.685384
585 0.693392
590 0.931563
595 0.877339
600 0.852504
Ex : 513
200 0.108042
205 0.132381
210 0.180874
215 0.171594
220 0.0939834
225 0.150043
230 0.128951
235 0.171087
240 0.156176
245 0.138419
250 0.118223
255 0.211661
260 0.177182
265 0.111756
270 0.121167
275 0.224467
280 0.150835
285 0.15022
290 0.208922
295 0.154526
300 0.141181
305 0.18331
310 0.132533
315 0.0840992
320 0.113075
325 0.175569
330 0.219631
335 0.127624
340 0.139273
345 0.23683
350 0.295137
355 0.2278
360 0.198979
365 0.18604
370 0.224484
375 0.183104
380 0.203609
385 0.221972
390 0.172711
395 0.233021
400 0.235609
405 0.263066
410 0.224325
415 0.292683
420 0.314571
425 0.314273
430 0.282588
435 0.255118
440 0.336437
445 0.344099
450 0.46079
455 0.357986
460 0.62198
465 0.780437
470 0.901943
475 0.82307
480 1.19855
485 1.73946
490 2.45672
495 4.02306
500 148.191
505 2451.94
510 3507.07
515 847.495
520 101.012
525 14.3099
530 3.79527
535 2.25314
540 1.70667
545 1.35385
550 1.35007
555 1.195
560 1.03868
565 0.916109
570 0.896067
575 0.611588
580 0.599527
585 0.611538
590 0.59274
595 0.658652
600 0.359362
Ex : 518
200 0.100728
205 0.127931
210 0.115226
215 0.11935
220 0.12008
225 0.181922
230 0.157931
235 0.147902
240 0.163885
245 0.137833
250 0.113405
255 0.192194
260 0.131662
265 0.125248
270 0.239712
275 0.127676
280 0.144093
285 0.147996
290 0.124112
295 0.209054
300 0.126005
305 0.200855
310 0.122532
315 0.168538
320 0.160266
325 0.201326
330 0.163309
335 0.153525
340 0.155231
345 0.232955
350 0.227835
355 0.227672
360 0.185595
365 0.223719
370 0.243176
375 0.203934
380 0.199956
385 0.205325
390 0.219108
395 0.27964
400 0.330347
405 0.204215
410 0.273919
415 0.228286
420 0.250039
425 0.339798
430 0.228793
435 0.224809
440 0.286917
445 0.409248
450 0.380925
455 0.401
460 0.477011
465 0.646613
470 0.671126
475 0.783883
480 0.818687
485 1.09521
490 1.47321
495 2.25908
500 3.52625
505 141.693
510 2289.15
515 3507.49
520 869.824
525 103.675
530 14.6157
535 3.70342
540 2.02202
545 1.38487
550 1.34538
555 1.26563
560 1.07686
565 0.961788
570 0.859948
575 0.634441
580 0.659626
585 0.542959
590 0.479554
595 0.452603
600 0.937708
Ex : 523
200 0.134467
205 0.26516
210 0.138157
215 0.152351
220 0.0947306
225 0.121226
230 0.231866
235 0.201805
240 0.162191
245 0.157153
250 0.187651
255 0.139157
260 0.143023
265 0.214731
270 0.171264
275 0.132216
280 0.13522
285 0.171243
290 0.161043
295 0.147428
300 0.110221
305 0.135866
310 0.122745
315 0.11897
320 0.118619
325 0.182955
330 0.248899
335 0.176569
340 0.146678
345 0.140299
350 0.218999
355 0.252525
360 0.279066
365 0.202753
370 0.213521
375 0.263118
380 0.264085
385 0.209353
390 0.272393
395 0.218085
400 0.241806
405 0.226158
410 0.332855
415 0.292684
420 0.327555
425 0.281994
430 0.399831
435 0.325181
440 0.244429
445 0.286173
450 0.235186
455 0.352595
460 0.443383
465 0.505726
470 0.513146
475 0.683379
480 0.641896
485 0.761648
490 1.2304
495 1.60301
500 2.47091
505 3.79013
510 134.107
515 2250.17
520 3474.54
525 884.484
530 105.337
535 14.6019
540 3.63853
545 1.81206
550 1.30107
555 1.15263
560 1.01485
565 1.0894
570 0.897872
575 0.867685
580 0.595964
585 0.589871
590 0.420725
595 0.395657
600 0.0450243
Ex : 528
200 0.217047
205 0.160596
210 0.185909
215 0.152835
220 0.128073
225 0.153278
230 0.219256
235 0.123696
240 0.109294
245 0.15201
250 0.103736
255 0.0979242
260 0.171739
265 0.125284
270 0.110605
275 0.164526
280 0.150883
285 0.177278
290 0.154008
295 0.119563
300 0.121182
305 0.165204
310 0.177876
315 0.180751
320 0.113317
325 0.140831
330 0.1135
335 0.21369
340 0.210531
345 0.152484
350 0.203087
355 0.260357
360 0.191012
365 0.208993
370 0.144638
375 0.198514
380 0.193532
385 0.266403
390 0.225996
395 0.162174
400 0.280945
405 0.230192
410 0.195762
415 0.270145
420 0.395649
425 0.305332
430 0.240301
435 0.319719
440 0.335481
445 0.323215
450 0.400844
455 0.416548
460 0.401883
465 0.357743
470 0.403806
475 0.575004
480 0.683258
485 0.623943
490 0.798016
495 1.06901
500 1.5699
505 2.33876
510 3.79027
515 124.851
520 2203.91
525 3267.56
530 807.522
535 96.6151
540 13.3427
545 3.3566
550 1.68241
555 1.15747
560 1.03771
565 0.968453
570 0.806649
575 0.685459
580 0.678544
585 0.560797
590 0.511939
595 0.511837
600 1.71428
Ex : 533
200 0.121425
205 0.156881
210 0.133478
215 0.130127
220 0.179194
225 0.136683
230 0.0859074
235 0.116039
240 0.144387
245 0.110888
250 0.156221
255 0.159239
260 0.164553
265 0.123662
270 0.182666
275 0.118417
280 0.157694
285 0.167005
290 0.154268
295 0.0902589
300 0.204842
305 0.162924
310 0.158698
315 0.125682
320 0.127995
325 0.242947
330 0.162391
335 0.25434
340 0.200861
345 0.162074
350 0.201992
355 0.128665
360 0.172077
365 0.241665
370 0.202697
375 0.196948
380 0.178249
385 0.295451
390 0.295918
395 0.199446
400 0.286603
405 0.248041
410 0.259303
415 0.178946
420 0.205125
425 0.216477
430 0.191887
435 0.383973
440 0.306955
445 0.333768
450 0.322945
455 0.37186
460 0.402717
465 0.41694
470 0.506611
475 0.565025
480 0.575487
485 0.52149
490 0.642707
495 0.770232
500 1.15859
505 1.38313
510 1.92197
515 3.41386
520 121.6
525 2002.68
530 3161.95
535 835.962
540 99.924
545 13.7563
550 3.25336
555 1.69102
560 1.15918
565 0.926661
570 0.885599
575 0.712146
580 0.581913
585 0.619734
590 0.496551
595 0.35545
600 0.572171
Ex : 538
200 0.174244
205 0.171867
210 0.124803
215 0.158487
220 0.124191
225 0.140898
230 0.160029
235 0.214941
240 0.167466
245 0.20928
250 0.128712
255 0.189206
260 0.142932
265 0.168733
270 0.17002
275 0.216282
280 0.1229
285 0.164763
290 0.172406
295 0.124455
300 0.118537
305 0.183613
310 0.100426
315 0.152769
320 0.136199
325 0.200602
330 0.130387
335 0.145895
340 0.0980896
345 0.156125
350 0.164095
355 0.182006
360 0.178244
365 0.139593
370 0.175662
375 0.13772
380 0.193931
385 0.178464
390 0.262294
395 0.176701
400 0.305371
405 0.217011
410 0.255914
415 0.305226
420 0.266804
425 0.206498
430 0.271961
435 0.316668
440 0.309816
445 0.35579
450 0.33973
455 0.322797
460 0.410875
465 0.416209
470 0.426273
475 0.479466
480 0.531739
485 0.533637
490 0.582097
495 0.692919
500 0.815339
505 1.02397
510 1.48342
515 1.91159
520 3.51001
525 106.78
530 1957.2
535 3083.86
540 821.988
545 98.0814
550 13.372
555 3.07049
560 1.54296
565 1.02403
570 0.783729
575 0.702367
580 0.776361
585 0.526327
590 0.495113
595 0.41311
600 0.358379
Ex : 543
200 0.106394
205 0.19275
210 0.181986
215 0.223815
220 0.0974356
225 0.0991636
230 0.177939
235 0.165703
240 0.191009
245 0.213354
250 0.207107
255 0.184418
260 0.253121
265 0.248159
270 0.161583
275 0.125156
280 0.128131
285 0.161986
290 0.177423
295 0.119696
300 0.203048
305 0.0935016
310 0.113594
315 0.210281
320 0.214787
325 0.114207
330 0.111954
335 0.17067
340 0.18945
345 0.177626
350 0.207754
355 0.220655
360 0.218989
365 0.151284
370 0.200793
375 0.211765
380 0.18291
385 0.23976
390 0.251204
395 0.344185
400 0.325516
405 0.19316
410 0.212033
415 0.224805
420 0.214317
425 0.262431
430 0.257543
435 0.338432
440 0.333479
445 0.272751
450 0.296158
455 0.44967
460 0.377177
465 0.372036
470 0.464372
475 0.45632
480 0.465198
485 0.429642
490 0.490934
495 0.47681
500 0.700585
505 0.79424
510 1.10942
515 1.31025
520 1.95245
525 3.15713
530 87.4247
535 1794.62
540 3040.01
545 852.501
550 102.152
555 13.6978
560 2.80241
565 1.41997
570 0.966798
575 0.665163
580 0.629541
585 0.59486
590 0.541695
595 0.541003
600 0.335749
Ex : 548
200 0.221602
205 0.151383
210 0.120353
215 0.122349
220 0.114622
225 0.110317
230 0.126207
235 0.124575
240 0.161917
245 0.0994624
250 0.164665
255 0.105399
260 0.222012
265 0.116216
270 0.163028
275 0.091339
280 0.126757
285 0.217306
290 0.155704
295 0.189474
300 0.117525
305 0.109338
310 0.155378
315 0.130922
320 0.176514
325 0.092109
330 0.197385
335 0.2379
340 0.276527
345 0.160509
350 0.225628
355 0.230015
360 0.211939
365 0.190601
370 0.236376
375 0.223319
380 0.154255
385 0.244406
390 0.258732
395 0.221163
400 0.249614
405 0.306218
410 0.180636
415 0.229938
420 0.188266
425 0.272828
430 0.195407
435 0.316381
440 0.267049
445 0.362898
450 0.263877
455 0.283593
460 0.366757
465 0.331629
470 0.356728
475 0.279127
480 0.364318
485 0.490494
490 0.475178
495 0.431513
500 0.604158
505 0.65295
510 0.735973
515 1.04405
520 1.20582
525 1.93727
530 3.36237
535 103.651
540 1825.76
545 2878.3
550 804.643
555 95.908
560 12.9013
565 2.67947
570 1.18916
575 0.856487
580 0.592399
585 0.566412
590 0.433868
595 0.307343
600 0.683169
Ex : 553
200 0.160241
205 0.158969
210 0.223854
215 0.200262
220 0.142374
225 0.137156
230 0.180819
235 0.188665
240 0.141861
245 0.150439
250 0.13478
255 0.113707
260 0.185775
265 0.210319
270 0.141552
275 0.118811
280 0.113141
285 0.177158
290 0.221706
295 0.246843
300 0.175957
305 0.130595
310 0.187532
315 0.1341
320 0.139394
325 0.147481
330 0.183048
335 0.20854
340 0.186393
345 0.270452
350 0.169688
355 0.170118
360 0.164185
365 0.301095
370 0.183006
375 0.16665
380 0.209206
385 0.212542
390 0.205217
395 0.250873
400 0.236139
405 0.24102
410 0.291427
415 0.277234
420 0.223018
425 0.300088
430 0.286023
435 0.215263
440 0.229615
445 0.234074
450 0.247031
455 0.235737
460 0.236095
465 0.334427
470 0.288601
475 0.275058
480 0.30179
485 0.321648
490 0.425039
495 0.369885
500 0.465705
505 0.584367
510 0.570718
515 0.673371
520 0.829468
525 1.1492
530 1.75252
535 2.8742
540 79.8826
545 1691.86
550 2923.93
555 835.34
560 99.8268
565 13.3445
570 2.92663
575 1.17265
580 0.776447
585 0.673404
590 0.540189
595 0.402859
600 0.176168
Ex : 558
200 0.185281
205 0.132749
210 0.153038
215 0.146916
220 0.202473
225 0.263483
230 0.156013
235 0.247223
240 0.107502
245 0.130891
250 0.222882
255 0.188845
260 0.218281
265 0.217896
270 0.13824
275 0.114799
280 0.116394
285 0.228435
290 0.301631
295 0.205244
300 0.134773
305 0.144234
310 0.25524
315 0.142067
320 0.162859
325 0.197807
330 0.0973149
335 0.123591
340 0.14768
345 0.207496
350 0.216052
355 0.2085
360 0.181881
365 0.211657
370 0.154561
375 0.255385
380 0.181802
385 0.333853
390 0.216389
395 0.193364
400 0.192106
405 0.267986
410 0.294612
415 0.282323
420 0.217155
425 0.320155
430 0.395847
435 0.277705
440 0.21348
445 0.293783
450 0.317263
455 0.26783
460 0.365281
465 0.330735
470 0.410073
475 0.428505
480 0.431183
485 0.379439
490 0.506113
495 0.505838
500 0.48975
505 0.486506
510 0.511625
515 0.555379
520 0.807242
525 0.960016
530 1.13077
535 1.60175
540 2.67514
545 83.7347
550 1677.02
555 2907.01
560 831.18
565 98.9332
570 12.6922
575 2.71303
580 1.22015
585 0.750886
590 0.444762
595 0.427925
600 0.145373
Ex : 563
200 0.137162
205 0.259367
210 0.245968
215 0.15354
220 0.167791
225 0.167904
230 0.210433
235 0.110957
240 0.124003
245 0.127996
250 0.192978
255 0.0797561
260 0.326975
265 0.156865
270 0.298095
275 0.147459
280 0.186025
285 0.200675
290 0.149607
295 0.142527
300 0.130036
305 0.173751
310 0.200268
315 0.189573
320 0.242857
325 0.239624
330 0.233353
335 0.186741
340 0.257819
345 0.165309
350 0.220566
355 0.163486
360 0.201512
365 0.233445
370 0.13744
375 0.184232
380 0.215462
385 0.179297
390 0.181894
395 0.187011
400 0.223507
405 0.204565
410 0.293971
415 0.341194
420 0.232405
425 0.281172
430 0.383705
435 0.240554
440 0.26412
445 0.268736
450 0.270178
455 0.429117
460 0.335659
465 0.360271
470 0.371551
475 0.28465
480 0.30592
485 0.364951
490 0.485898
495 0.290092
500 0.368638
505 0.446961
510 0.397615
515 0.534343
520 0.558322
525 0.771993
530 0.960799
535 1.18743
540 1.80813
545 2.72666
550 81.2765
555 1609.56
560 2761.4
565 801.831
570 95.6512
575 12.3825
580 2.26596
585 0.957233
590 0.764914
595 0.452313
600 0.0514715
Ex : 568
200 0.118261
205 0.121328
210 0.202594
215 0.177123
220 0.159491
225 0.163887
230 0.15327
235 0.093355
240 0.143347
245 0.143187
250 0.1147
255 0.144653
260 0.197939
265 0.213416
270 0.182532
275 0.166323
280 0.20345
285 0.310476
290 0.22534
295 0.152517
300 0.198203
305 0.115984
310 0.262087
315 0.23096
320 0.209189
325 0.255939
330 0.28722
335 0.253926
340 0.148327
345 0.141193
350 0.241255
355 0.15241
360 0.161781
365 0.163433
370 0.230648
375 0.308892
380 0.230411
385 0.216931
390 0.121051
395 0.240894
400 0.26202
405 0.246963
410 0.152452
415 0.236767
420 0.238193
425 0.224024
430 0.315338
435 0.243829
440 0.276508
445 0.335385
450 0.265815
455 0.31301
460 0.250715
465 0.314416
470 0.332094
475 0.352612
480 0.378522
485 0.391378
490 0.337545
495 0.311872
500 0.308687
505 0.539174
510 0.363215
515 0.394216
520 0.454396
525 0.546108
530 0.825483
535 0.747325
540 1.27082
545 1.49945
550 2.56164
555 63.4603
560 1397.54
565 2510.03
570 774.734
575 92.9129
580 11.8118
585 2.19979
590 0.863917
595 0.574217
600 0.69998
Ex : 573
200 0.105864
205 0.168486
210 0.215981
215 0.161529
220 0.170927
225 0.158703
230 0.180381
235 0.279682
240 0.135912
245 0.142349
250 0.182697
255 0.170763
260 0.159344
265 0.142841
270 0.124025
275 0.156868
280 0.140637
285 0.122377
290 0.191872
295 0.196272
300 0.180065
305 0.161033
310 0.160157
315 0.141282
320 0.157904
325 0.199841
330 0.154978
335 0.340492
340 0.193695
345 0.226831
350 0.214352
355 0.268765
360 0.244647
365 0.207497
370 0.285104
375 0.340676
380 0.241232
385 0.160559
390 0.185474
395 0.310726
400 0.371731
405 0.18249
410 0.227064
415 0.256491
420 0.183041
425 0.185944
430 0.20105
435 0.21285
440 0.222203
445 0.270843
450 0.254594
455 0.213521
460 0.365015
465 0.302536
470 0.376949
475 0.340546
480 0.39199
485 0.33798
490 0.376122
495 0.279741
500 0.445838
505 0.266823
510 0.381604
515 0.29773
520 0.361427
525 0.465186
530 0.621541
535 0.650268
540 0.827377
545 1.0095
550 1.51462
555 2.44296
560 55.4485
565 1396.69
570 2522.13
575 733.171
580 87.6338
585 11.101
590 1.81365
595 0.761948
600 0.562088
Ex : 578
200 0.128143
205 0.132298
210 0.140287
215 0.15482
220 0.115054
225 0.134044
230 0.183887
235 0.19869
240 0.207181
245 0.110647
250 0.229875
255 0.221373
260 0.152185
265 0.116965
270 0.18918
275 0.128284
280 0.153154
285 0.156524
290 0.193571
295 0.209299
300 0.252529
305 0.156767
310 0.180881
315 0.150564
320 0.185969
325 0.167317
330 0.165396
335 0.225984
340 0.154872
345 0.205668
350 0.199312
355 0.176544
360 0.215308
365 0.162848
370 0.152699
375 0.143811
380 0.167134
385 0.227947
390 0.307274
395 0.218344
400 0.258815
405 0.280201
410 0.324439
415 0.278585
420 0.190171
425 0.169776
430 0.181101
435 0.262142
440 0.286447
445 0.26189
450 0.289097
455 0.242549
460 0.238803
465 0.367709
470 0.291438
475 0.231003
480 0.265313
485 0.274276
490 0.381595
495 0.299082
500 0.256602
505 0.323296
510 0.27831
515 0.289633
520 0.334315
525 0.382775
530 0.325898
535 0.354872
540 0.530039
545 0.75226
550 0.964999
555 1.30013
560 2.07798
565 45.2753
570 1064.51
575 2018.72
580 613.216
585 73.0648
590 8.93156
595 1.61488
600 0.884347
Ex : 583
200 0.170248
205 0.171006
210 0.16124
215 0.246063
220 0.215441
225 0.17411
230 0.213623
235 0.113618
240 0.183526
245 0.19616
250 0.159132
255 0.127935
260 0.0949871
265 0.221383
270 0.208164
275 0.135005
280 0.175855
285 0.192882
290 0.209266
295 0.219952
300 0.168943
305 0.101164
310 0.152148
315 0.167152
320 0.227302
325 0.222552
330 0.15794
335 0.177292
340 0.141673
345 0.188112
350 0.190072
355 0.276908
360 0.266675
365 0.156372
370 0.166637
375 0.122418
380 0.161631
385 0.169338
390 0.222156
395 0.226344
400 0.220874
405 0.229655
410 0.407258
415 0.248794
420 0.206685
425 0.14873
430 0.227254
435 0.240351
440 0.226665
445 0.262793
450 0.243118
455 0.329229
460 0.296034
465 0.342335
470 0.299649
475 0.233469
480 0.316034
485 0.293282
490 0.342779
495 0.223465
500 0.272492
505 0.190448
510 0.273916
515 0.305664
520 0.253011
525 0.495631
530 0.485301
535 0.41926
540 0.374984
545 0.455344
550 0.607816
555 0.835854
560 1.15722
565 1.87472
570 34.6957
575 968.874
580 1830.43
585 533.895
590 63.6071
595 8.11446
600 1.27536
Ex : 588
200 0.28613
205 0.15208
210 0.130039
215 0.203013
220 0.167934
225 0.188627
230 0.209639
235 0.138041
240 0.140854
245 0.100805
250 0.206068
255 0.120665
260 0.183777
265 0.108748
270 0.155141
275 0.224405
280 0.0896807
285 0.16011
290 0.213965
295 0.153904
300 0.123593
305 0.267528
310 0.0980564
315 0.106214
320 0.149862
325 0.139129
330 0.174099
335 0.12771
340 0.208679
345 0.215791
350 0.194337
355 0.155916
360 0.133921
365 0.186981
370 0.231846
375 0.226364
380 0.180857
385 0.209063
390 0.178107
395 0.164382
400 0.261018
405 0.173107
410 0.237917
415 0.218116
420 0.241999
425 0.188203
430 0.223086
435 0.286152
440 0.132708
445 0.168915
450 0.255069
455 0.285198
460 0.317036
465 0.240882
470 0.211358
475 0.273248
480 0.260032
485 0.262121
490 0.300762
495 0.351569
500 0.291137
505 0.235647
510 0.284478
515 0.236714
520 0.34427
525 0.354998
530 0.291794
535 0.312115
540 0.413543
545 0.329832
550 0.596723
555 0.656961
560 0.802773
565 0.939093
570 1.21968
575 31.0871
580 777.446
585 1554.73
590 470.241
595 56.0049
600 7.55796
Ex : 593
200 0.14775
205 0.213944
210 0.157559
215 0.208314
220 0.140815
225 0.160688
230 0.177018
235 0.149076
240 0.136735
245 0.131904
250 0.176299
255 0.246896
260 0.203521
265 0.138107
270 0.137239
275 0.109088
280 0.20173
285 0.150845
290 0.169474
295 0.104918
300 0.121852
305 0.13431
310 0.158085
315 0.166119
320 0.17231
325 0.150594
330 0.113864
335 0.162763
340 0.143028
345 0.192136
350 0.245507
355 0.164847
360 0.116275
365 0.176543
370 0.280019
375 0.227529
380 0.205454
385 0.131229
390 0.166248
395 0.219075
400 0.252257
405 0.173353
410 0.263055
415 0.180264
420 0.209026
425 0.192165
430 0.409127
435 0.248457
440 0.303608
445 0.40607
450 0.205993
455 0.147998
460 0.194756
465 0.355514
470 0.280774
475 0.228779
480 0.234997
485 0.240219
490 0.229662
495 0.211649
500 0.221518
505 0.230914
510 0.359248
515 0.321743
520 0.271472
525 0.170012
530 0.354113
535 0.303162
540 0.390822
545 0.307083
550 0.423442
555 0.368601
560 0.505229
565 0.661613
570 0.885574
575 1.32466
580 27.6356
585 695.702
590 1346.98
595 407.667
600 57.3032
Ex : 598
200 0.0745589
205 0.254372
210 0.223483
215 0.20362
220 0.154854
225 0.199541
230 0.297391
235 0.20153
240 0.347031
245 0.19794
250 0.142077
255 0.140524
260 0.167047
265 0.240223
270 0.209183
275 0.139917
280 0.0991352
285 0.244112
290 0.184128
295 0.137626
300 0.253328
305 0.204733
310 0.195578
315 0.150256
320 0.172079
325 0.139822
330 0.130704
335 0.243506
340 0.140396
345 0.214734
350 0.39342
355 0.297227
360 0.160086
365 0.168055
370 0.182106
375 0.20654
380 0.246703
385 0.119552
390 0.165997
395 0.10128
400 0.169974
405 0.226705
410 0.124604
415 0.169807
420 0.221428
425 0.253108
430 0.204956
435 0.333209
440 0.222903
445 0.164501
450 0.214788
455 0.202964
460 0.31777
465 0.370466
470 0.274951
475 0.229877
480 0.17558
485 0.276137
490 0.31306
495 0.34895
500 0.284783
505 0.180699
510 0.210029
515 0.288431
520 0.231518
525 0.338629
530 0.290791
535 0.356604
540 0.328558
545 0.444941
550 0.351312
555 0.48014
560 0.498501
565 0.404795
570 0.597839
575 0.954236
580 1.25745
585 27.1827
590 656.262
595 1179.92
600 720.454
Ex : 603
200 0.171731
205 0.126133
210 0.132186
215 0.178415
220 0.184627
225 0.110821
230 0.229727
235 0.117305
240 0.0701163
245 0.201317
250 0.174469
255 0.190156
260 0.132656
265 0.109964
270 0.19161
275 0.17633
280 0.174936
285 0.181416
290 0.163286
295 0.159493
300 0.128004
305 0.117159
310 0.157933
315 0.176179
320 0.116748
325 0.183924
330 0.226905
335 0.132916
340 0.124735
345 0.133182
350 0.258818
355 0.175513
360 0.192624
365 0.261268
370 0.142864
375 0.214554
380 0.126953
385 0.136992
390 0.221663
395 0.229006
400 0.243265
405 0.276813
410 0.149556
415 0.237689
420 0.374335
425 0.261022
430 0.330054
435 0.201042
440 0.262144
445 0.152585
450 0.186819
455 0.150007
460 0.196387
465 0.235566
470 0.280583
475 0.276898
480 0.198791
485 0.244831
490 0.251819
495 0.178136
500 0.183672
505 0.234266
510 0.278236
515 0.29389
520 0.15549
525 0.342537
530 0.246532
535 0.212198
540 0.292196
545 0.208629
550 0.359893
555 0.282408
560 0.448421
565 0.372308
570 0.501789
575 0.602431
580 0.700657
585 0.904462
590 23.8312
595 528.62
600 1078.72
