File format V 1.0
ven. 6. janv. 04:53:52 2017
Operator : 
Comments : 

=============================================
SpectroFluorometer parameters
Mode : 3D measurement
Data : Fluorescence
Phospho. : Ordinary
Spectrum : Fluorescence

Scan speed : 2400 nm/mn
Response : 100 ms
PM Voltage : 700 V
Shutter : On

Lambda Ex. Start : 203
Lambda Ex. End : 603
Lambda Ex. Step : 5
Ex. Slit : 5 nm

Lambda Em. Start : 200
Lambda Em. End : 600
Lambda Em. Step : 5
Em. Slit : 5 nm

Repetition : 1
Decal lambda em : 10
=============================================
DATA
Ex : 203
200 3.13253
205 1.83905
210 5.99507
215 3.03795
220 3.32926
225 5.02575
230 3.6374
235 3.49536
240 3.03922
245 2.19882
250 5.58553
255 2.81186
260 3.09801
265 4.31056
270 1.26931
275 2.73821
280 1.3244
285 2.31896
290 3.78152
295 1.50864
300 2.61169
305 4.01493
310 3.33089
315 3.17438
320 6.18411
325 3.9126
330 3.33528
335 4.76569
340 2.86786
345 3.38678
350 5.11359
355 3.2005
360 2.87138
365 5.21517
370 4.14883
375 3.48642
380 1.71469
385 3.32453
390 4.65028
395 6.40377
400 2.59145
405 5.68597
410 4.66682
415 3.34848
420 2.55873
425 2.80009
430 2.16716
435 7.87263
440 5.65255
445 3.97492
450 3.69427
455 5.39845
460 5.2344
465 1.84515
470 3.38553
475 2.61488
480 6.11252
485 2.22832
490 2.66294
495 6.33476
500 4.90119
505 2.154
510 4.4039
515 10.3953
520 7.62806
525 4.58113
530 4.44841
535 1.73798
540 6.20297
545 3.97414
550 2.64006
555 6.45812
560 2.29577
565 2.57554
570 2.84606
575 3.1554
580 5.13687
585 4.64579
590 1.69356
595 0.941315
600 0.107118
Ex : 208
200 5.26543
205 8.05807
210 3.60311
215 5.52798
220 6.14194
225 3.76486
230 6.48231
235 6.25182
240 3.85825
245 2.56157
250 9.07534
255 6.14831
260 3.47038
265 2.73382
270 4.04783
275 2.57309
280 1.21332
285 2.11994
290 5.05454
295 3.02758
300 2.87021
305 5.63834
310 1.99019
315 3.55925
320 3.2094
325 2.65069
330 3.55465
335 8.93692
340 2.69093
345 3.33997
350 5.82473
355 2.18544
360 3.83521
365 2.13859
370 3.61964
375 5.79773
380 3.29635
385 4.157
390 3.48177
395 4.67579
400 3.46991
405 5.66418
410 5.56904
415 4.51771
420 5.112
425 3.99569
430 2.66735
435 6.18413
440 2.50251
445 2.61376
450 3.05324
455 5.04208
460 5.61114
465 5.13195
470 3.30907
475 6.25114
480 8.09826
485 9.64047
490 3.64204
495 4.37596
500 3.78147
505 5.06088
510 6.32766
515 4.55245
520 3.73421
525 2.018
530 6.51198
535 3.15594
540 5.64777
545 2.49169
550 1.272
555 3.27674
560 8.81986
565 3.09833
570 2.85582
575 6.68792
580 3.84374
585 5.53736
590 7.48833
595 2.68029
600 0.305007
Ex : 213
200 3.67879
205 4.2433
210 3.65119
215 4.40868
220 4.56245
225 3.18962
230 1.49951
235 2.92341
240 1.45123
245 3.31062
250 4.87931
255 9.9402
260 5.38939
265 2.92924
270 1.80257
275 4.75289
280 4.23627
285 2.4268
290 3.03099
295 2.44555
300 3.64475
305 2.34563
310 2.29998
315 3.32887
320 4.70778
325 2.33691
330 2.02683
335 4.30255
340 4.27662
345 6.16408
350 2.59725
355 4.11397
360 6.07697
365 9.53169
370 5.13508
375 3.48913
380 3.11439
385 4.42314
390 2.71302
395 4.72809
400 4.34223
405 3.17976
410 2.40489
415 3.96123
420 4.48667
425 7.0398
430 4.01289
435 2.21304
440 2.71677
445 1.61545
450 1.51055
455 1.26344
460 2.22713
465 5.48725
470 3.58539
475 5.56741
480 2.7694
485 3.1468
490 4.16203
495 3.29975
500 3.10479
505 3.27195
510 4.54235
515 5.53489
520 2.30713
525 2.96261
530 5.52555
535 1.98728
540 4.14295
545 1.64759
550 2.79464
555 4.65488
560 2.49547
565 3.97741
570 6.00473
575 7.63183
580 3.75003
585 4.70294
590 7.53065
595 2.54019
600 6.64019
Ex : 218
200 3
205 3.57796
210 2.34573
215 2.87507
220 2.83896
225 5.20799
230 6.00345
235 2.34123
240 3.56114
245 5.12995
250 3.07869
255 6.04336
260 2.74328
265 4.5314
270 3.50591
275 2.00179
280 2.74214
285 3.07209
290 5.80674
295 2.355
300 4.75978
305 3.91582
310 1.69737
315 6.16788
320 6.18322
325 4.73283
330 2.82092
335 5.51935
340 5.56473
345 5.20853
350 3.81163
355 4.69393
360 8.38813
365 3.74824
370 5.3655
375 2.91254
380 5.02886
385 3.86388
390 4.48688
395 2.94896
400 2.50249
405 4.82657
410 4.21813
415 4.25803
420 5.01268
425 4.88328
430 6.69969
435 3.5811
440 3.20662
445 2.88128
450 3.28707
455 6.00203
460 3.43839
465 2.02126
470 3.82489
475 3.12174
480 2.94361
485 3.1386
490 5.19479
495 3.44311
500 4.49823
505 3.24479
510 5.68086
515 2.85075
520 5.42679
525 5.08159
530 3.20364
535 2.9097
540 3.48146
545 3.98875
550 3.43848
555 2.98216
560 2.7537
565 3.17807
570 4.42208
575 4.53924
580 1.46605
585 2.84165
590 6.06259
595 3.10828
600 0.35371
Ex : 223
200 3.95706
205 4.74301
210 3.27035
215 2.43459
220 3.13083
225 1.91866
230 5.02082
235 7.66098
240 2.57689
245 5.15074
250 3.60243
255 4.21256
260 6.57327
265 4.30338
270 3.07676
275 1.31735
280 1.2156
285 3.0959
290 2.74286
295 1.90525
300 3.47677
305 2.76057
310 5.37408
315 3.386
320 2.30542
325 4.82227
330 6.99684
335 4.86945
340 3.83141
345 4.79971
350 2.93608
355 4.03902
360 2.55908
365 1.77896
370 4.74814
375 5.34059
380 5.02833
385 4.54371
390 3.63013
395 2.95966
400 3.3488
405 5.33308
410 4.93019
415 4.08463
420 3.95019
425 3.87171
430 7.49677
435 2.10901
440 3.82752
445 4.46753
450 2.70304
455 2.266
460 6.60543
465 3.03351
470 4.1156
475 1.90904
480 6.40966
485 5.03595
490 2.59424
495 1.49827
500 2.93337
505 3.38629
510 7.55332
515 2.23689
520 5.1556
525 4.47586
530 7.10839
535 2.87845
540 1.94077
545 5.10778
550 2.85928
555 4.58576
560 1.658
565 1.42936
570 6.01585
575 5.28977
580 6.37792
585 5.07525
590 3.62317
595 6.08166
600 1.79982
Ex : 228
200 2.72222
205 1.59398
210 4.04163
215 4.489
220 6.44541
225 4.2489
230 6.7675
235 3.92692
240 2.72426
245 5.99243
250 2.86296
255 2.4406
260 2.9256
265 3.08456
270 3.47632
275 2.26239
280 1.96249
285 4.28798
290 3.81777
295 1.44494
300 3.34203
305 3.90452
310 4.08646
315 3.96577
320 3.8594
325 4.0677
330 2.43456
335 5.02943
340 3.3035
345 6.07701
350 3.35015
355 4.32611
360 2.76038
365 6.43315
370 5.91636
375 5.36317
380 2.45575
385 3.59508
390 3.19149
395 6.35131
400 3.92294
405 7.89689
410 4.37528
415 3.03964
420 3.26076
425 3.96539
430 4.74128
435 2.43386
440 4.2269
445 3.9187
450 4.2123
455 3.43513
460 4.47621
465 2.55328
470 5.3493
475 3.11437
480 2.88226
485 4.23442
490 2.46373
495 2.68577
500 2.21589
505 1.6301
510 1.70137
515 3.59641
520 3.64469
525 5.70354
530 3.30267
535 3.37605
540 3.41204
545 1.81873
550 3.12797
555 3.18479
560 6.12789
565 1.53873
570 3.21278
575 2.19913
580 2.72945
585 3.04809
590 1.27864
595 3.90588
600 0.444475
Ex : 233
200 2.22449
205 2.77882
210 6.05102
215 1.56623
220 3.49921
225 1.7275
230 1.3685
235 5.07096
240 2.2415
245 1.75923
250 1.58081
255 1.44004
260 2.06035
265 4.01975
270 3.2274
275 1.17805
280 2.53399
285 4.56872
290 5.53876
295 4.98629
300 3.38758
305 1.70557
310 5.2206
315 1.96486
320 3.80694
325 2.69255
330 1.05901
335 2.27979
340 2.21968
345 3.63508
350 3.90449
355 2.43946
360 5.18789
365 2.83246
370 2.68704
375 3.63478
380 4.07218
385 4.01269
390 3.59566
395 5.86531
400 3.01248
405 1.96591
410 1.69771
415 2.535
420 2.84554
425 5.35176
430 1.42634
435 2.12201
440 2.90485
445 1.82141
450 2.78012
455 2.08877
460 6.89317
465 3.09406
470 5.73711
475 4.07361
480 2.15871
485 2.71056
490 3.147
495 3.14333
500 3.33984
505 3.12637
510 2.31185
515 5.53344
520 1.856
525 2.74254
530 6.99801
535 3.9138
540 3.54946
545 1.92587
550 1.97793
555 2.8923
560 1.99755
565 1.84283
570 1.88213
575 1.13203
580 1.62783
585 4.71326
590 3.7614
595 10.5335
600 1.19867
Ex : 238
200 3.39823
205 1.09316
210 5.27936
215 4.31255
220 1.57907
225 2.89574
230 3.39465
235 1.42712
240 3.20379
245 2.42811
250 1.62935
255 2.81633
260 1.62849
265 1.37766
270 2.63895
275 3.69471
280 1.45834
285 2.43251
290 2.71387
295 2.08956
300 4.22988
305 2.26972
310 1.62352
315 3.42867
320 2.81995
325 3.50435
330 2.45018
335 1.68099
340 2.49936
345 3.34472
350 1.86742
355 3.15349
360 2.85936
365 5.07975
370 5.08468
375 4.52203
380 4.75006
385 2.12362
390 2.98643
395 3.34123
400 5.35787
405 3.22518
410 2.61813
415 3.20566
420 5.09537
425 2.99398
430 1.89801
435 5.45526
440 5.67129
445 4.72961
450 2.7657
455 2.86094
460 3.46199
465 3.21067
470 1.98297
475 3.48958
480 1.94378
485 4.20336
490 3.94804
495 4.88437
500 5.52111
505 2.29093
510 5.27431
515 2.89057
520 4.21747
525 2.47792
530 4.20106
535 2.94647
540 3.38643
545 1.80671
550 2.1985
555 1.83269
560 2.55512
565 4.13514
570 1.71813
575 3.08837
580 2.80555
585 1.12893
590 2.74759
595 2.12088
600 0.241348
Ex : 243
200 2.41532
205 2.00099
210 2.38661
215 3.40355
220 2.48292
225 2.46128
230 1.34653
235 2.0241
240 2.46614
245 1.40853
250 0.725241
255 3.47907
260 1.72521
265 1.31178
270 2.84071
275 1.60969
280 3.1273
285 1.89801
290 3.38845
295 2.4712
300 4.88445
305 2.65575
310 3.89239
315 1.97855
320 1.34191
325 2.35939
330 3.22018
335 1.86236
340 3.12068
345 2.93216
350 2.60803
355 3.08603
360 2.18242
365 1.69254
370 1.6269
375 2.34133
380 1.31857
385 2.71929
390 1.14901
395 3.37783
400 2.14232
405 2.09846
410 1.48228
415 3.11452
420 3.61957
425 2.60317
430 3.66011
435 2.27753
440 2.78746
445 3.1091
450 1.41377
455 3.78831
460 2.68529
465 3.24818
470 3.01023
475 3.85269
480 2.17215
485 3.70777
490 3.15318
495 3.75771
500 3.54955
505 1.66993
510 2.55935
515 2.7283
520 2.75756
525 1.78841
530 2.64148
535 2.24583
540 2.25868
545 2.80175
550 2.90148
555 1.10464
560 1.92253
565 2.73962
570 4.21946
575 1.93656
580 1.73851
585 2.19179
590 2.54399
595 2.54497
600 11.8103
Ex : 248
200 1.3887
205 1.85159
210 2.78404
215 1.95804
220 2.8109
225 2.1316
230 2.48648
235 1.99608
240 1.58216
245 2.09302
250 2.19794
255 2.38602
260 2.59744
265 0.859526
270 1.67715
275 2.81028
280 2.40724
285 2.22926
290 3.43509
295 2.29549
300 4.79929
305 2.01712
310 2.37476
315 1.13811
320 1.22576
325 3.30972
330 1.88468
335 1.62393
340 2.88369
345 1.63014
350 3.09063
355 2.17896
360 2.3953
365 1.30698
370 2.0937
375 1.30833
380 1.97895
385 3.68561
390 2.97683
395 1.95591
400 1.82365
405 2.30627
410 1.7126
415 2.54592
420 3.68733
425 2.99176
430 3.35605
435 1.6286
440 0.763949
445 2.27351
450 1.60289
455 2.95634
460 1.7311
465 2.77476
470 2.86543
475 3.87089
480 4.34728
485 2.48233
490 1.77739
495 2.32552
500 1.41992
505 1.88275
510 2.06924
515 1.38662
520 1.49666
525 2.00646
530 2.49605
535 2.55284
540 2.45449
545 1.23013
550 2.12353
555 3.64686
560 2.91705
565 2.5934
570 1.74072
575 1.09349
580 1.59446
585 2.50888
590 3.59359
595 1.80327
600 0.648307
Ex : 253
200 3.06906
205 1.43472
210 1.55294
215 1.20147
220 1.83589
225 1.78878
230 3.1321
235 1.13851
240 2.2917
245 1.82964
250 1.71794
255 1.95535
260 1.16897
265 2.12065
270 1.17271
275 0.802472
280 1.24637
285 1.67612
290 3.15271
295 1.9397
300 1.87984
305 1.63625
310 2.13976
315 1.74166
320 2.03897
325 1.37002
330 3.43385
335 2.2399
340 1.49852
345 1.40668
350 2.96129
355 1.57194
360 1.86544
365 1.16037
370 2.07871
375 3.02883
380 2.51066
385 1.72305
390 2.43852
395 1.18567
400 1.90001
405 0.994771
410 2.26963
415 1.98698
420 2.02661
425 2.78008
430 2.19005
435 1.71699
440 0.953978
445 1.79033
450 2.68068
455 2.6666
460 2.58332
465 1.89327
470 3.0185
475 1.54277
480 1.58016
485 1.98008
490 2.7716
495 2.52965
500 2.22981
505 1.97169
510 1.01376
515 2.90517
520 3.55678
525 1.45951
530 3.8457
535 3.39665
540 1.09303
545 1.32585
550 1.13315
555 1.09189
560 0.813523
565 0.870828
570 2.08796
575 2.10304
580 1.82165
585 0.770087
590 2.31333
595 1.5609
600 2.07663
Ex : 258
200 0.706263
205 0.517667
210 0.957034
215 0.655629
220 2.71573
225 1.63246
230 1.29951
235 1.8827
240 2.15098
245 3.90671
250 0.849798
255 0.92131
260 1.61254
265 1.37778
270 0.964003
275 0.974573
280 1.77632
285 1.47256
290 1.43218
295 1.29318
300 0.875251
305 0.894463
310 1.3834
315 1.69124
320 1.25749
325 1.17078
330 1.87349
335 0.922159
340 1.99472
345 2.12388
350 1.51956
355 1.72427
360 2.2442
365 2.08751
370 1.222
375 0.935471
380 1.81009
385 1.19907
390 1.2437
395 1.96173
400 1.01824
405 1.81648
410 1.95516
415 2.20031
420 1.54443
425 1.42709
430 1.17043
435 0.911171
440 3.06357
445 1.78603
450 0.982792
455 1.58035
460 0.984774
465 0.702866
470 1.97816
475 1.24929
480 1.18662
485 1.69892
490 1.25169
495 1.03053
500 1.33782
505 2.87073
510 1.47673
515 0.809581
520 0.831284
525 0.364225
530 2.43612
535 1.24452
540 0.631571
545 0.560147
550 0.925611
555 2.00017
560 0.919332
565 0.662003
570 0.747226
575 1.14614
580 0.499514
585 0.680902
590 1.08887
595 1.35697
600 7.86439
Ex : 263
200 1.81145
205 1.07842
210 1.79006
215 0.636325
220 0.982771
225 0.79101
230 1.63857
235 2.19509
240 0.899676
245 0.693182
250 1.2311
255 1.07278
260 1.26453
265 0.973025
270 0.871436
275 0.980746
280 0.48671
285 0.980775
290 2.01216
295 0.738466
300 1.01863
305 2.21875
310 1.28285
315 0.594405
320 1.65453
325 1.35972
330 1.19963
335 0.424797
340 1.94949
345 1.46617
350 1.16917
355 0.866404
360 1.49034
365 1.19549
370 2.40675
375 2.26593
380 1.3614
385 1.05937
390 1.04431
395 1.60962
400 2.67761
405 1.32677
410 1.11484
415 1.17237
420 1.25371
425 0.87618
430 1.76003
435 1.12163
440 1.37645
445 1.36065
450 2.13127
455 1.90944
460 1.12965
465 2.23632
470 1.22435
475 0.742248
480 1.50179
485 0.713224
490 0.938032
495 1.01723
500 1.36565
505 0.92736
510 0.455147
515 1.47363
520 1.96888
525 1.24458
530 1.67616
535 0.803196
540 0.986709
545 0.8106
550 0.733037
555 1.64802
560 0.790586
565 1.2061
570 1.10537
575 2.27416
580 0.796023
585 0.88226
590 1.02127
595 0.752892
600 0.381077
Ex : 268
200 1.61507
205 1.07366
210 0.70894
215 0.884469
220 1.16962
225 0.735669
230 0.92649
235 0.353422
240 0.641358
245 0.502948
250 1.72643
255 0.803939
260 0.494089
265 0.858894
270 1.25726
275 0.936561
280 0.579781
285 0.955788
290 0.441835
295 0.454617
300 2.34934
305 1.04857
310 0.635874
315 0.22328
320 0.678401
325 0.813281
330 0.323057
335 0.500278
340 0.863328
345 1.16263
350 0.890001
355 1.46622
360 1.42924
365 1.3842
370 2.04025
375 1.65837
380 1.66812
385 1.21753
390 1.03657
395 0.630768
400 0.816286
405 0.997825
410 1.47032
415 1.13265
420 0.953853
425 0.858783
430 0.842375
435 1.24074
440 2.37447
445 1.3611
450 0.809803
455 0.926581
460 1.09358
465 1.28875
470 1.11594
475 0.957579
480 1.92701
485 0.710947
490 0.83287
495 0.950584
500 1.15219
505 0.497078
510 0.683247
515 0.572803
520 0.265177
525 0.534704
530 1.06828
535 1.20726
540 1.02239
545 0.57152
550 0.313174
555 1.78498
560 1.17795
565 0.606449
570 0.850396
575 0.932335
580 1.27222
585 0.743328
590 0.756136
595 2.27542
600 0.258934
Ex : 273
200 0.783871
205 0.451963
210 0.844351
215 0.380412
220 1.40149
225 0.555817
230 0.467737
235 0.455783
240 0.816659
245 0.647909
250 1.48992
255 0.903997
260 1.26954
265 0.636269
270 0.589039
275 0.535798
280 0.622813
285 0.638355
290 0.565302
295 0.615446
300 0.308441
305 0.422143
310 1.29766
315 0.700459
320 0.371917
325 0.717433
330 0.653073
335 0.410701
340 0.655941
345 1.7455
350 1.1034
355 0.932434
360 1.33458
365 0.852383
370 1.01445
375 0.757717
380 0.627528
385 0.815588
390 0.61365
395 1.22306
400 1.6129
405 1.20177
410 1.41585
415 0.808433
420 1.08642
425 0.710633
430 1.1906
435 0.880284
440 0.946361
445 0.752555
450 0.75607
455 0.720282
460 0.859083
465 0.773381
470 0.783127
475 1.27329
480 1.8184
485 0.689155
490 1.07782
495 0.719285
500 0.531653
505 0.90143
510 0.363797
515 0.356941
520 1.31084
525 0.502873
530 0.357849
535 1.36906
540 0.749832
545 0.949231
550 0.377479
555 0.499752
560 0.773063
565 0.781692
570 0.590358
575 0.28897
580 0.641482
585 0.549814
590 0.771148
595 0.437366
600 0.0497706
Ex : 278
200 0.198413
205 0.156466
210 0.291824
215 0.374674
220 0.336991
225 0.258908
230 0.490666
235 0.342294
240 0.488015
245 0.332769
250 0.5797
255 0.831616
260 0.349074
265 0.399644
270 0.625626
275 0.75566
280 0.673091
285 0.322018
290 0.533238
295 0.349988
300 0.230861
305 0.740267
310 0.294109
315 0.319005
320 0.376053
325 0.959801
330 0.554282
335 0.34666
340 0.73867
345 0.398569
350 0.478262
355 0.729175
360 0.898317
365 0.768264
370 0.569161
375 0.787183
380 0.861842
385 0.876668
390 0.922665
395 0.534288
400 0.876456
405 0.91295
410 0.47852
415 0.79203
420 0.799409
425 1.21944
430 0.850295
435 0.506865
440 1.12128
445 0.960693
450 0.809876
455 0.615827
460 0.775554
465 0.860084
470 0.612496
475 0.529388
480 0.704754
485 0.717477
490 1.13035
495 0.447317
500 0.438714
505 0.825352
510 0.727376
515 0.472479
520 0.496474
525 0.355826
530 0.749939
535 0.609473
540 0.546724
545 1.04241
550 0.977231
555 0.429921
560 0.491238
565 1.04092
570 0.709255
575 0.269989
580 0.186973
585 0.199156
590 0.769731
595 0.555866
600 0.0632554
Ex : 283
200 0.322182
205 0.370054
210 0.33686
215 0.344214
220 0.750584
225 0.899728
230 0.519539
235 0.269841
240 0.698618
245 0.834032
250 0.717541
255 0.402306
260 0.415578
265 0.297683
270 0.398744
275 0.421931
280 0.39123
285 0.411653
290 0.48734
295 0.749749
300 0.26021
305 0.257343
310 0.149326
315 0.235607
320 0.101692
325 0.376441
330 0.491523
335 0.635675
340 0.508904
345 0.771816
350 0.839602
355 0.991572
360 0.500551
365 0.379988
370 1.0301
375 0.987231
380 0.442825
385 0.961339
390 0.684249
395 0.808526
400 0.489448
405 0.692494
410 0.690957
415 0.625546
420 0.587325
425 0.523066
430 0.620073
435 0.289337
440 0.707254
445 0.646434
450 0.986796
455 0.577058
460 0.81933
465 0.550442
470 0.663076
475 0.630793
480 0.853075
485 0.678098
490 0.85186
495 0.868312
500 0.812065
505 0.738519
510 0.422197
515 0.269595
520 0.648336
525 0.474758
530 0.247656
535 0.325768
540 0.400195
545 0.498691
550 0.362939
555 0.586506
560 0.974386
565 0.588425
570 0.607042
575 0.892947
580 0.564236
585 0.777335
590 0.41842
595 0.34908
600 0.039724
Ex : 288
200 0.729927
205 0.594625
210 0.154165
215 0.419325
220 0.319893
225 0.24062
230 0.409516
235 0.326998
240 0.517034
245 0.370649
250 0.320342
255 0.153316
260 0.431336
265 0.255938
270 0.490712
275 0.55662
280 0.454602
285 0.630983
290 0.473983
295 0.226842
300 0.256973
305 0.496673
310 0.642601
315 0.259551
320 0.241901
325 0.405459
330 0.512274
335 0.253893
340 0.222698
345 0.402265
350 0.415755
355 0.470581
360 0.701832
365 1.00477
370 0.832024
375 0.562885
380 0.571235
385 0.836138
390 0.520571
395 0.835143
400 0.625005
405 0.67156
410 0.602144
415 0.530817
420 0.701291
425 0.590126
430 0.703585
435 0.627091
440 0.466258
445 0.725579
450 0.516917
455 0.473081
460 0.694234
465 0.433918
470 0.534097
475 0.729559
480 0.581648
485 0.554961
490 0.617573
495 0.728225
500 0.491213
505 0.622389
510 0.322169
515 1.07967
520 0.473823
525 0.572379
530 0.565437
535 0.507446
540 0.329385
545 0.469336
550 0.897229
555 0.582671
560 0.796759
565 0.56029
570 1.41313
575 1.55131
580 0.519985
585 0.86334
590 0.32696
595 0.224264
600 0.0255204
Ex : 293
200 0.153172
205 0.312057
210 0.66006
215 0.624133
220 0.586574
225 0.227709
230 0.321159
235 0.286915
240 0.262304
245 0.239923
250 0.354994
255 0.197708
260 0.325184
265 0.252193
270 0.370401
275 0.21753
280 0.451324
285 0.148851
290 0.303036
295 0.243058
300 0.177972
305 0.11449
310 0.358211
315 0.249667
320 0.19089
325 0.451014
330 0.327239
335 0.270815
340 0.420358
345 0.372191
350 0.471645
355 0.691664
360 0.522505
365 0.467048
370 0.238622
375 0.671248
380 0.55515
385 0.402955
390 0.862481
395 0.689105
400 0.663681
405 1.18908
410 0.521001
415 0.643134
420 0.483799
425 0.808842
430 0.541969
435 0.465384
440 0.421939
445 0.605503
450 0.490222
455 0.699155
460 0.360485
465 0.603277
470 0.358496
475 0.534631
480 0.499778
485 0.628932
490 0.431289
495 0.445514
500 0.420761
505 0.521047
510 0.698522
515 0.523741
520 0.589285
525 0.305191
530 0.554954
535 0.733968
540 0.742483
545 0.264267
550 0.140036
555 0.601677
560 0.481157
565 0.33451
570 0.266317
575 0.291444
580 0.263681
585 0.531849
590 0.556574
595 0.467423
600 0.0531909
Ex : 298
200 0.254283
205 0.257183
210 0.223376
215 0.261794
220 0.159854
225 0.320124
230 0.287097
235 0.14729
240 0.117926
245 0.211517
250 0.247027
255 0.0665195
260 0.337311
265 0.114402
270 0.16936
275 0.152163
280 0.481307
285 0.164995
290 0.101632
295 0.424647
300 0.290416
305 0.38769
310 0.318722
315 0.123845
320 0.394473
325 0.278777
330 0.28927
335 0.414021
340 0.478283
345 0.430135
350 0.367383
355 0.588673
360 0.620615
365 0.570411
370 0.236525
375 0.652447
380 0.469554
385 0.572479
390 0.794748
395 0.643508
400 0.443852
405 0.383996
410 0.445283
415 0.859919
420 0.517066
425 0.394323
430 0.479667
435 0.538222
440 0.374002
445 0.406825
450 0.534808
455 0.422204
460 0.695363
465 0.508067
470 0.286319
475 0.49814
480 0.579123
485 0.404001
490 0.304003
495 0.34128
500 0.211813
505 0.3054
510 0.317491
515 0.383716
520 0.358653
525 0.524307
530 0.205459
535 0.551272
540 0.338158
545 0.228699
550 0.186424
555 0.39929
560 0.235224
565 0.349642
570 0.224144
575 0.108753
580 0.357499
585 0.369923
590 0.529508
595 0.584342
600 0.0664959
Ex : 303
200 0.366486
205 0.213763
210 0.341423
215 0.307873
220 0.331591
225 0.16379
230 0.128713
235 0.252721
240 0.187839
245 0.437701
250 0.216146
255 0.229697
260 0.338221
265 0.333203
270 0.133253
275 0.163038
280 0.316032
285 0.159142
290 0.200349
295 0.253412
300 0.549421
305 0.201433
310 0.362669
315 0.301508
320 0.170331
325 0.253966
330 0.328012
335 0.364799
340 0.279173
345 0.374703
350 0.476248
355 0.519662
360 0.298331
365 0.429743
370 0.329299
375 0.448381
380 0.590558
385 0.488315
390 0.674755
395 0.539972
400 0.647529
405 0.451616
410 0.382988
415 0.518397
420 0.61912
425 0.483877
430 0.344264
435 0.457951
440 0.558367
445 0.561333
450 0.533614
455 0.423944
460 0.355673
465 0.381642
470 0.379029
475 0.388227
480 0.313969
485 0.335402
490 0.287445
495 0.427547
500 0.444286
505 0.354142
510 0.239208
515 0.324014
520 0.203968
525 0.212663
530 0.1217
535 0.253044
540 0.249393
545 0.340472
550 0.212238
555 0.192555
560 0.171342
565 0.106973
570 0.225858
575 0.154428
580 0.321673
585 0.222919
590 0.359955
595 0.276613
600 0.0314776
Ex : 308
200 0.150186
205 0.267874
210 0.331099
215 0.149217
220 0.104361
225 0.123182
230 0.133891
235 0.243213
240 0.318705
245 0.239053
250 0.245117
255 0.218507
260 0.0876242
265 0.273306
270 0.245911
275 0.365974
280 0.117107
285 0.152743
290 0.170112
295 0.249419
300 0.455654
305 0.244333
310 0.118184
315 0.250916
320 0.309013
325 0.359608
330 0.408786
335 0.315295
340 0.348408
345 0.366959
350 0.396852
355 0.354875
360 0.27014
365 0.36742
370 0.387199
375 0.391035
380 0.42264
385 0.413917
390 0.516751
395 0.367468
400 0.514337
405 0.460541
410 0.292218
415 0.475445
420 0.477599
425 0.539658
430 0.346778
435 0.561869
440 0.481942
445 0.551142
450 0.641266
455 0.358777
460 0.387483
465 0.328114
470 0.367343
475 0.333631
480 0.461408
485 0.41941
490 0.312888
495 0.302685
500 0.243894
505 0.360462
510 0.250375
515 0.218108
520 0.136246
525 0.213854
530 0.36875
535 0.113965
540 0.216687
545 0.115732
550 0.341303
555 0.267049
560 0.190107
565 0.173798
570 0.182754
575 0.1857
580 0.162888
585 0.139672
590 0.0789117
595 0.242747
600 0.0276237
Ex : 313
200 0.117085
205 0.318099
210 0.207577
215 0.220821
220 0.273604
225 0.178481
230 0.128391
235 0.108259
240 0.151925
245 0.316869
250 0.187828
255 0.411792
260 0.167731
265 0.145157
270 0.0968653
275 0.171353
280 0.437889
285 0.368629
290 0.351324
295 0.254285
300 0.220548
305 0.242748
310 0.226393
315 0.164739
320 0.127565
325 0.244224
330 0.459033
335 0.314795
340 0.269342
345 0.288431
350 0.443372
355 0.450889
360 0.34102
365 0.496313
370 0.718163
375 0.628711
380 0.685276
385 0.816836
390 0.674847
395 0.785705
400 0.981432
405 0.972871
410 0.997708
415 0.93804
420 0.954844
425 0.820805
430 0.956147
435 0.91317
440 0.881459
445 0.842393
450 0.78977
455 0.779941
460 0.643721
465 0.482843
470 0.582114
475 0.364909
480 0.347848
485 0.418931
490 0.382119
495 0.266771
500 0.296563
505 0.510464
510 0.355794
515 0.308287
520 0.63833
525 0.35632
530 0.391287
535 0.310123
540 0.266601
545 0.38556
550 0.193922
555 0.177253
560 0.224372
565 0.151718
570 0.31381
575 0.144585
580 0.129586
585 0.14203
590 0.168197
595 0.285481
600 0.0324867
Ex : 318
200 0.124011
205 0.222062
210 0.194059
215 0.250018
220 0.0718251
225 0.0940954
230 0.174828
235 0.156544
240 0.212283
245 0.197288
250 0.134966
255 0.128012
260 0.116731
265 0.284232
270 0.108258
275 0.221883
280 0.242438
285 0.0758108
290 0.111206
295 0.219263
300 0.12737
305 0.295721
310 0.24081
315 1.18528
320 0.850005
325 0.48862
330 0.618185
335 0.569736
340 0.899865
345 1.53287
350 2.33346
355 2.81867
360 3.83946
365 4.66252
370 5.36834
375 6.29373
380 7.49633
385 7.96436
390 8.68288
395 9.58676
400 10.0745
405 10.8135
410 9.98057
415 10.082
420 9.9356
425 9.58048
430 9.16575
435 9.16332
440 8.26322
445 7.3555
450 7.47189
455 7.11986
460 5.89395
465 5.82883
470 5.33259
475 4.69934
480 4.01737
485 3.77592
490 3.42403
495 2.8205
500 2.38727
505 2.22793
510 1.74083
515 1.62795
520 1.35353
525 0.961924
530 0.980635
535 0.758696
540 0.973013
545 0.712442
550 0.457196
555 0.593898
560 0.428918
565 0.570952
570 0.305544
575 0.215893
580 0.285842
585 0.14557
590 0.160523
595 0.218698
600 0.024887
Ex : 323
200 0.107976
205 0.12233
210 0.119848
215 0.321342
220 0.0990911
225 0.201072
230 0.127289
235 0.200515
240 0.103344
245 0.313693
250 0.140964
255 0.0960881
260 0.0891413
265 0.124894
270 0.127559
275 0.238898
280 0.156551
285 0.120191
290 0.0903659
295 0.0465447
300 0.15538
305 0.0697371
310 0.257246
315 14.4401
320 64.009
325 27.5033
330 5.26137
335 3.4834
340 4.46587
345 5.91446
350 8.66058
355 12.1789
360 14.2765
365 17.3598
370 21.0729
375 24.4225
380 27.3702
385 31.0469
390 33.1405
395 35.4274
400 37.4983
405 37.8754
410 37.509
415 38.0203
420 35.6113
425 35.4537
430 33.6355
435 31.8603
440 31.2222
445 29.3978
450 27.4944
455 25.7044
460 23.431
465 21.9037
470 20.7952
475 18.9038
480 16.9987
485 15.1581
490 14.2304
495 11.8791
500 10.917
505 9.20081
510 8.38149
515 7.14541
520 6.21359
525 4.93199
530 4.25519
535 3.46319
540 3.10046
545 2.74062
550 2.27314
555 1.96397
560 1.30998
565 1.02706
570 0.742358
575 0.678977
580 0.439023
585 0.322492
590 0.324992
595 0.209522
600 1.21427
Ex : 328
200 0.149725
205 0.100528
210 0.298092
215 0.0993067
220 0.269212
225 0.109842
230 0.115237
235 0.168369
240 0.240285
245 0.116928
250 0.139853
255 0.132451
260 0.108039
265 0.113159
270 0.213134
275 0.0883646
280 0.26985
285 0.200579
290 0.217566
295 0.332494
300 0.281001
305 0.201659
310 0.295467
315 3.63048
320 149.617
325 351.493
330 103.501
335 15.9644
340 7.0289
345 7.18475
350 8.82405
355 13.4465
360 17.9573
365 20.8862
370 22.5575
375 25.152
380 28.9324
385 32.9327
390 35.1623
395 36.9863
400 38.6304
405 39.3863
410 38.2084
415 38.2401
420 37.7879
425 36.4017
430 34.5424
435 33.0102
440 31.1963
445 29.9396
450 27.5598
455 26.1316
460 23.6701
465 21.9311
470 20.8849
475 19.7865
480 17.2746
485 15.8475
490 14.7544
495 12.6601
500 11.2937
505 9.60059
510 8.45263
515 7.23724
520 5.89326
525 5.81734
530 4.84571
535 3.71252
540 3.62255
545 3.19024
550 2.24093
555 2.09194
560 1.47103
565 1.33392
570 0.968185
575 0.832715
580 0.704013
585 0.60866
590 0.551085
595 0.346107
600 0.347974
Ex : 333
200 0.126828
205 0.145065
210 0.0673641
215 0.17309
220 0.265597
225 0.100484
230 0.150925
235 0.16065
240 0.207987
245 0.126299
250 0.153331
255 0.116736
260 0.197744
265 0.169659
270 0.121614
275 0.154877
280 0.112876
285 0.126047
290 0.118451
295 0.17702
300 0.138763
305 0.235485
310 0.188191
315 0.245058
320 19.6052
325 406.65
330 681.274
335 174.224
340 23.9264
345 7.39263
350 6.39706
355 6.90637
360 9.76822
365 14.3577
370 15.025
375 14.6441
380 16.4206
385 18.8382
390 21.3247
395 21.6431
400 22.3988
405 22.3932
410 23.2449
415 23.4759
420 22.9268
425 21.0618
430 19.7719
435 18.867
440 18.4019
445 17.2961
450 15.55
455 14.3741
460 14.2607
465 12.2231
470 11.3108
475 9.86727
480 9.50867
485 8.35073
490 7.70767
495 6.70551
500 6.26739
505 5.37608
510 4.56198
515 4.06928
520 3.50107
525 3.07481
530 2.59038
535 2.22642
540 2.31746
545 1.85574
550 1.77554
555 1.43364
560 0.968064
565 0.967265
570 0.820882
575 0.832715
580 0.769618
585 0.507687
590 0.438852
595 0.356623
600 0.0405824
Ex : 338
200 0.147429
205 0.179584
210 0.0899268
215 0.0301181
220 0.262842
225 0.132711
230 0.0923688
235 0.104403
240 0.32986
245 0.149554
250 0.186367
255 0.195787
260 0.119761
265 0.12842
270 0.0948089
275 0.154418
280 0.221551
285 0.201147
290 0.181569
295 0.238922
300 0.198169
305 0.207124
310 0.191078
315 0.389036
320 0.380994
325 37.7786
330 591.651
335 880.175
340 215.683
345 28.408
350 7.08054
355 4.50128
360 4.35125
365 6.23657
370 10.3555
375 10.6018
380 9.34336
385 10.4665
390 12.5248
395 13.5108
400 13.3822
405 13.2524
410 14.249
415 14.507
420 13.874
425 13.0517
430 12.4089
435 11.4893
440 10.9488
445 10.1187
450 9.33251
455 8.64658
460 7.77375
465 7.12317
470 6.64013
475 6.25497
480 5.8263
485 5.24879
490 4.80929
495 3.93308
500 3.75556
505 3.20585
510 2.91796
515 2.88155
520 2.20096
525 1.6851
530 1.72153
535 1.66584
540 1.33758
545 1.4131
550 1.16988
555 0.902339
560 0.908794
565 0.691455
570 0.708282
575 0.625824
580 0.376955
585 0.327758
590 0.311133
595 0.276247
600 0.372788
Ex : 343
200 0.129434
205 0.130568
210 0.112267
215 0.139968
220 0.159806
225 0.116747
230 0.184443
235 0.122057
240 0.164612
245 0.073452
250 0.12156
255 0.125035
260 0.122093
265 0.184961
270 0.062422
275 0.150812
280 0.105597
285 0.0935621
290 0.124142
295 0.110357
300 0.280051
305 0.119395
310 0.180709
315 0.174581
320 0.222033
325 0.753128
330 43.536
335 677.512
340 984.958
345 233.878
350 29.9578
355 6.5495
360 3.45617
365 2.32937
370 3.47518
375 7.69876
380 9.50803
385 9.76948
390 10.3767
395 10.8166
400 10.0828
405 10.9222
410 11.8972
415 12.6945
420 11.5429
425 10.7051
430 9.56393
435 9.02709
440 9.05238
445 8.79788
450 7.38414
455 7.57052
460 6.37999
465 6.32501
470 5.81732
475 5.45158
480 4.92256
485 4.48018
490 4.37795
495 3.53428
500 3.637
505 2.84592
510 2.787
515 2.36837
520 2.12357
525 1.95176
530 1.6296
535 1.77555
540 1.33504
545 1.10209
550 0.929405
555 0.857745
560 0.819023
565 0.689761
570 0.580901
575 0.472695
580 0.362123
585 0.303305
590 0.362602
595 0.355053
600 0.304504
Ex : 348
200 0.0508325
205 0.0790776
210 0.0336483
215 0.0741399
220 0.124256
225 0.143847
230 0.128286
235 0.115146
240 0.123567
245 0.108942
250 0.128529
255 0.0513273
260 0.113271
265 0.139321
270 0.140546
275 0.0838432
280 0.0956743
285 0.101898
290 0.0796748
295 0.146498
300 0.14628
305 0.122917
310 0.191307
315 0.165863
320 0.219864
325 0.38513
330 1.07689
335 42.3984
340 678.011
345 1030.11
350 260.045
355 32.6028
360 6.50237
365 3.0395
370 2.08627
375 2.71615
380 6.64096
385 12.0905
390 13.6422
395 12.8634
400 11.805
405 11.8243
410 14.4821
415 14.5864
420 13.4228
425 12.4813
430 11.114
435 10.6864
440 9.97667
445 10.2588
450 9.13489
455 7.93951
460 7.28472
465 6.97386
470 6.18889
475 5.96865
480 5.3296
485 4.58993
490 4.37871
495 3.87767
500 3.55024
505 3.1833
510 2.89594
515 2.75404
520 2.24151
525 2.09273
530 1.80509
535 1.51824
540 1.38688
545 1.29811
550 0.98631
555 0.979137
560 0.843118
565 0.748908
570 0.676593
575 0.477291
580 0.477986
585 0.359298
590 0.396993
595 0.352691
600 0.180631
Ex : 353
200 0.0702535
205 0.0650011
210 0.094507
215 0.0392668
220 0.10637
225 0.109209
230 0.16523
235 0.0799242
240 0.0739333
245 0.147597
250 0.0757066
255 0.137679
260 0.0864279
265 0.0413087
270 0.147637
275 0.143349
280 0.057345
285 0.111345
290 0.145535
295 0.107042
300 0.0812311
305 0.168958
310 0.123678
315 0.116431
320 0.192258
325 0.196539
330 0.480701
335 1.00113
340 44.5662
345 706.082
350 1026.76
355 251.054
360 31.5501
365 6.00793
370 2.92933
375 2.06544
380 3.42775
385 8.88352
390 15.8948
395 16.3513
400 13.9186
405 13.0872
410 14.4842
415 16.4028
420 15.3582
425 13.7397
430 11.9428
435 11.5304
440 11.7147
445 10.773
450 9.86443
455 8.41763
460 7.71482
465 7.48906
470 6.68117
475 6.28343
480 5.6899
485 5.16702
490 4.52279
495 4.1437
500 4.10463
505 3.76351
510 3.23262
515 2.82766
520 2.28364
525 2.18137
530 1.90459
535 1.67004
540 1.50286
545 1.48149
550 1.04969
555 1.07695
560 0.86162
565 0.949091
570 0.692271
575 0.657158
580 0.471487
585 0.379113
590 0.362238
595 0.300826
600 0.0717839
Ex : 358
200 0.0992943
205 0.110395
210 0.109785
215 0.0881158
220 0.0935762
225 0.0418442
230 0.0918677
235 0.0696625
240 0.0785993
245 0.05927
250 0.0878625
255 0.100648
260 0.143179
265 0.11481
270 0.0746566
275 0.101864
280 0.220589
285 0.0882177
290 0.132096
295 0.0890984
300 0.187878
305 0.293598
310 0.120659
315 0.14379
320 0.183526
325 0.237103
330 0.314915
335 0.450298
340 1.06678
345 42.39
350 679.521
355 1038.77
360 258.493
365 32.1796
370 5.89051
375 3.26864
380 3.20133
385 5.92871
390 11.3407
395 16.352
400 15.1091
405 13.5593
410 13.715
415 15.3621
420 14.5817
425 12.6312
430 11.0182
435 11.1443
440 11.3649
445 10.3922
450 9.17768
455 8.40928
460 7.7147
465 7.65582
470 7.12448
475 6.53311
480 6.09697
485 5.37269
490 5.04477
495 4.73127
500 3.97456
505 3.77112
510 3.2262
515 3.05214
520 2.45663
525 2.33925
530 1.99612
535 1.74142
540 1.70428
545 1.31623
550 1.07469
555 0.894121
560 1.05562
565 0.892815
570 0.668562
575 0.481013
580 0.504478
585 0.375052
590 0.329874
595 0.279057
600 0.0317556
Ex : 363
200 0.145836
205 0.167624
210 0.107359
215 0.0888481
220 0.0469259
225 0.0297455
230 0.067509
235 0.0881315
240 0.0832326
245 0.108511
250 0.0718567
255 0.109655
260 0.0850422
265 0.0509527
270 0.111698
275 0.117309
280 0.0600467
285 0.109232
290 0.0768603
295 0.131171
300 0.153564
305 0.0857655
310 0.154403
315 0.164518
320 0.1822
325 0.175546
330 0.205643
335 0.283951
340 0.567743
345 1.08168
350 38.7569
355 659.307
360 1029.92
365 267.109
370 33.35
375 5.97695
380 4.8582
385 8.00951
390 11.4521
395 13.4179
400 15.1362
405 16.6564
410 17.6347
415 17.0665
420 15.5077
425 13.7325
430 12.6751
435 12.1609
440 11.6436
445 11.2964
450 10.0091
455 9.08556
460 8.59503
465 8.24466
470 7.55283
475 6.98382
480 6.41617
485 5.92731
490 5.13543
495 5.03216
500 4.59231
505 3.95667
510 3.58999
515 3.21167
520 2.67617
525 2.56291
530 2.01909
535 1.97236
540 1.76015
545 1.41453
550 1.3228
555 1.20873
560 1.07632
565 0.850027
570 0.73717
575 0.590093
580 0.501624
585 0.448429
590 0.340577
595 0.287677
600 0.560966
Ex : 368
200 0.0518363
205 0.102707
210 0.0621813
215 0.100469
220 0.0934527
225 0.105567
230 0.0628871
235 0.104409
240 0.0995689
245 0.0901544
250 0.0428229
255 0.0768666
260 0.0677227
265 0.070246
270 0.0664377
275 0.0700882
280 0.162338
285 0.09321
290 0.0693024
295 0.114215
300 0.104094
305 0.0727079
310 0.152039
315 0.142346
320 0.0913187
325 0.160671
330 0.19103
335 0.270198
340 0.431401
345 0.627424
350 1.06102
355 32.7225
360 638.181
365 1055.94
370 280.666
375 35.0379
380 8.26233
385 9.97738
390 14.6285
395 16.2793
400 14.8479
405 18.0445
410 22.9669
415 22.776
420 20.2632
425 16.8846
430 14.5939
435 14.7801
440 15.0269
445 14.0247
450 12.6417
455 10.4644
460 9.89903
465 9.35541
470 8.97576
475 8.1046
480 7.15303
485 6.58123
490 5.75329
495 5.73102
500 5.01095
505 4.40018
510 3.99502
515 3.73487
520 3.10917
525 2.72214
530 2.38519
535 2.0911
540 1.8186
545 1.50321
550 1.47249
555 1.33732
560 1.32455
565 1.03193
570 0.819249
575 0.694756
580 0.459072
585 0.398772
590 0.304109
595 0.215226
600 0.0244919
Ex : 373
200 0.064313
205 0.137403
210 0.0930497
215 0.0903961
220 0.0516652
225 0.0829766
230 0.085768
235 0.139383
240 0.133966
245 0.0822157
250 0.119831
255 0.112454
260 0.073045
265 0.0562127
270 0.0912421
275 0.154342
280 0.067214
285 0.0721318
290 0.110795
295 0.0592942
300 0.0486001
305 0.110915
310 0.128282
315 0.0929068
320 0.0930663
325 0.152435
330 0.253693
335 0.16416
340 0.210395
345 0.402748
350 0.525548
355 1.13105
360 38.0925
365 640.085
370 1039.91
375 274.399
380 35.4864
385 10.9224
390 14.6889
395 17.8035
400 15.7578
405 14.5227
410 18.5558
415 24.1949
420 22.9455
425 18.4285
430 15.3239
435 13.8915
440 14.688
445 13.7022
450 12.1588
455 10.8346
460 9.70569
465 8.92494
470 8.83991
475 7.8093
480 7.3743
485 6.54235
490 5.85559
495 5.33543
500 4.96302
505 4.55828
510 4.03221
515 3.78382
520 3.3063
525 2.72962
530 2.41973
535 2.19563
540 1.90058
545 1.74837
550 1.43475
555 1.26571
560 1.10783
565 1.08475
570 0.749849
575 0.600332
580 0.523391
585 0.406267
590 0.320805
595 0.246059
600 0.109268
Ex : 378
200 0.0307889
205 0.0449553
210 0.119228
215 0.077373
220 0.0775354
225 0.147784
230 0.0687508
235 0.11216
240 0.129314
245 0.155805
250 0.0721677
255 0.0747062
260 0.0994344
265 0.0857581
270 0.101865
275 0.0982761
280 0.168748
285 0.0800691
290 0.0754142
295 0.0617261
300 0.113907
305 0.104908
310 0.0943717
315 0.0512878
320 0.100603
325 0.167786
330 0.11555
335 0.144699
340 0.225192
345 0.252901
350 0.331409
355 0.641672
360 1.21222
365 35.2715
370 647.85
375 1060.72
380 283.483
385 38.7591
390 14.3171
395 13.314
400 11.3257
405 10.9525
410 12.5077
415 15.6094
420 17.9283
425 15.161
430 12.4789
435 11.6513
440 11.3643
445 10.8024
450 9.55711
455 8.7534
460 8.33101
465 7.44862
470 6.91805
475 6.81751
480 6.34581
485 5.93937
490 5.51668
495 4.77338
500 4.4617
505 4.29243
510 3.77223
515 3.38135
520 3.3501
525 3.00194
530 2.66576
535 2.17492
540 1.81542
545 1.80643
550 1.50182
555 1.2341
560 1.29945
565 0.946973
570 0.928929
575 0.555043
580 0.452321
585 0.388265
590 0.317586
595 0.366312
600 0.275088
Ex : 383
200 0.092186
205 0.100471
210 0.0733682
215 0.0739593
220 0.0634559
225 0.0747747
230 0.0463753
235 0.0595518
240 0.0682804
245 0.0701694
250 0.0508161
255 0.0373521
260 0.0969052
265 0.0968188
270 0.0702429
275 0.0885421
280 0.106295
285 0.112115
290 0.0502553
295 0.125519
300 0.103982
305 0.0578347
310 0.0649195
315 0.145195
320 0.0808917
325 0.115893
330 0.106644
335 0.150676
340 0.160787
345 0.170955
350 0.289412
355 0.384818
360 0.586246
365 1.15794
370 32.4524
375 636.871
380 1094.63
385 301.31
390 45.095
395 15.1878
400 11.1799
405 11.2864
410 13.0979
415 13.6815
420 13.7074
425 14.3764
430 14.2746
435 12.4082
440 11.9277
445 10.5352
450 9.33128
455 8.4313
460 7.80925
465 7.53878
470 7.30263
475 6.85946
480 6.30505
485 5.94481
490 5.34142
495 5.02455
500 4.53758
505 3.99043
510 3.96506
515 3.21672
520 3.15485
525 2.85627
530 2.55238
535 2.18136
540 1.86823
545 1.79069
550 1.49976
555 1.2515
560 1.10253
565 0.944058
570 0.76523
575 0.70399
580 0.554474
585 0.444034
590 0.426147
595 0.277667
600 0.615449
Ex : 388
200 0.0700252
205 0.0803941
210 0.0433166
215 0.0433085
220 0.0437219
225 0.0555102
230 0.133371
235 0.0711495
240 0.047126
245 0.0354898
250 0.0944004
255 0.0851448
260 0.0471287
265 0.0525716
270 0.0704468
275 0.129775
280 0.0831048
285 0.0794141
290 0.106707
295 0.0927653
300 0.0759267
305 0.0762634
310 0.145408
315 0.142351
320 0.143776
325 0.0688169
330 0.131806
335 0.112277
340 0.229349
345 0.204776
350 0.294033
355 0.25328
360 0.439643
365 0.568089
370 1.02492
375 35.9056
380 654.883
385 1102.04
390 303.401
395 48.1649
400 17.0979
405 14.4979
410 16.8804
415 18.2801
420 16.5913
425 14.4444
430 15.3569
435 15.9022
440 14.6576
445 13.2059
450 11.5236
455 10.2694
460 8.93508
465 8.48061
470 8.44654
475 7.45338
480 6.74774
485 6.23587
490 5.57448
495 5.26366
500 4.87133
505 4.48257
510 4.10736
515 3.69948
520 3.27618
525 2.97805
530 2.44919
535 2.35674
540 2.08234
545 1.73312
550 1.62085
555 1.47038
560 1.22936
565 1.00523
570 0.883389
575 0.698116
580 0.509504
585 0.445184
590 0.299711
595 0.206062
600 0.214066
Ex : 393
200 0.0313512
205 0.0461471
210 0.112414
215 0.0949569
220 0.0639384
225 0.0984131
230 0.0661873
235 0.0520636
240 0.0518352
245 0.0439667
250 0.100044
255 0.0781785
260 0.0626659
265 0.118939
270 0.08535
275 0.053503
280 0.0843076
285 0.0812648
290 0.0585321
295 0.0789243
300 0.088252
305 0.0553243
310 0.0687399
315 0.0952741
320 0.0779051
325 0.131964
330 0.0925136
335 0.129014
340 0.180792
345 0.155234
350 0.152759
355 0.243909
360 0.28397
365 0.408363
370 0.658027
375 1.16162
380 31.5376
385 647.3
390 1119.93
395 314.916
400 49.3585
405 17.016
410 15.4528
415 18.5281
420 18.1588
425 15.4038
430 12.9375
435 13.5084
440 15.6096
445 14.4285
450 12.5234
455 10.0529
460 8.56295
465 8.25428
470 7.88118
475 7.31015
480 6.88791
485 6.20541
490 5.75557
495 5.08285
500 4.64755
505 4.42059
510 3.87931
515 3.64287
520 3.18404
525 2.70404
530 2.59443
535 2.34151
540 1.78755
545 1.81525
550 1.72638
555 1.46549
560 1.20757
565 1.00474
570 0.828574
575 0.681186
580 0.507748
585 0.492211
590 0.262805
595 0.240734
600 0.0815869
Ex : 398
200 0.112368
205 0.0805385
210 0.0550507
215 0.0651271
220 0.122655
225 0.0709952
230 0.0499584
235 0.0681408
240 0.0672184
245 0.0537974
250 0.0342025
255 0.151677
260 0.0695983
265 0.0697314
270 0.0659617
275 0.081068
280 0.107756
285 0.057582
290 0.0603013
295 0.100413
300 0.0700342
305 0.15018
310 0.0746
315 0.0536029
320 0.0710149
325 0.11144
330 0.0953977
335 0.109041
340 0.179908
345 0.164777
350 0.174016
355 0.177825
360 0.258779
365 0.231247
370 0.31096
375 0.63013
380 1.34167
385 33.7419
390 660.821
395 1134.14
400 309.277
405 43.1196
410 13.0442
415 11.8184
420 11.7624
425 10.0455
430 7.8806
435 7.47007
440 9.01753
445 10.9284
450 9.92802
455 8.26094
460 7.20858
465 6.44518
470 5.9147
475 5.73708
480 5.37447
485 4.95158
490 4.48916
495 4.36613
500 3.97217
505 3.83869
510 3.51296
515 3.16912
520 3.08322
525 2.67419
530 2.34585
535 2.1533
540 1.99385
545 1.7286
550 1.60372
555 1.37473
560 1.20225
565 1.02142
570 0.865332
575 0.605966
580 0.525956
585 0.468897
590 0.263949
595 0.240158
600 0.0695293
Ex : 403
200 0.050338
205 0.054472
210 0.0714456
215 0.0405922
220 0.0869091
225 0.0610857
230 0.131845
235 0.0836151
240 0.0504313
245 0.0560707
250 0.0887638
255 0.0764991
260 0.0566437
265 0.0773363
270 0.0423562
275 0.0861919
280 0.113535
285 0.041855
290 0.0380854
295 0.1004
300 0.100279
305 0.114338
310 0.0653553
315 0.0622988
320 0.0908005
325 0.0548329
330 0.0794895
335 0.0708907
340 0.131422
345 0.0897033
350 0.100622
355 0.195776
360 0.148702
365 0.189774
370 0.206161
375 0.347688
380 0.618808
385 1.47519
390 36.7564
395 669.711
400 1114.64
405 303.209
410 39.1997
415 9.33085
420 6.1562
425 5.41843
430 4.5763
435 4.2514
440 4.58754
445 5.31929
450 6.989
455 7.12403
460 5.69921
465 5.41373
470 4.81543
475 4.69813
480 4.36345
485 4.26795
490 4.17204
495 3.93244
500 3.80209
505 3.54538
510 3.15349
515 2.88302
520 2.74925
525 2.47201
530 2.38818
535 2.04119
540 1.65508
545 1.63519
550 1.45703
555 1.42199
560 1.06062
565 0.847514
570 0.751294
575 0.62497
580 0.423933
585 0.41432
590 0.262959
595 0.23233
600 0.334021
Ex : 408
200 0.0371389
205 0.0506331
210 0.0568708
215 0.0624685
220 0.0493812
225 0.100495
230 0.102994
235 0.0805729
240 0.068254
245 0.0624065
250 0.0445725
255 0.0616415
260 0.0515536
265 0.0488165
270 0.0808043
275 0.0507099
280 0.0724236
285 0.095507
290 0.0535498
295 0.0371304
300 0.0544493
305 0.0856549
310 0.0651395
315 0.0607984
320 0.104119
325 0.0857651
330 0.0821461
335 0.11644
340 0.126271
345 0.125045
350 0.142489
355 0.165934
360 0.184924
365 0.187089
370 0.239614
375 0.249685
380 0.339765
385 0.634403
390 1.36295
395 34.3471
400 674.516
405 1122.57
410 297.425
415 38.7854
420 8.48529
425 4.83551
430 4.43125
435 4.3002
440 4.2856
445 4.2844
450 4.47746
455 5.71634
460 6.80919
465 5.82355
470 5.31581
475 5.0604
480 4.29762
485 4.2153
490 3.9964
495 3.71482
500 3.42571
505 3.38822
510 3.28079
515 2.85765
520 2.55175
525 2.38065
530 2.22298
535 1.98513
540 1.89681
545 1.62652
550 1.47239
555 1.30743
560 1.11521
565 0.986867
570 0.862951
575 0.666525
580 0.491154
585 0.341426
590 0.268341
595 0.265264
600 0.0842595
Ex : 413
200 0.124803
205 0.0506058
210 0.057169
215 0.122932
220 0.0693458
225 0.0584646
230 0.0595894
235 0.0534084
240 0.0349002
245 0.0778396
250 0.080219
255 0.0340821
260 0.0762621
265 0.063025
270 0.0523605
275 0.0452756
280 0.0530916
285 0.0922634
290 0.0891862
295 0.0660574
300 0.0612588
305 0.0675134
310 0.0483628
315 0.0406568
320 0.0549605
325 0.0619179
330 0.0733445
335 0.105462
340 0.0941367
345 0.112858
350 0.0956357
355 0.096702
360 0.114967
365 0.165677
370 0.133925
375 0.187078
380 0.266336
385 0.390783
390 0.654755
395 1.31451
400 38.2238
405 696.822
410 1123.06
415 288.881
420 37.1216
425 7.7995
430 4.22895
435 4.17895
440 4.11948
445 3.98812
450 3.86971
455 3.94887
460 4.96104
465 6.7971
470 6.12429
475 5.06359
480 4.38869
485 4.0368
490 3.64528
495 3.70253
500 3.31371
505 3.40452
510 3.0285
515 2.79672
520 2.7018
525 2.30217
530 2.12975
535 1.96881
540 1.68758
545 1.5184
550 1.5111
555 1.32678
560 1.08834
565 0.879605
570 0.784925
575 0.549441
580 0.449126
585 0.395826
590 0.321783
595 0.249755
600 0.0284212
Ex : 418
200 0.0838366
205 0.115096
210 0.0791003
215 0.058953
220 0.0674123
225 0.0510749
230 0.0588232
235 0.0833954
240 0.0974789
245 0.131659
250 0.0938558
255 0.0610138
260 0.0878385
265 0.0753806
270 0.0652951
275 0.0855918
280 0.0528067
285 0.0591702
290 0.0463963
295 0.0679505
300 0.0833229
305 0.0942534
310 0.0904208
315 0.0886546
320 0.133558
325 0.0654824
330 0.112027
335 0.088857
340 0.0867517
345 0.0801465
350 0.0903073
355 0.114757
360 0.0821614
365 0.0868855
370 0.166071
375 0.15159
380 0.172765
385 0.255503
390 0.360822
395 0.666812
400 1.32572
405 36.5784
410 684.963
415 1130.45
420 299.293
425 37.4543
430 6.71597
435 3.31483
440 3.14645
445 3.01392
450 2.72398
455 2.68441
460 2.82399
465 3.46145
470 5.46729
475 5.53799
480 4.26878
485 3.89324
490 3.32769
495 3.16625
500 3.05019
505 2.85287
510 2.60059
515 2.58158
520 2.40913
525 2.21667
530 1.94727
535 1.80067
540 1.59757
545 1.57974
550 1.36769
555 1.18293
560 0.958332
565 0.854999
570 0.743378
575 0.70302
580 0.432696
585 0.39101
590 0.354046
595 0.294604
600 0.0335248
Ex : 423
200 0.0351653
205 0.0374486
210 0.0669357
215 0.0798237
220 0.150979
225 0.0535724
230 0.0537049
235 0.049156
240 0.114383
245 0.0730348
250 0.073589
255 0.0657472
260 0.0465872
265 0.072055
270 0.0871552
275 0.0424867
280 0.0421692
285 0.0435745
290 0.088437
295 0.0663428
300 0.0706029
305 0.0591775
310 0.0495611
315 0.0487409
320 0.0501328
325 0.0808375
330 0.0958115
335 0.0724285
340 0.0788936
345 0.163046
350 0.0814495
355 0.132749
360 0.15998
365 0.16015
370 0.119022
375 0.156581
380 0.165899
385 0.215728
390 0.252621
395 0.411506
400 0.624684
405 1.17919
410 37.313
415 710.968
420 1118.4
425 283.337
430 35.033
435 5.77925
440 2.46768
445 2.22301
450 2.13801
455 1.92592
460 1.97665
465 2.03942
470 2.56462
475 4.12545
480 5.09213
485 3.97786
490 3.41808
495 3.08962
500 2.68163
505 2.43739
510 2.29843
515 2.2852
520 2.03681
525 1.88509
530 1.82181
535 1.78524
540 1.54282
545 1.37636
550 1.20153
555 1.18595
560 1.00526
565 0.840453
570 0.626686
575 0.61772
580 0.430254
585 0.33568
590 0.272764
595 0.195018
600 0.181477
Ex : 428
200 0.0558844
205 0.0587975
210 0.0703304
215 0.0583679
220 0.0519457
225 0.0608325
230 0.0530231
235 0.0511287
240 0.0500682
245 0.068033
250 0.0431872
255 0.0476812
260 0.129932
265 0.0860244
270 0.064911
275 0.0427841
280 0.0733041
285 0.0741102
290 0.103695
295 0.0732684
300 0.0470063
305 0.0405859
310 0.0279751
315 0.0478833
320 0.0343784
325 0.0410406
330 0.0691124
335 0.0902315
340 0.0891389
345 0.095628
350 0.104713
355 0.0662739
360 0.0950165
365 0.078716
370 0.110181
375 0.142972
380 0.154354
385 0.154913
390 0.213835
395 0.354994
400 0.432564
405 0.648671
410 1.1695
415 40.704
420 711.16
425 1124.98
430 293.171
435 35.979
440 5.80209
445 2.10781
450 1.91181
455 1.78347
460 1.67047
465 1.57519
470 1.8359
475 1.94751
480 3.34468
485 4.7416
490 3.72572
495 3.14003
500 2.85569
505 2.35544
510 2.02276
515 2.10644
520 1.87207
525 1.75009
530 1.77155
535 1.51856
540 1.43457
545 1.33066
550 1.09408
555 1.05256
560 0.84423
565 0.737084
570 0.689212
575 0.551602
580 0.471237
585 0.30811
590 0.272571
595 0.18816
600 0.631585
Ex : 433
200 0.12212
205 0.122487
210 0.112311
215 0.0425371
220 0.0423412
225 0.03805
230 0.0457714
235 0.0559317
240 0.0484835
245 0.0806556
250 0.062224
255 0.0637406
260 0.0544116
265 0.0547977
270 0.0418266
275 0.0596138
280 0.0414741
285 0.0698627
290 0.063249
295 0.080078
300 0.0611835
305 0.0436113
310 0.0547038
315 0.095522
320 0.0778245
325 0.052636
330 0.0847394
335 0.135089
340 0.104299
345 0.0917498
350 0.0759775
355 0.100514
360 0.156945
365 0.149292
370 0.118215
375 0.103182
380 0.144274
385 0.164071
390 0.209884
395 0.289089
400 0.33484
405 0.50517
410 0.732487
415 1.31012
420 44.5904
425 756.333
430 1130.02
435 282.251
440 34.3439
445 5.60673
450 1.92915
455 1.59752
460 1.69803
465 1.67828
470 1.50278
475 1.81956
480 1.98637
485 2.65236
490 4.36525
495 3.83796
500 2.87432
505 2.59399
510 2.23444
515 1.95638
520 1.89282
525 1.75097
530 1.57541
535 1.56556
540 1.43254
545 1.29936
550 1.11387
555 0.958275
560 0.866921
565 0.703279
570 0.646137
575 0.483606
580 0.415567
585 0.333667
590 0.276388
595 0.216015
600 0.149903
Ex : 438
200 0.0654073
205 0.0687962
210 0.041938
215 0.0565773
220 0.0459005
225 0.0214787
230 0.0546491
235 0.0690862
240 0.0571149
245 0.082694
250 0.102921
255 0.0423488
260 0.0465552
265 0.0398755
270 0.0547427
275 0.0673591
280 0.045536
285 0.055822
290 0.0707004
295 0.0759381
300 0.0421151
305 0.0457235
310 0.0816658
315 0.108438
320 0.0769984
325 0.0820688
330 0.0370618
335 0.106794
340 0.067849
345 0.115762
350 0.120919
355 0.105611
360 0.0820615
365 0.121274
370 0.155407
375 0.108733
380 0.10039
385 0.11703
390 0.145933
395 0.154652
400 0.227372
405 0.2346
410 0.386485
415 0.65815
420 1.34757
425 43.2755
430 748.197
435 1196.09
440 300.874
445 36.498
450 5.80205
455 2.11446
460 1.78801
465 1.81976
470 1.63609
475 1.54852
480 1.61685
485 1.90599
490 2.47649
495 3.87022
500 4.02542
505 2.79378
510 2.62918
515 2.06262
520 1.68594
525 1.50175
530 1.73126
535 1.5018
540 1.33464
545 1.07031
550 1.10849
555 1.06176
560 0.886521
565 0.722307
570 0.625588
575 0.53571
580 0.433517
585 0.310903
590 0.269347
595 0.22845
600 0.0930451
Ex : 443
200 0.0885682
205 0.0814129
210 0.0736532
215 0.0879729
220 0.0788368
225 0.046205
230 0.0999772
235 0.114325
240 0.0334518
245 0.0797242
250 0.046092
255 0.0293546
260 0.0345629
265 0.037459
270 0.0390901
275 0.0756548
280 0.0686824
285 0.0541402
290 0.0402949
295 0.0546361
300 0.0563248
305 0.0670736
310 0.0418243
315 0.0652197
320 0.112655
325 0.0741608
330 0.0557744
335 0.0376658
340 0.0540505
345 0.100789
350 0.0699883
355 0.072918
360 0.0815224
365 0.0679512
370 0.106231
375 0.118828
380 0.112727
385 0.191042
390 0.143153
395 0.234295
400 0.148577
405 0.230004
410 0.267319
415 0.470891
420 0.55862
425 1.17432
430 46.7444
435 787.91
440 1198.26
445 299.234
450 36.358
455 5.83794
460 1.91768
465 1.82655
470 1.95285
475 1.77534
480 1.46422
485 1.4955
490 1.64119
495 1.87582
500 3.0128
505 4.01432
510 2.83116
515 2.29956
520 2.21966
525 1.81612
530 1.50474
535 1.38485
540 1.35586
545 1.10968
550 1.1213
555 1.02654
560 0.919099
565 0.773572
570 0.619851
575 0.461912
580 0.38338
585 0.372776
590 0.311996
595 0.248167
600 0.335577
Ex : 448
200 0.0570291
205 0.0542573
210 0.102819
215 0.0622896
220 0.0659925
225 0.0781641
230 0.101533
235 0.0513346
240 0.0491894
245 0.106629
250 0.0600042
255 0.109022
260 0.0469577
265 0.0342007
270 0.0406861
275 0.0617975
280 0.0588941
285 0.0648253
290 0.044878
295 0.0718189
300 0.079362
305 0.0876454
310 0.0533036
315 0.0728151
320 0.0743509
325 0.109839
330 0.0550148
335 0.0743204
340 0.0921611
345 0.0868195
350 0.0571458
355 0.101532
360 0.117075
365 0.067548
370 0.0813295
375 0.0753748
380 0.113143
385 0.100194
390 0.0996163
395 0.179956
400 0.188391
405 0.168088
410 0.221919
415 0.298206
420 0.389756
425 0.573357
430 1.24635
435 49.0671
440 842.856
445 1269.29
450 314.453
455 38.1696
460 6.1909
465 2.05523
470 1.78289
475 1.84752
480 1.79452
485 1.70416
490 1.56804
495 1.42313
500 1.61889
505 2.415
510 3.55427
515 3.06633
520 2.16016
525 1.81918
530 1.64092
535 1.27945
540 1.12932
545 1.12056
550 0.946736
555 0.889885
560 0.84196
565 0.640696
570 0.67565
575 0.497712
580 0.406547
585 0.313018
590 0.296883
595 0.222009
600 0.603223
Ex : 453
200 0.0315718
205 0.0520188
210 0.0392089
215 0.0726724
220 0.0726771
225 0.0455306
230 0.0878043
235 0.0555519
240 0.0740948
245 0.0933562
250 0.043732
255 0.0349172
260 0.0612342
265 0.044794
270 0.0696752
275 0.040766
280 0.0547825
285 0.0622507
290 0.0696221
295 0.0539324
300 0.0817668
305 0.065609
310 0.0647914
315 0.068756
320 0.09853
325 0.121979
330 0.0707513
335 0.140931
340 0.0709865
345 0.0716789
350 0.0642668
355 0.0895849
360 0.102673
365 0.0612794
370 0.060506
375 0.0995415
380 0.148617
385 0.109299
390 0.0856568
395 0.103409
400 0.173877
405 0.130662
410 0.174571
415 0.1884
420 0.407103
425 0.485881
430 0.72664
435 1.20078
440 50.5172
445 900.371
450 1311.73
455 308.169
460 37.5419
465 6.20152
470 2.08427
475 1.75515
480 1.76392
485 1.673
490 1.29038
495 1.26023
500 1.28906
505 1.48073
510 1.84122
515 3.05605
520 3.16251
525 2.08708
530 1.93933
535 1.63068
540 1.38283
545 1.15307
550 1.09492
555 0.896539
560 0.790978
565 0.759772
570 0.657219
575 0.533608
580 0.481524
585 0.314342
590 0.268557
595 0.192862
600 0.506851
Ex : 458
200 0.0290675
205 0.0461998
210 0.0824388
215 0.0703725
220 0.0587614
225 0.0808389
230 0.0679437
235 0.0864422
240 0.0442181
245 0.104189
250 0.0805581
255 0.0667237
260 0.0463895
265 0.0519869
270 0.0874998
275 0.0737093
280 0.0811287
285 0.0570454
290 0.0774322
295 0.0572985
300 0.0490703
305 0.11981
310 0.0764477
315 0.0613239
320 0.0644847
325 0.0499941
330 0.0528061
335 0.0624273
340 0.115661
345 0.107414
350 0.101581
355 0.11767
360 0.097738
365 0.0883792
370 0.111278
375 0.0777628
380 0.0902487
385 0.124713
390 0.173327
395 0.101249
400 0.12359
405 0.117439
410 0.136671
415 0.181569
420 0.193457
425 0.368297
430 0.438927
435 0.651885
440 1.34244
445 56.4479
450 929.136
455 1379.56
460 336.256
465 41.0745
470 6.45713
475 2.07888
480 1.73196
485 1.85151
490 1.41372
495 1.26361
500 1.2435
505 1.19368
510 1.27643
515 1.48662
520 2.54458
525 3.1897
530 2.26164
535 1.68903
540 1.62249
545 1.26809
550 1.06842
555 0.942054
560 0.893625
565 0.757881
570 0.601271
575 0.586761
580 0.481144
585 0.368863
590 0.273011
595 0.268919
600 0.0421486
Ex : 463
200 0.0724248
205 0.0647581
210 0.0570896
215 0.0568993
220 0.0613265
225 0.0653828
230 0.0542023
235 0.0321602
240 0.0562791
245 0.0365133
250 0.0906931
255 0.0691279
260 0.0506407
265 0.0592618
270 0.0507231
275 0.0673565
280 0.0823008
285 0.0585379
290 0.0820374
295 0.0597715
300 0.111367
305 0.0969163
310 0.105762
315 0.0888708
320 0.0885618
325 0.0983088
330 0.105016
335 0.0797903
340 0.0999208
345 0.107669
350 0.0945613
355 0.0840254
360 0.129894
365 0.122236
370 0.107215
375 0.087804
380 0.0824356
385 0.0802772
390 0.102649
395 0.120735
400 0.105058
405 0.177654
410 0.147949
415 0.146328
420 0.201828
425 0.230113
430 0.284242
435 0.43971
440 0.681316
445 1.30965
450 55.3398
455 963.769
460 1473.87
465 356.124
470 43.1566
475 6.54679
480 2.08307
485 1.48831
490 1.55415
495 1.61836
500 1.43128
505 1.19136
510 1.21631
515 1.35291
520 1.41473
525 1.7987
530 2.96024
535 2.48539
540 1.70992
545 1.46533
550 1.31666
555 1.08565
560 0.934871
565 0.811308
570 0.700824
575 0.478791
580 0.362735
585 0.380952
590 0.321494
595 0.301611
600 0.222876
Ex : 468
200 0.0492547
205 0.0805839
210 0.0397689
215 0.0658768
220 0.0565823
225 0.0471673
230 0.0777512
235 0.0810299
240 0.0651641
245 0.0508767
250 0.0582191
255 0.0545202
260 0.046765
265 0.0289313
270 0.0517979
275 0.0777066
280 0.0717794
285 0.0534746
290 0.0271481
295 0.04678
300 0.0685199
305 0.0484403
310 0.0714945
315 0.064112
320 0.0514729
325 0.0684388
330 0.104432
335 0.0910176
340 0.0496347
345 0.0474214
350 0.0896361
355 0.0514299
360 0.0796883
365 0.0955933
370 0.0632087
375 0.0964237
380 0.114129
385 0.0826993
390 0.110605
395 0.0947672
400 0.125789
405 0.144488
410 0.132267
415 0.172695
420 0.18682
425 0.195302
430 0.217851
435 0.345323
440 0.422763
445 0.760688
450 1.37123
455 60.5286
460 984.986
465 1559.65
470 376.039
475 45.2087
480 6.94654
485 2.24789
490 1.60991
495 1.55294
500 1.37037
505 1.35559
510 1.12421
515 1.09886
520 1.22995
525 1.34029
530 1.68249
535 2.54118
540 2.52004
545 1.72235
550 1.46682
555 1.3094
560 0.977236
565 0.698237
570 0.617297
575 0.629951
580 0.514759
585 0.392554
590 0.316216
595 0.282825
600 0.144486
Ex : 473
200 0.048895
205 0.0514638
210 0.0366554
215 0.0451963
220 0.0473227
225 0.0608228
230 0.0954985
235 0.0645916
240 0.0489171
245 0.0371442
250 0.0597639
255 0.0901354
260 0.0755615
265 0.0796158
270 0.0535576
275 0.0524921
280 0.0705956
285 0.059567
290 0.0799609
295 0.0428355
300 0.0568679
305 0.0965
310 0.100509
315 0.067796
320 0.0693928
325 0.0454144
330 0.0906203
335 0.109397
340 0.0722367
345 0.0817478
350 0.0802407
355 0.0846378
360 0.107346
365 0.0662072
370 0.0404388
375 0.059878
380 0.109073
385 0.100465
390 0.126003
395 0.130326
400 0.174611
405 0.155356
410 0.121989
415 0.144347
420 0.152378
425 0.207135
430 0.211349
435 0.250957
440 0.339297
445 0.477891
450 0.754756
455 1.48582
460 70.9895
465 1089.03
470 1530.51
475 354.865
480 42.7663
485 6.4421
490 2.03414
495 1.35389
500 1.41869
505 1.55741
510 1.24274
515 1.12738
520 1.06968
525 1.13017
530 1.11312
535 1.30636
540 2.1674
545 2.73494
550 1.73167
555 1.32662
560 1.16949
565 0.990396
570 0.852039
575 0.602666
580 0.476257
585 0.394442
590 0.361178
595 0.356878
600 0.084534
Ex : 478
200 0.0717507
205 0.0763115
210 0.0486057
215 0.0812655
220 0.0651458
225 0.124141
230 0.114772
235 0.0557089
240 0.051039
245 0.0784844
250 0.0624065
255 0.0738172
260 0.0588905
265 0.0419521
270 0.06493
275 0.0478669
280 0.107673
285 0.0747759
290 0.0369328
295 0.0997965
300 0.0704268
305 0.0776419
310 0.0822505
315 0.0680819
320 0.0807965
325 0.068061
330 0.104861
335 0.095384
340 0.0916417
345 0.0928
350 0.0743143
355 0.11026
360 0.0778322
365 0.116491
370 0.0757203
375 0.0614422
380 0.0844664
385 0.108544
390 0.0886174
395 0.115078
400 0.0920581
405 0.106481
410 0.102121
415 0.164371
420 0.147082
425 0.171661
430 0.227165
435 0.18136
440 0.272872
445 0.328764
450 0.484613
455 0.9103
460 1.84115
465 77.8096
470 1136.92
475 1589.8
480 384.029
485 46.3157
490 6.95073
495 2.10838
500 1.28764
505 1.3045
510 1.31752
515 1.15455
520 1.09124
525 1.16783
530 1.07102
535 1.05342
540 1.17382
545 1.59475
550 2.27005
555 2.14973
560 1.30849
565 1.10133
570 0.907542
575 0.617013
580 0.483369
585 0.394059
590 0.30925
595 0.309051
600 0.187001
Ex : 483
200 0.0557112
205 0.0419835
210 0.0475165
215 0.0407221
220 0.0690141
225 0.0652109
230 0.0641199
235 0.044697
240 0.0782429
245 0.0717608
250 0.0790416
255 0.0723844
260 0.0707325
265 0.0778312
270 0.0539044
275 0.0882119
280 0.0568941
285 0.0621385
290 0.0996729
295 0.140289
300 0.0475882
305 0.0951247
310 0.0359643
315 0.0875933
320 0.0933883
325 0.145852
330 0.0626127
335 0.077032
340 0.0554859
345 0.0710985
350 0.0995303
355 0.0616476
360 0.0907045
365 0.0775958
370 0.097606
375 0.0928013
380 0.0912516
385 0.12
390 0.103306
395 0.0890032
400 0.0899444
405 0.169075
410 0.161662
415 0.126053
420 0.155727
425 0.175563
430 0.156129
435 0.205449
440 0.236963
445 0.283348
450 0.408099
455 0.564174
460 1.001
465 1.88823
470 62.2064
475 1117.76
480 1710.09
485 412.678
490 49.4754
495 7.18742
500 1.94411
505 1.20953
510 1.20882
515 1.2527
520 1.29195
525 1.23368
530 1.04548
535 0.917057
540 1.05894
545 1.03288
550 1.22771
555 1.98089
560 2.14447
565 1.38045
570 0.996297
575 0.74937
580 0.582856
585 0.441023
590 0.335454
595 0.30878
600 0.49978
Ex : 488
200 0.0865437
205 0.100529
210 0.0878522
215 0.0581498
220 0.0753456
225 0.0983656
230 0.07279
235 0.0973109
240 0.0697475
245 0.0792143
250 0.0614316
255 0.0375298
260 0.0624583
265 0.0455852
270 0.0703794
275 0.0691545
280 0.0820599
285 0.0626289
290 0.118865
295 0.0513886
300 0.0923745
305 0.0488612
310 0.0733033
315 0.0870214
320 0.07227
325 0.0762745
330 0.062362
335 0.119639
340 0.0823618
345 0.0843545
350 0.0908775
355 0.0742297
360 0.105269
365 0.0717379
370 0.0988952
375 0.0666979
380 0.140125
385 0.111463
390 0.157801
395 0.110569
400 0.111259
405 0.129576
410 0.113557
415 0.133558
420 0.147008
425 0.169658
430 0.187987
435 0.20704
440 0.190812
445 0.221645
450 0.284322
455 0.419191
460 0.692192
465 1.32828
470 1.90558
475 76.0917
480 1224.44
485 1712.24
490 405.615
495 48.4675
500 6.97366
505 2.08659
510 1.25848
515 1.29443
520 1.30482
525 1.39471
530 1.22552
535 1.07712
540 1.01138
545 0.939604
550 0.801535
555 1.02602
560 1.43955
565 1.80528
570 1.32876
575 0.850007
580 0.63444
585 0.546105
590 0.395667
595 0.355581
600 0.0947904
Ex : 493
200 0.0917128
205 0.125331
210 0.105938
215 0.0556606
220 0.122052
225 0.0844865
230 0.0971236
235 0.0811261
240 0.0627173
245 0.0743957
250 0.104864
255 0.0713937
260 0.0572682
265 0.0731996
270 0.0996027
275 0.076216
280 0.0628811
285 0.0831642
290 0.10976
295 0.0843446
300 0.0477673
305 0.115327
310 0.070799
315 0.0751687
320 0.122376
325 0.0855983
330 0.084579
335 0.12236
340 0.114961
345 0.079254
350 0.0913402
355 0.0508627
360 0.0664336
365 0.0877568
370 0.17666
375 0.0871061
380 0.0978894
385 0.114318
390 0.128531
395 0.114066
400 0.128331
405 0.166186
410 0.109197
415 0.114609
420 0.136003
425 0.147755
430 0.179457
435 0.132272
440 0.158791
445 0.298809
450 0.298385
455 0.330968
460 0.431942
465 0.640898
470 0.999695
475 1.76767
480 72.2086
485 1226.77
490 1822.26
495 419.123
500 50.4056
505 7.26912
510 2.04276
515 1.33423
520 1.25454
525 1.28789
530 1.24006
535 1.13662
540 1.01619
545 0.751059
550 0.859781
555 0.870541
560 0.675229
565 1.03693
570 1.57656
575 1.31393
580 0.741074
585 0.545592
590 0.510537
595 0.416411
600 0.324325
Ex : 498
200 0.140127
205 0.0911035
210 0.0881262
215 0.0667362
220 0.050508
225 0.0962163
230 0.0679563
235 0.110107
240 0.130874
245 0.0737086
250 0.0710754
255 0.099795
260 0.0514846
265 0.0555011
270 0.0506703
275 0.0441968
280 0.0551215
285 0.112963
290 0.0867938
295 0.132389
300 0.100543
305 0.10401
310 0.0929063
315 0.101952
320 0.081972
325 0.0766775
330 0.104797
335 0.140976
340 0.101468
345 0.110467
350 0.105081
355 0.10715
360 0.121124
365 0.142394
370 0.115899
375 0.108177
380 0.112094
385 0.11082
390 0.12074
395 0.13658
400 0.129825
405 0.102147
410 0.155484
415 0.210492
420 0.157423
425 0.149834
430 0.142305
435 0.161132
440 0.203998
445 0.155213
450 0.272396
455 0.250997
460 0.384477
465 0.503209
470 0.754372
475 1.18766
480 1.81601
485 87.9491
490 1321.13
495 1800.68
500 417.684
505 49.9807
510 7.35668
515 2.20291
520 1.31374
525 1.12549
530 1.37485
535 1.29184
540 0.976488
545 0.899094
550 0.918683
555 0.743033
560 0.707615
565 0.788316
570 0.721064
575 1.13398
580 1.08724
585 0.823138
590 0.517715
595 0.450872
600 0.183686
Ex : 503
200 0.069709
205 0.101015
210 0.123047
215 0.110664
220 0.075172
225 0.0621784
230 0.084026
235 0.128876
240 0.111513
245 0.16561
250 0.0776381
255 0.106666
260 0.0882882
265 0.125435
270 0.128407
275 0.054971
280 0.124973
285 0.0652044
290 0.115873
295 0.0970836
300 0.111766
305 0.0837161
310 0.0878557
315 0.0881511
320 0.0950483
325 0.0867523
330 0.0775407
335 0.0784347
340 0.100988
345 0.141645
350 0.140022
355 0.104218
360 0.101296
365 0.131858
370 0.0979783
375 0.0817372
380 0.15009
385 0.100035
390 0.128525
395 0.115149
400 0.169199
405 0.116582
410 0.138765
415 0.184061
420 0.187594
425 0.218908
430 0.205728
435 0.223624
440 0.222122
445 0.201972
450 0.227695
455 0.201819
460 0.350049
465 0.399303
470 0.42023
475 0.606217
480 1.27508
485 1.99907
490 79.3945
495 1314.57
500 1860.68
505 430.357
510 51.8016
515 7.44245
520 2.20253
525 1.33288
530 1.28498
535 1.39052
540 1.173
545 1.00388
550 0.912292
555 0.750317
560 0.704472
565 0.570617
570 0.620703
575 0.628097
580 0.794293
585 1.00002
590 0.666635
595 0.424153
600 0.138857
Ex : 508
200 0.0610513
205 0.0440262
210 0.121458
215 0.0575498
220 0.117167
225 0.111746
230 0.0456257
235 0.123948
240 0.128266
245 0.171281
250 0.0960658
255 0.129332
260 0.0790153
265 0.114305
270 0.0951695
275 0.112883
280 0.176659
285 0.0968152
290 0.0819679
295 0.0980354
300 0.056508
305 0.0626126
310 0.105248
315 0.0752771
320 0.0713948
325 0.106462
330 0.0912719
335 0.0858943
340 0.121533
345 0.173323
350 0.0757757
355 0.095692
360 0.114366
365 0.0559077
370 0.0842573
375 0.166405
380 0.0770082
385 0.1262
390 0.153159
395 0.193042
400 0.151557
405 0.118863
410 0.170001
415 0.157322
420 0.122607
425 0.0817724
430 0.160604
435 0.177715
440 0.136283
445 0.14412
450 0.224132
455 0.253439
460 0.195179
465 0.277889
470 0.307987
475 0.523141
480 0.692105
485 1.08968
490 1.99796
495 86.503
500 1330.2
505 1867.52
510 451.482
515 54.0343
520 7.76549
525 2.23153
530 1.2287
535 1.03605
540 1.06617
545 1.10238
550 0.981189
555 0.671501
560 0.667023
565 0.693179
570 0.611382
575 0.534629
580 0.399582
585 0.602006
590 0.739086
595 0.584265
600 0.365935
Ex : 513
200 0.0883996
205 0.146752
210 0.0959352
215 0.058176
220 0.0965336
225 0.105654
230 0.078732
235 0.07384
240 0.104442
245 0.126405
250 0.0744034
255 0.0403626
260 0.0955088
265 0.102192
270 0.111827
275 0.078178
280 0.0869852
285 0.0962895
290 0.0818179
295 0.0553018
300 0.0994832
305 0.136223
310 0.0656321
315 0.0656258
320 0.0824974
325 0.121087
330 0.0623149
335 0.0950852
340 0.10672
345 0.101724
350 0.0671949
355 0.123424
360 0.132272
365 0.0755865
370 0.0919538
375 0.0766493
380 0.121632
385 0.0919537
390 0.134393
395 0.0918024
400 0.114641
405 0.182226
410 0.0832642
415 0.0760748
420 0.138231
425 0.152777
430 0.135044
435 0.222281
440 0.123375
445 0.180178
450 0.211346
455 0.179651
460 0.172048
465 0.284552
470 0.353955
475 0.383032
480 0.502628
485 0.740823
490 1.20299
495 1.99557
500 79.7887
505 1321.88
510 1923.02
515 470.798
520 56.2229
525 8.0229
530 2.30078
535 1.4071
540 1.13081
545 1.12669
550 1.07147
555 0.908198
560 0.672089
565 0.67361
570 0.455702
575 0.497151
580 0.497932
585 0.409439
590 0.350289
595 0.481968
600 0.708057
Ex : 518
200 0.070453
205 0.0421374
210 0.0743718
215 0.0569971
220 0.150607
225 0.112169
230 0.090355
235 0.119686
240 0.090145
245 0.0558829
250 0.104519
255 0.104774
260 0.063684
265 0.0797509
270 0.112958
275 0.09312
280 0.144205
285 0.115082
290 0.0563851
295 0.131326
300 0.0481413
305 0.146058
310 0.126909
315 0.103184
320 0.0595375
325 0.100906
330 0.115204
335 0.0737136
340 0.106584
345 0.132639
350 0.0770963
355 0.0379989
360 0.134784
365 0.137224
370 0.124588
375 0.0843842
380 0.11842
385 0.107866
390 0.0933599
395 0.118401
400 0.0863011
405 0.156346
410 0.0957726
415 0.103001
420 0.131313
425 0.137174
430 0.156893
435 0.122107
440 0.155119
445 0.162359
450 0.156526
455 0.201179
460 0.209918
465 0.301806
470 0.375263
475 0.25209
480 0.344933
485 0.458979
490 0.714133
495 1.07705
500 1.93268
505 81.1917
510 1281.37
515 1904.27
520 469.526
525 56.1598
530 8.04787
535 2.2338
540 1.38195
545 0.909275
550 1.01499
555 0.809222
560 0.742585
565 0.61085
570 0.5312
575 0.490563
580 0.357648
585 0.365117
590 0.296376
595 0.342674
600 0.629798
Ex : 523
200 0.0777154
205 0.085634
210 0.0742768
215 0.116389
220 0.0813012
225 0.136634
230 0.130303
235 0.103829
240 0.12596
245 0.117626
250 0.0980666
255 0.0816953
260 0.11048
265 0.0859575
270 0.0815932
275 0.102748
280 0.0942454
285 0.0441247
290 0.121613
295 0.0967063
300 0.123577
305 0.0528644
310 0.0826883
315 0.101491
320 0.0865366
325 0.118982
330 0.105387
335 0.135607
340 0.12758
345 0.105443
350 0.179
355 0.191525
360 0.131328
365 0.0672352
370 0.190105
375 0.121142
380 0.128121
385 0.1048
390 0.124124
395 0.149881
400 0.183858
405 0.150637
410 0.183774
415 0.134994
420 0.131425
425 0.114939
430 0.143335
435 0.157778
440 0.136967
445 0.228406
450 0.144159
455 0.250296
460 0.262115
465 0.248393
470 0.210149
475 0.214063
480 0.320779
485 0.462666
490 0.484428
495 0.639376
500 0.968709
505 1.78848
510 76.1461
515 1246.02
520 1910.84
525 495.112
530 59.1149
535 8.28708
540 2.01025
545 1.21497
550 0.816205
555 0.716615
560 0.891839
565 0.657001
570 0.601374
575 0.463707
580 0.51669
585 0.385891
590 0.272253
595 0.250507
600 0.146667
Ex : 528
200 0.0648701
205 0.104203
210 0.0576151
215 0.134476
220 0.0785331
225 0.0794934
230 0.107257
235 0.10511
240 0.0651987
245 0.144688
250 0.0752476
255 0.0852358
260 0.0788746
265 0.0527965
270 0.159297
275 0.104251
280 0.0984734
285 0.0723083
290 0.0840894
295 0.0926981
300 0.0587976
305 0.106166
310 0.0714156
315 0.11542
320 0.0945793
325 0.107153
330 0.11323
335 0.161728
340 0.133066
345 0.0653872
350 0.0943981
355 0.0986786
360 0.101222
365 0.110665
370 0.111981
375 0.106532
380 0.22526
385 0.156112
390 0.145947
395 0.135456
400 0.122783
405 0.0996883
410 0.12722
415 0.1475
420 0.138589
425 0.14329
430 0.136369
435 0.152442
440 0.2134
445 0.161785
450 0.218314
455 0.108212
460 0.134016
465 0.164414
470 0.219714
475 0.274039
480 0.208709
485 0.284341
490 0.362845
495 0.558615
500 0.604913
505 1.02301
510 1.65186
515 70.7487
520 1243.22
525 1890.8
530 472.613
535 56.3472
540 7.81854
545 1.91252
550 1.11601
555 0.796917
560 0.634814
565 0.651239
570 0.579077
575 0.536028
580 0.366969
585 0.403555
590 0.357627
595 0.328945
600 0.288676
Ex : 533
200 0.062374
205 0.0604646
210 0.0880982
215 0.129166
220 0.110075
225 0.136975
230 0.0765286
235 0.0827183
240 0.0674456
245 0.18076
250 0.0919072
255 0.139718
260 0.137231
265 0.112736
270 0.151629
275 0.0623141
280 0.0792721
285 0.0894933
290 0.0516122
295 0.171247
300 0.0709022
305 0.0792169
310 0.105158
315 0.136033
320 0.0843461
325 0.115817
330 0.0854787
335 0.0942238
340 0.0754984
345 0.0683821
350 0.108302
355 0.104925
360 0.108452
365 0.139552
370 0.232211
375 0.144181
380 0.124695
385 0.0761432
390 0.168378
395 0.0973454
400 0.084273
405 0.178804
410 0.100737
415 0.236657
420 0.183425
425 0.127932
430 0.0908103
435 0.0950593
440 0.100799
445 0.210091
450 0.190183
455 0.169155
460 0.171869
465 0.276767
470 0.192449
475 0.269857
480 0.30924
485 0.326352
490 0.335842
495 0.38884
500 0.355614
505 0.604009
510 1.1472
515 1.93087
520 71.4767
525 1202.2
530 1868.9
535 486.862
540 57.8394
545 7.81879
550 1.89868
555 1.07151
560 0.705309
565 0.566991
570 0.527207
575 0.61035
580 0.420487
585 0.327374
590 0.323742
595 0.309943
600 0.0352703
Ex : 538
200 0.120292
205 0.120808
210 0.155013
215 0.0959841
220 0.184038
225 0.093305
230 0.125336
235 0.121779
240 0.0674204
245 0.089999
250 0.0710708
255 0.11327
260 0.066136
265 0.146688
270 0.0562262
275 0.0900157
280 0.143151
285 0.101466
290 0.064832
295 0.18913
300 0.185333
305 0.0938876
310 0.0757797
315 0.137102
320 0.183615
325 0.101385
330 0.122589
335 0.159203
340 0.163533
345 0.183722
350 0.120456
355 0.171772
360 0.186633
365 0.0924809
370 0.137802
375 0.217427
380 0.155033
385 0.0842601
390 0.148682
395 0.170674
400 0.122884
405 0.0895703
410 0.0688412
415 0.149783
420 0.143049
425 0.163747
430 0.138694
435 0.154597
440 0.183849
445 0.202974
450 0.13328
455 0.13963
460 0.214717
465 0.209916
470 0.219035
475 0.23298
480 0.248959
485 0.21193
490 0.249492
495 0.311838
500 0.324133
505 0.513272
510 0.51467
515 1.08058
520 1.84262
525 60.2004
530 1149.47
535 1867.16
540 504.021
545 60.0551
550 8.17649
555 1.81504
560 0.996532
565 0.667772
570 0.475806
575 0.57077
580 0.435958
585 0.386143
590 0.372706
595 0.304156
600 0.118309
Ex : 543
200 0.116878
205 0.134992
210 0.0605737
215 0.0997074
220 0.101531
225 0.0884598
230 0.124807
235 0.11334
240 0.108912
245 0.0918883
250 0.112061
255 0.0824788
260 0.0916133
265 0.180301
270 0.0917209
275 0.125629
280 0.0975261
285 0.0886662
290 0.106326
295 0.09765
300 0.050731
305 0.0870902
310 0.136359
315 0.0902158
320 0.072266
325 0.0886691
330 0.0730237
335 0.0724484
340 0.0839204
345 0.0894243
350 0.081514
355 0.0907116
360 0.069173
365 0.164602
370 0.1605
375 0.102574
380 0.111243
385 0.0896995
390 0.144816
395 0.170915
400 0.204486
405 0.14085
410 0.257548
415 0.142264
420 0.199353
425 0.19879
430 0.190518
435 0.189733
440 0.173918
445 0.123296
450 0.188845
455 0.157291
460 0.162411
465 0.112354
470 0.171501
475 0.223386
480 0.24399
485 0.272427
490 0.237552
495 0.400509
500 0.218384
505 0.369987
510 0.431971
515 0.611305
520 0.854331
525 1.54248
530 55.4058
535 1106.57
540 1872.6
545 513.181
550 61.3085
555 8.07014
560 1.68975
565 0.802183
570 0.438447
575 0.343395
580 0.421221
585 0.353235
590 0.284871
595 0.342892
600 1.01034
Ex : 548
200 0.0920011
205 0.0761141
210 0.186291
215 0.146547
220 0.150879
225 0.251494
230 0.147172
235 0.055743
240 0.134103
245 0.100828
250 0.0783204
255 0.0790071
260 0.119461
265 0.099403
270 0.0679612
275 0.1085
280 0.0869067
285 0.0934478
290 0.142248
295 0.107838
300 0.0935039
305 0.161742
310 0.0904892
315 0.0547238
320 0.126436
325 0.122761
330 0.117485
335 0.105659
340 0.0793303
345 0.0832657
350 0.140683
355 0.118194
360 0.119702
365 0.154745
370 0.166063
375 0.130619
380 0.111512
385 0.0930756
390 0.0823638
395 0.144517
400 0.184188
405 0.130044
410 0.12286
415 0.136212
420 0.146985
425 0.0947308
430 0.24109
435 0.186127
440 0.134627
445 0.150944
450 0.138621
455 0.158348
460 0.109451
465 0.200364
470 0.158222
475 0.132307
480 0.220514
485 0.265298
490 0.208869
495 0.261136
500 0.286559
505 0.257111
510 0.283281
515 0.447309
520 0.632645
525 0.927591
530 1.47479
535 59.5195
540 1103.9
545 1811.36
550 501.393
555 59.7232
560 7.7817
565 1.63856
570 0.743925
575 0.462518
580 0.415883
585 0.456979
590 0.364593
595 0.288248
600 0.0328015
Ex : 553
200 0.107894
205 0.106501
210 0.0720748
215 0.130791
220 0.0666566
225 0.0670019
230 0.117852
235 0.0709388
240 0.182996
245 0.262859
250 0.0833999
255 0.117252
260 0.187425
265 0.17619
270 0.106607
275 0.135498
280 0.100614
285 0.0531252
290 0.137032
295 0.101735
300 0.108983
305 0.117105
310 0.194007
315 0.161211
320 0.0445391
325 0.178527
330 0.111186
335 0.113167
340 0.151316
345 0.224059
350 0.113703
355 0.0812149
360 0.100857
365 0.162799
370 0.10796
375 0.0805319
380 0.114829
385 0.173716
390 0.176061
395 0.128786
400 0.125399
405 0.104456
410 0.140586
415 0.0890244
420 0.13784
425 0.129237
430 0.159154
435 0.147219
440 0.129321
445 0.178726
450 0.175634
455 0.153515
460 0.163994
465 0.143788
470 0.177513
475 0.23668
480 0.174278
485 0.245336
490 0.213693
495 0.242914
500 0.282101
505 0.243139
510 0.315851
515 0.332654
520 0.395795
525 0.581185
530 0.960631
535 1.53495
540 52.2945
545 1045.35
550 1788.74
555 502.786
560 59.8285
565 7.84304
570 1.59027
575 0.716069
580 0.543022
585 0.419548
590 0.305312
595 0.370911
600 0.128476
Ex : 558
200 0.119611
205 0.091112
210 0.0760465
215 0.102438
220 0.064122
225 0.098857
230 0.0903609
235 0.0718967
240 0.0623406
245 0.160376
250 0.118164
255 0.117591
260 0.111516
265 0.0894071
270 0.129473
275 0.107241
280 0.119023
285 0.0544461
290 0.0648502
295 0.0936622
300 0.100415
305 0.0536581
310 0.242868
315 0.164574
320 0.127605
325 0.0966178
330 0.136979
335 0.144523
340 0.11872
345 0.152024
350 0.162369
355 0.152141
360 0.180188
365 0.123198
370 0.125916
375 0.132137
380 0.11468
385 0.181345
390 0.0923193
395 0.155065
400 0.124094
405 0.13595
410 0.13621
415 0.103952
420 0.147749
425 0.150607
430 0.131399
435 0.116744
440 0.0780535
445 0.0676775
450 0.192338
455 0.138336
460 0.131435
465 0.286249
470 0.310932
475 0.186793
480 0.182714
485 0.255865
490 0.151633
495 0.133236
500 0.249028
505 0.169049
510 0.18986
515 0.348217
520 0.350199
525 0.420116
530 0.565413
535 0.931671
540 1.50477
545 48.3466
550 987.841
555 1754.72
560 498.186
565 59.4654
570 7.82395
575 1.49036
580 0.601457
585 0.335703
590 0.415943
595 0.263243
600 0.029956
Ex : 563
200 0.0435566
205 0.0488598
210 0.0704565
215 0.108692
220 0.138472
225 0.0986341
230 0.121431
235 0.0817103
240 0.119539
245 0.162353
250 0.183272
255 0.0789412
260 0.0859865
265 0.0793989
270 0.0917494
275 0.175855
280 0.104775
285 0.141719
290 0.0979387
295 0.0708063
300 0.0353315
305 0.172085
310 0.105526
315 0.0747734
320 0.0909247
325 0.112622
330 0.112139
335 0.19198
340 0.107135
345 0.136843
350 0.0802499
355 0.17985
360 0.133511
365 0.139026
370 0.105632
375 0.108539
380 0.122942
385 0.14437
390 0.258474
395 0.124249
400 0.229025
405 0.135463
410 0.139473
415 0.243219
420 0.180338
425 0.231778
430 0.168271
435 0.149065
440 0.101567
445 0.0862011
450 0.150258
455 0.175569
460 0.210991
465 0.134018
470 0.195534
475 0.25463
480 0.145177
485 0.135802
490 0.204116
495 0.193729
500 0.160301
505 0.228525
510 0.204447
515 0.256406
520 0.364983
525 0.393788
530 0.377256
535 0.622967
540 0.934588
545 1.47647
550 47.6574
555 965.519
560 1677.53
565 484.741
570 57.7104
575 7.19311
580 1.39952
585 0.6387
590 0.382927
595 0.354277
600 0.0403154
Ex : 568
200 0.150946
205 0.103179
210 0.113736
215 0.113901
220 0.0584711
225 0.106966
230 0.124909
235 0.0958888
240 0.100717
245 0.100385
250 0.0985955
255 0.11007
260 0.139185
265 0.138701
270 0.0671577
275 0.0607651
280 0.165259
285 0.064846
290 0.105253
295 0.074648
300 0.0830468
305 0.0836679
310 0.106409
315 0.11623
320 0.0788713
325 0.0788231
330 0.135333
335 0.138542
340 0.220996
345 0.238445
350 0.131079
355 0.125521
360 0.10664
365 0.0988858
370 0.106832
375 0.0781642
380 0.108125
385 0.117163
390 0.144347
395 0.207506
400 0.159921
405 0.108272
410 0.0968456
415 0.161703
420 0.184342
425 0.218982
430 0.140655
435 0.0715657
440 0.194771
445 0.0916379
450 0.146247
455 0.141502
460 0.116096
465 0.13412
470 0.156613
475 0.192281
480 0.134905
485 0.215683
490 0.195522
495 0.176977
500 0.221814
505 0.153499
510 0.268465
515 0.264188
520 0.263883
525 0.356219
530 0.402916
535 0.349743
540 0.516309
545 0.822181
550 1.22014
555 35.7347
560 870.793
565 1636.01
570 494.353
575 58.8035
580 7.49667
585 1.32883
590 0.567678
595 0.307079
600 0.0349444
Ex : 573
200 0.146957
205 0.120431
210 0.109556
215 0.0931214
220 0.113173
225 0.0818278
230 0.119735
235 0.102402
240 0.14986
245 0.0693001
250 0.08539
255 0.0751841
260 0.11407
265 0.148184
270 0.0611444
275 0.12313
280 0.163007
285 0.122592
290 0.123645
295 0.123039
300 0.19528
305 0.130528
310 0.146312
315 0.198774
320 0.0733165
325 0.0737666
330 0.0742121
335 0.141524
340 0.149475
345 0.19021
350 0.22549
355 0.127439
360 0.119212
365 0.156593
370 0.0964619
375 0.192733
380 0.151489
385 0.197316
390 0.137787
395 0.0724386
400 0.158616
405 0.240557
410 0.158015
415 0.124427
420 0.162001
425 0.141961
430 0.209313
435 0.182287
440 0.252242
445 0.123059
450 0.227861
455 0.0974115
460 0.221232
465 0.196644
470 0.185715
475 0.180019
480 0.236702
485 0.161441
490 0.278878
495 0.208096
500 0.204856
505 0.278088
510 0.185375
515 0.22948
520 0.253538
525 0.349451
530 0.258647
535 0.326388
540 0.370195
545 0.484305
550 0.731579
555 1.33696
560 31.6605
565 760.46
570 1515.68
575 464.565
580 55.4656
585 6.85658
590 1.21617
595 0.519736
600 0.100778
Ex : 578
200 0.0817856
205 0.0747147
210 0.0742116
215 0.081044
220 0.0912407
225 0.145053
230 0.139517
235 0.125486
240 0.185644
245 0.121722
250 0.14093
255 0.13114
260 0.115243
265 0.0833416
270 0.0952269
275 0.0610513
280 0.135818
285 0.149189
290 0.154928
295 0.205996
300 0.194453
305 0.0927738
310 0.238551
315 0.179599
320 0.0815048
325 0.108325
330 0.15976
335 0.131166
340 0.0982545
345 0.0782845
350 0.127293
355 0.131523
360 0.16165
365 0.133784
370 0.207242
375 0.152649
380 0.188309
385 0.0842077
390 0.0689936
395 0.149164
400 0.132136
405 0.12152
410 0.204593
415 0.177398
420 0.131309
425 0.153667
430 0.139611
435 0.171822
440 0.181931
445 0.113444
450 0.2207
455 0.0969181
460 0.191476
465 0.180691
470 0.257039
475 0.171311
480 0.176783
485 0.176241
490 0.103536
495 0.138613
500 0.117216
505 0.343106
510 0.179009
515 0.239481
520 0.130068
525 0.225539
530 0.185367
535 0.232364
540 0.277008
545 0.381926
550 0.348598
555 0.566991
560 1.12531
565 27.8011
570 670.373
575 1320.56
580 399.559
585 47.4832
590 6.03567
595 1.0044
600 0.361469
Ex : 583
200 0.136007
205 0.150435
210 0.236865
215 0.131381
220 0.144223
225 0.113336
230 0.144097
235 0.224722
240 0.113036
245 0.156475
250 0.188333
255 0.158335
260 0.127048
265 0.103665
270 0.110815
275 0.0840978
280 0.256984
285 0.249156
290 0.0866025
295 0.205191
300 0.116721
305 0.0838358
310 0.168377
315 0.105554
320 0.125501
325 0.130483
330 0.195444
335 0.155141
340 0.1262
345 0.155549
350 0.179441
355 0.151237
360 0.23745
365 0.110079
370 0.135536
375 0.123416
380 0.0820873
385 0.0702631
390 0.131226
395 0.0911543
400 0.16202
405 0.114328
410 0.133578
415 0.0684592
420 0.152042
425 0.124054
430 0.135643
435 0.139412
440 0.0862576
445 0.121113
450 0.222654
455 0.125325
460 0.168143
465 0.157501
470 0.251135
475 0.175403
480 0.256482
485 0.203801
490 0.16039
495 0.191773
500 0.18472
505 0.20415
510 0.207254
515 0.270447
520 0.158187
525 0.227306
530 0.149709
535 0.217031
540 0.241451
545 0.263947
550 0.431625
555 0.517993
560 0.560948
565 1.07017
570 23.6103
575 600.59
580 1148.53
585 332.525
590 39.476
595 5.09442
600 1.26284
Ex : 588
200 0.158661
205 0.123145
210 0.0802285
215 0.092337
220 0.219718
225 0.0915991
230 0.186138
235 0.0986336
240 0.0862499
245 0.110728
250 0.0953004
255 0.0691925
260 0.0817629
265 0.0709063
270 0.0810266
275 0.0924234
280 0.13573
285 0.144783
290 0.0895154
295 0.107462
300 0.0998889
305 0.0920295
310 0.0658215
315 0.0781453
320 0.0892592
325 0.0752396
330 0.15977
335 0.0795505
340 0.0976264
345 0.123123
350 0.114614
355 0.100408
360 0.0900148
365 0.284076
370 0.156358
375 0.126886
380 0.199999
385 0.122762
390 0.0963107
395 0.160052
400 0.0857736
405 0.0948685
410 0.101451
415 0.106285
420 0.173997
425 0.142431
430 0.0755375
435 0.173482
440 0.155914
445 0.159311
450 0.158472
455 0.122302
460 0.0930179
465 0.145311
470 0.138797
475 0.175457
480 0.132003
485 0.231786
490 0.134973
495 0.214616
500 0.215876
505 0.197314
510 0.162005
515 0.118926
520 0.129206
525 0.226447
530 0.27739
535 0.22936
540 0.265357
545 0.310164
550 0.325798
555 0.327077
560 0.398008
565 0.456126
570 0.73048
575 19.7388
580 505.254
585 978.147
590 291.787
595 34.6957
600 4.34283
Ex : 593
200 0.092029
205 0.14333
210 0.146093
215 0.0886319
220 0.0754022
225 0.0685771
230 0.149466
235 0.0560798
240 0.0915375
245 0.183948
250 0.127568
255 0.0417796
260 0.0664368
265 0.0820677
270 0.15137
275 0.0785655
280 0.176075
285 0.179479
290 0.128151
295 0.170649
300 0.0630348
305 0.113956
310 0.0978222
315 0.0809078
320 0.0802386
325 0.0949445
330 0.162278
335 0.0821701
340 0.0558994
345 0.0685905
350 0.136087
355 0.138057
360 0.0816423
365 0.143167
370 0.0964316
375 0.186275
380 0.149579
385 0.115938
390 0.102382
395 0.170005
400 0.204252
405 0.18276
410 0.180972
415 0.127797
420 0.0871666
425 0.121801
430 0.20617
435 0.106731
440 0.22849
445 0.0984825
450 0.1367
455 0.189277
460 0.0999228
465 0.0955327
470 0.139542
475 0.179377
480 0.107551
485 0.1193
490 0.176582
495 0.0914296
500 0.181667
505 0.226921
510 0.164772
515 0.231174
520 0.151475
525 0.140191
530 0.156101
535 0.211366
540 0.17779
545 0.182165
550 0.264675
555 0.31306
560 0.258345
565 0.29074
570 0.545863
575 0.74797
580 16.9435
585 447.262
590 839.339
595 252.297
600 38.9318
Ex : 598
200 0.0885208
205 0.146361
210 0.0996363
215 0.155465
220 0.141658
225 0.0443336
230 0.206246
235 0.0837848
240 0.104739
245 0.272587
250 0.226896
255 0.0867496
260 0.105568
265 0.0887138
270 0.185073
275 0.120678
280 0.0974297
285 0.110248
290 0.15625
295 0.0889209
300 0.107026
305 0.143656
310 0.0959528
315 0.209963
320 0.191015
325 0.209592
330 0.16307
335 0.173515
340 0.153633
345 0.139218
350 0.0996634
355 0.157076
360 0.19319
365 0.121891
370 0.0970266
375 0.134116
380 0.107709
385 0.13216
390 0.200853
395 0.134563
400 0.221964
405 0.183449
410 0.120322
415 0.0984227
420 0.133628
425 0.145461
430 0.199152
435 0.15456
440 0.139271
445 0.193733
450 0.111277
455 0.107408
460 0.175105
465 0.254257
470 0.142033
475 0.215639
480 0.182771
485 0.157607
490 0.111406
495 0.279365
500 0.156666
505 0.157648
510 0.17394
515 0.142585
520 0.118512
525 0.185747
530 0.126869
535 0.239028
540 0.251394
545 0.191521
550 0.249104
555 0.262174
560 0.222531
565 0.309146
570 0.403459
575 0.506596
580 0.778177
585 17.1436
590 399.164
595 726.201
600 465.122
Ex : 603
200 0.156976
205 0.0867117
210 0.0877774
215 0.134192
220 0.18836
225 0.140792
230 0.0831367
235 0.0743134
240 0.0772879
245 0.206749
250 0.160355
255 0.0849153
260 0.105346
265 0.13879
270 0.150743
275 0.164855
280 0.171517
285 0.100464
290 0.0562833
295 0.0678634
300 0.130718
305 0.235942
310 0.111333
315 0.130889
320 0.0919097
325 0.10159
330 0.136456
335 0.114862
340 0.0718929
345 0.127579
350 0.139259
355 0.0978081
360 0.108314
365 0.229866
370 0.10506
375 0.1278
380 0.145774
385 0.0518814
390 0.121195
395 0.226798
400 0.120627
405 0.0886971
410 0.0748171
415 0.102967
420 0.06737
425 0.179822
430 0.146809
435 0.0941896
440 0.134706
445 0.205091
450 0.167291
455 0.114227
460 0.21461
465 0.192422
470 0.334106
475 0.160473
480 0.144938
485 0.188874
490 0.201399
495 0.215156
500 0.289371
505 0.233915
510 0.153572
515 0.28406
520 0.191337
525 0.2553
530 0.200196
535 0.327458
540 0.170741
545 0.109439
550 0.210428
555 0.256776
560 0.291182
565 0.197156
570 0.241217
575 0.27513
580 0.249554
585 0.515114
590 14.8858
595 340.398
600 695.877
