File format V 1.0
ven. 6. janv. 01:27:45 2017
Operator : 
Comments : 

=============================================
SpectroFluorometer parameters
Mode : 3D measurement
Data : Fluorescence
Phospho. : Ordinary
Spectrum : Fluorescence

Scan speed : 2400 nm/mn
Response : 100 ms
PM Voltage : 700 V
Shutter : On

Lambda Ex. Start : 203
Lambda Ex. End : 603
Lambda Ex. Step : 5
Ex. Slit : 5 nm

Lambda Em. Start : 200
Lambda Em. End : 600
Lambda Em. Step : 5
Em. Slit : 5 nm

Repetition : 1
Decal lambda em : 10
=============================================
DATA
Ex : 203
200 3.87013
205 6.56902
210 2.53225
215 5.01458
220 3.38527
225 3.47208
230 3.19183
235 2.30143
240 4.06075
245 7.2737
250 2.25928
255 3.28976
260 5.59062
265 4.45916
270 8.6546
275 7.41599
280 3.17635
285 4.45432
290 2.08664
295 4.4169
300 2.58878
305 3.8284
310 5.62089
315 6.41244
320 3.64755
325 5.89599
330 3.20129
335 4.73076
340 1.62337
345 5.35727
350 5.56647
355 2.07486
360 3.75099
365 7.89888
370 2.81618
375 1.62868
380 3.86755
385 3.12807
390 6.02767
395 3.26508
400 6.94472
405 3.95281
410 1.93285
415 5.73858
420 6.2575
425 3.42824
430 6.01608
435 4.01673
440 4.62167
445 2.32106
450 4.90504
455 3.86185
460 5.1497
465 6.77172
470 6.30026
475 5.21934
480 5.14457
485 6.66577
490 4.11468
495 5.26383
500 1.72748
505 2.1086
510 5.04317
515 5.07928
520 2.23482
525 3.03536
530 5.30244
535 3.25598
540 2.69097
545 7.00592
550 3.71932
555 2.42303
560 2.38945
565 3.6264
570 2.52268
575 2.11817
580 5.52234
585 2.81885
590 1.76926
595 6.26665
600 0.713121
Ex : 208
200 1.97351
205 4.29388
210 4.18624
215 0.858662
220 3.63677
225 1.69589
230 5.10476
235 3.74592
240 6.42217
245 6.81134
250 3.5943
255 2.47881
260 2.45237
265 2.0915
270 2.85231
275 2.33621
280 2.96475
285 6.56921
290 4.06679
295 2.19211
300 3.65073
305 2.7439
310 5.3595
315 5.60602
320 3.67305
325 3.02836
330 1.89688
335 3.7966
340 1.97691
345 2.03614
350 3.3737
355 2.11283
360 3.5394
365 1.77752
370 2.5169
375 3.7432
380 2.76077
385 5.94789
390 3.18874
395 4.23861
400 5.49457
405 5.64309
410 2.5368
415 6.46924
420 3.15619
425 1.86631
430 3.40395
435 2.12524
440 1.5182
445 2.1766
450 6.28893
455 2.69485
460 4.90832
465 5.1838
470 3.94566
475 8.35098
480 3.00469
485 7.22572
490 5.78735
495 6.53399
500 4.8043
505 3.43462
510 10.3528
515 6.7671
520 6.55955
525 3.17768
530 2.93805
535 2.81232
540 5.85881
545 6.43009
550 4.12216
555 2.86895
560 3.62744
565 3.02251
570 5.56074
575 2.99021
580 4.3482
585 5.97636
590 4.84064
595 2.39099
600 0.272085
Ex : 213
200 3.86905
205 2.38876
210 2.71752
215 3.66608
220 5.247
225 3.24396
230 4.55432
235 2.87258
240 4.30013
245 6.68723
250 4.22742
255 2.46919
260 5.0789
265 2.51204
270 3.75548
275 5.20542
280 3.9915
285 4.58983
290 4.20578
295 2.62415
300 3.70164
305 2.99871
310 5.08918
315 3.1725
320 2.65544
325 2.72406
330 8.53232
335 2.30304
340 5.15087
345 2.7624
350 3.31083
355 3.66757
360 3.07597
365 2.18891
370 5.8049
375 3.19943
380 2.77456
385 2.8007
390 3.67606
395 6.23403
400 3.06418
405 4.67381
410 5.57814
415 4.15547
420 6.98705
425 4.70917
430 3.96845
435 6.74364
440 3.08699
445 5.6117
450 2.73779
455 3.33892
460 5.35013
465 6.90871
470 2.44228
475 4.89403
480 5.25962
485 3.61625
490 7.27326
495 3.75625
500 2.89445
505 3.76486
510 3.76965
515 2.84968
520 4.23219
525 5.89595
530 4.35568
535 5.64814
540 4.92895
545 1.94964
550 2.1654
555 4.71488
560 1.53137
565 7.31279
570 3.08582
575 7.24521
580 7.27931
585 4.46465
590 4.16797
595 5.58195
600 0.635204
Ex : 218
200 7.25547
205 4.34277
210 4.19394
215 5.04374
220 6.91796
225 2.94594
230 2.02708
235 2.72415
240 1.66318
245 1.54685
250 2.21937
255 4.92728
260 1.49265
265 3.38452
270 4.51117
275 6.57455
280 2.8302
285 4.07222
290 3.79075
295 4.31352
300 5.18965
305 3.32918
310 4.27332
315 2.97494
320 4.38898
325 5.09416
330 6.89253
335 2.19655
340 1.59093
345 2.48294
350 3.61135
355 4.05869
360 5.70124
365 6.90725
370 5.5849
375 3.58002
380 3.34259
385 1.97192
390 5.88689
395 5.73393
400 2.0493
405 3.27246
410 2.32087
415 5.56911
420 4.13222
425 3.42794
430 3.24237
435 5.62549
440 5.39554
445 4.8146
450 6.91408
455 3.68492
460 3.52973
465 3.47662
470 4.01574
475 6.64932
480 4.2519
485 3.82594
490 6.56338
495 3.38835
500 3.66068
505 7.12885
510 6.16954
515 6.22948
520 6.37608
525 4.51208
530 2.11104
535 2.69611
540 2.30511
545 7.40733
550 3.38595
555 3.89111
560 2.74944
565 5.44547
570 4.89829
575 5.36097
580 2.82016
585 2.14091
590 3.43166
595 6.70118
600 0.762569
Ex : 223
200 3.66071
205 4.34522
210 8.71054
215 5.95397
220 4.29668
225 3.66724
230 2.55399
235 5.84308
240 4.58172
245 3.82249
250 2.31591
255 1.25057
260 2.23908
265 1.65435
270 4.99242
275 6.81209
280 2.96798
285 4.38247
290 3.89861
295 3.83988
300 6.90931
305 4.09844
310 3.93782
315 1.39955
320 1.97069
325 3.98298
330 5.96193
335 4.25691
340 1.73489
345 2.53537
350 3.73894
355 3.91658
360 3.42166
365 3.61401
370 2.57754
375 6.02856
380 4.56871
385 3.6273
390 5.81803
395 3.06664
400 2.8848
405 2.52163
410 6.36874
415 4.28145
420 1.92146
425 3.21594
430 5.56461
435 4.72258
440 4.96271
445 5.53381
450 3.42295
455 2.8635
460 2.32969
465 6.81158
470 3.58742
475 3.48422
480 5.03447
485 4.21619
490 6.09856
495 4.90073
500 1.26991
505 3.97271
510 3.10026
515 4.78382
520 4.08333
525 2.07257
530 5.10997
535 3.66133
540 5.3228
545 4.47529
550 5.68627
555 8.50086
560 5.19793
565 3.50575
570 2.986
575 5.97273
580 2.55732
585 2.98768
590 1.24281
595 4.7813
600 0.544093
Ex : 228
200 6.10429
205 5.83566
210 5.30758
215 3.19853
220 4.32045
225 3.48997
230 2.61012
235 4.94705
240 2.15143
245 4.29527
250 3.08042
255 1.99929
260 1.34935
265 1.09956
270 2.01014
275 3.99924
280 4.81795
285 3.39344
290 3.23467
295 3.67734
300 1.67577
305 3.40846
310 2.44699
315 6.07755
320 3.47038
325 1.84136
330 4.52918
335 3.36427
340 2.7818
345 3.9895
350 2.4983
355 3.81409
360 1.97154
365 3.1232
370 5.7711
375 2.82011
380 3.25345
385 3.47681
390 2.04857
395 2.04479
400 1.52917
405 2.96639
410 4.28368
415 5.60304
420 4.26682
425 4.87462
430 2.27896
435 4.32545
440 5.68211
445 8.35967
450 8.3999
455 3.50707
460 4.64274
465 3.24164
470 3.35226
475 2.44241
480 3.09866
485 3.18104
490 1.88974
495 5.81521
500 2.65433
505 3.04765
510 6.20618
515 3.56058
520 1.58305
525 3.48516
530 4.21409
535 3.81461
540 4.75093
545 6.78652
550 9.04352
555 3.03397
560 5.69413
565 4.52446
570 4.76327
575 5.66348
580 2.59967
585 3.12403
590 1.84939
595 6.31374
600 16.6701
Ex : 233
200 3.3587
205 3.37885
210 2.50779
215 3.01867
220 2.32043
225 5.8103
230 3.60378
235 3.32551
240 3.22992
245 1.54606
250 1.69181
255 2.08517
260 4.55315
265 1.58254
270 2.01884
275 3.44041
280 4.22696
285 6.92341
290 6.70457
295 3.86467
300 3.0984
305 4.30785
310 2.76464
315 3.62524
320 2.39764
325 5.02289
330 5.74862
335 2.75409
340 2.18946
345 4.46626
350 3.51733
355 1.67699
360 2.74997
365 4.86502
370 4.25619
375 3.96696
380 5.11339
385 4.81813
390 5.44146
395 3.19174
400 1.61866
405 3.92428
410 4.60563
415 3.16366
420 5.27126
425 6.77357
430 5.79263
435 5.92689
440 3.27179
445 3.452
450 2.61981
455 3.42392
460 3.91588
465 2.86131
470 4.58255
475 3.20119
480 5.83358
485 5.39816
490 3.38243
495 1.8038
500 4.12648
505 4.31311
510 5.29766
515 3.02195
520 3.01234
525 3.10422
530 4.603
535 2.12741
540 4.1819
545 2.08038
550 5.24855
555 2.8514
560 4.26536
565 3.76633
570 3.39545
575 2.02207
580 4.25477
585 3.41315
590 1.67876
595 4.77937
600 0.543874
Ex : 238
200 4.39352
205 2.13129
210 3.12565
215 2.13271
220 3.08995
225 2.87528
230 5.75238
235 2.68943
240 1.20125
245 1.33074
250 3.54576
255 3.36999
260 4.52523
265 1.97803
270 0.836887
275 5.51815
280 2.59625
285 2.06785
290 4.02827
295 4.18543
300 2.53682
305 2.57463
310 2.23664
315 4.51584
320 2.36125
325 2.48637
330 1.8338
335 4.88101
340 5.03378
345 3.29832
350 1.88428
355 2.46983
360 1.29504
365 2.18731
370 4.82258
375 3.04044
380 4.32742
385 3.86434
390 2.60872
395 8.52456
400 3.39122
405 3.21914
410 3.33824
415 4.00675
420 1.70107
425 3.57197
430 2.35526
435 1.53794
440 3.94796
445 5.83295
450 6.22967
455 4.54491
460 3.69383
465 3.0835
470 3.37517
475 2.5048
480 4.15168
485 2.66958
490 3.14227
495 1.90628
500 3.43045
505 2.51227
510 3.59466
515 2.32207
520 6.91487
525 5.14941
530 3.48268
535 4.63228
540 4.74696
545 5.85284
550 2.98379
555 4.82904
560 3.24782
565 2.82306
570 2.79557
575 0.856473
580 2.37262
585 2.40377
590 3.00166
595 2.09328
600 0.238207
Ex : 243
200 3.52066
205 1.70236
210 2.07554
215 1.99305
220 1.65777
225 0.55694
230 1.30704
235 3.23118
240 1.54811
245 1.65802
250 2.79236
255 2.37568
260 2.45804
265 1.6595
270 2.20467
275 1.76788
280 1.46981
285 2.25125
290 3.83423
295 1.68657
300 7.64358
305 2.10347
310 1.45051
315 2.18194
320 4.08975
325 2.51296
330 2.94825
335 2.7133
340 3.82142
345 2.27723
350 2.14325
355 3.34561
360 2.40575
365 2.20171
370 2.34276
375 2.46669
380 1.69642
385 1.76124
390 4.46859
395 2.42301
400 4.63796
405 2.29271
410 2.39464
415 2.36985
420 4.22685
425 2.45448
430 2.41944
435 2.33205
440 2.58657
445 3.34116
450 4.46236
455 3.35889
460 3.02149
465 4.68357
470 3.05205
475 2.34407
480 4.45139
485 1.41491
490 3.1785
495 3.3358
500 2.96405
505 1.24196
510 4.31325
515 2.6
520 2.88884
525 4.18678
530 1.76961
535 2.37065
540 3.20314
545 2.27886
550 2.53022
555 1.75888
560 1.88868
565 2.42311
570 1.92766
575 2.02839
580 2.41559
585 1.81726
590 0.920995
595 4.22326
600 5.50241
Ex : 248
200 1.5
205 2.98046
210 2.7511
215 3.24882
220 3.60694
225 3.02584
230 1.967
235 3.57312
240 2.45145
245 0.703733
250 1.54154
255 2.06208
260 2.89922
265 1.50831
270 1.44738
275 1.0856
280 3.36171
285 2.36174
290 2.51569
295 1.05935
300 1.16646
305 1.64311
310 1.49533
315 1.50571
320 3.96233
325 1.58499
330 2.06241
335 3.14195
340 2.23185
345 1.3187
350 2.17754
355 2.83027
360 2.0665
365 3.09348
370 2.10635
375 1.55772
380 2.89939
385 3.40148
390 1.80756
395 1.72359
400 1.67632
405 1.8226
410 2.64143
415 3.68513
420 1.85067
425 3.15936
430 3.08842
435 3.09122
440 2.94368
445 1.43453
450 2.30739
455 1.94797
460 3.8013
465 1.99999
470 1.7712
475 2.81111
480 2.59681
485 3.95785
490 3.43154
495 2.26661
500 1.23306
505 1.2936
510 2.24271
515 3.77506
520 1.4081
525 1.24408
530 2.00356
535 2.69956
540 2.16662
545 2.62783
550 2.01075
555 0.933897
560 2.41416
565 2.43052
570 2.62518
575 1.30966
580 1.71572
585 2.74998
590 2.11333
595 2.8147
600 2.72571
Ex : 253
200 2.46857
205 1.4296
210 2.11694
215 0.97431
220 0.939171
225 2.5772
230 2.18835
235 0.943687
240 0.627496
245 1.63911
250 2.13724
255 2.85803
260 1.59728
265 2.25471
270 1.44473
275 1.83582
280 0.925809
285 2.73813
290 2.47587
295 1.71229
300 1.27565
305 1.48713
310 1.52252
315 1.60131
320 1.31102
325 2.18771
330 1.61391
335 2.5676
340 2.50031
345 1.79965
350 2.5425
355 2.36653
360 1.44358
365 1.52362
370 2.35598
375 4.70931
380 2.01291
385 4.04337
390 3.29294
395 2.94881
400 2.71897
405 2.31946
410 1.67885
415 2.9551
420 3.3595
425 1.85676
430 2.10004
435 2.24857
440 1.61406
445 1.77676
450 2.13041
455 2.08501
460 1.55236
465 1.68944
470 2.92964
475 3.35888
480 1.56893
485 1.20684
490 2.99004
495 1.90874
500 1.91179
505 1.74875
510 3.69758
515 2.96985
520 1.43564
525 1.65884
530 0.986099
535 2.76836
540 2.4599
545 2.41991
550 0.993507
555 1.61079
560 2.00466
565 1.70341
570 2.7056
575 1.85745
580 2.07394
585 0.866022
590 2.86097
595 2.42934
600 0.27645
Ex : 258
200 1.07556
205 1.48845
210 0.803545
215 2.46845
220 1.28339
225 1.35048
230 1.16882
235 2.24642
240 0.509124
245 0.822661
250 0.896292
255 1.16918
260 0.773311
265 0.910619
270 2.36636
275 1.11107
280 1.53818
285 1.20296
290 1.47415
295 1.38375
300 1.39412
305 2.62504
310 1.6542
315 2.52057
320 1.54162
325 3.27311
330 1.59254
335 0.980626
340 1.01216
345 1.25717
350 2.03297
355 1.20138
360 1.65876
365 0.982315
370 1.91334
375 2.66285
380 1.04119
385 1.53881
390 2.04445
395 1.62036
400 1.71457
405 2.84556
410 2.3163
415 2.54734
420 2.12444
425 1.81833
430 1.76833
435 1.40718
440 1.51428
445 2.40815
450 2.42012
455 2.75432
460 0.877561
465 0.957347
470 1.37291
475 1.8062
480 1.64483
485 1.04899
490 1.54794
495 2.96455
500 0.821281
505 1.76937
510 4.68595
515 3.3675
520 2.15562
525 1.33955
530 1.05274
535 0.948295
540 1.51057
545 2.39812
550 1.1247
555 2.83945
560 1.07085
565 1.00806
570 0.822087
575 1.26689
580 1.92474
585 1.18652
590 1.73644
595 1.02918
600 0.117116
Ex : 263
200 1.97069
205 1.35024
210 1.3931
215 1.05094
220 0.751928
225 0.884761
230 1.25466
235 0.961053
240 1.51342
245 0.715429
250 0.651569
255 1.02852
260 0.529449
265 1.82022
270 1.32871
275 2.08559
280 1.41262
285 1.04232
290 1.03111
295 1.50797
300 0.294161
305 0.991615
310 1.16229
315 1.72493
320 0.679384
325 0.438895
330 1.00711
335 1.38399
340 1.10846
345 0.790009
350 2.15351
355 0.660969
360 1.29453
365 0.788228
370 1.17561
375 1.08629
380 0.579112
385 0.953676
390 1.03237
395 1.96425
400 1.46762
405 1.58218
410 1.624
415 1.81448
420 2.02352
425 1.02302
430 1.10642
435 1.20974
440 1.5537
445 1.74688
450 1.89708
455 0.870901
460 1.19194
465 1.28173
470 0.8542
475 1.43966
480 0.94915
485 0.726145
490 1.88613
495 1.12194
500 1.77325
505 1.10961
510 0.987727
515 1.57259
520 1.80392
525 1.12981
530 1.0457
535 0.790646
540 1.46868
545 1.20367
550 1.61449
555 2.35399
560 1.3084
565 0.817149
570 1.62601
575 1.07436
580 0.825056
585 0.718716
590 0.587309
595 1.22839
600 0.139786
Ex : 268
200 0.683715
205 1.12118
210 0.747198
215 0.833846
220 1.32607
225 0.86978
230 1.25627
235 0.812158
240 0.742466
245 0.30634
250 0.398527
255 0.371847
260 0.901738
265 1.58939
270 1.63336
275 1.00307
280 0.994237
285 1.08386
290 0.511511
295 0.471362
300 0.49551
305 0.53954
310 0.259709
315 0.215351
320 0.548448
325 1.26081
330 0.618491
335 1.67647
340 0.854177
345 1.12965
350 1.05597
355 1.31774
360 1.51153
365 1.28623
370 0.603684
375 0.564971
380 0.888412
385 1.29193
390 0.902752
395 0.741592
400 1.12034
405 1.26256
410 0.41841
415 1.06958
420 0.906602
425 0.948096
430 0.834528
435 1.34813
440 0.811911
445 0.902324
450 0.688661
455 1.03274
460 1.18471
465 0.62044
470 0.753897
475 1.21709
480 1.54382
485 1.99332
490 1.45664
495 0.798065
500 0.965974
505 0.982626
510 0.984235
515 2.66937
520 1.5226
525 1.34463
530 1.21866
535 1.19789
540 1.62519
545 1.09961
550 0.99044
555 0.380918
560 0.551845
565 0.690993
570 0.712158
575 0.994589
580 0.571135
585 0.821656
590 0.73768
595 0.800636
600 0.386511
Ex : 273
200 0.526667
205 0.236578
210 0.620678
215 0.812409
220 1.25289
225 0.838248
230 0.485319
235 0.440835
240 0.415246
245 0.590883
250 0.771534
255 0.498429
260 0.701051
265 0.905268
270 0.687512
275 0.779025
280 1.43796
285 0.984454
290 1.35847
295 1.12961
300 0.465482
305 0.566554
310 0.846475
315 0.618624
320 1.04189
325 0.641779
330 0.769264
335 0.771661
340 0.887152
345 1.03783
350 0.807696
355 0.548862
360 0.803239
365 0.573547
370 1.44739
375 0.673886
380 0.822222
385 0.826707
390 0.576364
395 1.32818
400 1.09883
405 0.862891
410 1.40858
415 0.688242
420 1.17871
425 1.40416
430 1.02999
435 0.933345
440 0.824513
445 1.14916
450 0.960972
455 0.619653
460 0.951671
465 0.424445
470 1.12598
475 0.916951
480 1.2926
485 0.922145
490 0.615087
495 0.575693
500 0.902372
505 1.12098
510 1.1069
515 1.00121
520 1.0191
525 0.993351
530 0.532082
535 0.935945
540 1.49288
545 1.49475
550 0.656968
555 0.292355
560 0.474872
565 0.788746
570 0.76276
575 0.641666
580 0.606126
585 0.229737
590 0.570286
595 0.980348
600 0.357728
Ex : 278
200 0.726947
205 0.410111
210 0.413845
215 0.296314
220 1.01848
225 0.3887
230 0.869682
235 0.774777
240 0.699231
245 0.677636
250 0.729601
255 0.95562
260 0.284224
265 0.302725
270 0.641053
275 0.357915
280 0.388623
285 0.399351
290 0.561054
295 0.471194
300 0.744572
305 0.530231
310 0.87377
315 0.334904
320 0.274593
325 0.153757
330 0.350332
335 0.702501
340 0.773841
345 0.735029
350 0.739852
355 0.52486
360 0.674172
365 0.543772
370 0.451615
375 0.803024
380 1.09791
385 1.29235
390 2.04032
395 0.768736
400 1.00623
405 0.648634
410 1.02194
415 0.886273
420 0.972609
425 1.31474
430 0.82616
435 0.382786
440 0.650244
445 0.445134
450 0.616553
455 0.280625
460 1.01831
465 0.674156
470 0.823797
475 1.07059
480 1.29081
485 0.664653
490 0.656555
495 0.686501
500 0.78055
505 1.02217
510 0.798947
515 0.4751
520 0.519807
525 0.389656
530 0.343282
535 0.482565
540 0.669864
545 0.987384
550 1.18471
555 1.17154
560 0.700903
565 0.377576
570 0.299478
575 0.594544
580 0.833311
585 0.844262
590 0.512454
595 0.372878
600 0.0424321
Ex : 283
200 0.201042
205 0.258889
210 0.550834
215 0.31203
220 0.735702
225 0.533138
230 0.439808
235 0.435847
240 0.241763
245 0.442569
250 0.520784
255 0.712955
260 0.26421
265 0.412233
270 0.506814
275 0.463905
280 0.469119
285 0.416415
290 0.247885
295 0.319837
300 0.200459
305 0.250903
310 0.304702
315 0.491163
320 0.355961
325 0.359991
330 0.23301
335 0.383633
340 0.575646
345 0.865089
350 0.541546
355 0.696706
360 0.637362
365 0.453459
370 0.718075
375 0.581777
380 0.579234
385 0.616435
390 0.519301
395 0.672772
400 0.848224
405 0.352865
410 0.439514
415 0.599221
420 1.1163
425 0.370043
430 0.882094
435 0.730451
440 0.630367
445 0.609332
450 0.612667
455 0.663396
460 0.309899
465 0.586489
470 0.494586
475 0.176165
480 0.577412
485 0.509141
490 0.368308
495 0.730219
500 0.210455
505 0.426159
510 0.444444
515 0.752813
520 0.360079
525 0.313091
530 0.614401
535 0.677637
540 0.390477
545 0.532046
550 0.349293
555 0.779685
560 0.75701
565 0.819145
570 0.665819
575 0.556566
580 0.259468
585 0.326471
590 0.628176
595 0.541674
600 0.813571
Ex : 288
200 0.363973
205 0.550668
210 0.274353
215 0.765727
220 0.421584
225 0.268289
230 0.325932
235 0.200875
240 0.45518
245 0.411473
250 0.409437
255 0.30952
260 0.512707
265 0.45622
270 0.197061
275 0.386362
280 0.206354
285 0.339231
290 0.425833
295 0.207106
300 0.189456
305 0.618808
310 0.265945
315 0.261375
320 0.427427
325 0.379791
330 0.454591
335 0.582896
340 0.369506
345 0.432924
350 0.820377
355 0.516709
360 0.456845
365 1.01841
370 0.55013
375 0.487756
380 0.763478
385 0.635111
390 0.610935
395 0.425325
400 0.690801
405 0.841068
410 0.38721
415 0.545395
420 0.480379
425 0.343645
430 0.432542
435 0.813952
440 0.948536
445 0.54577
450 0.59139
455 1.16579
460 0.643169
465 0.478217
470 0.364117
475 0.554734
480 0.322036
485 0.620975
490 0.667169
495 0.447132
500 0.354361
505 0.806562
510 0.369483
515 0.409685
520 0.605982
525 0.528594
530 0.243735
535 0.450184
540 0.483781
545 0.329986
550 0.401805
555 0.514956
560 1.05558
565 0.541575
570 1.0789
575 0.941064
580 0.549364
585 0.430342
590 0.440188
595 0.220833
600 1.51768
Ex : 293
200 0.199475
205 0.696965
210 0.3981
215 0.366787
220 0.268607
225 0.418516
230 0.457852
235 0.455265
240 0.29542
245 0.205673
250 0.481089
255 0.333667
260 0.316786
265 0.574017
270 0.438287
275 0.432298
280 0.160916
285 0.304442
290 0.357887
295 0.272444
300 0.230658
305 0.248969
310 0.307488
315 0.299248
320 0.418482
325 0.208965
330 0.288834
335 0.487655
340 0.263432
345 0.467178
350 0.309188
355 0.408669
360 0.629324
365 0.847161
370 0.493554
375 0.410178
380 0.695488
385 0.627903
390 0.402665
395 0.614883
400 0.357669
405 0.601775
410 0.428799
415 0.593178
420 0.26904
425 0.409813
430 0.370109
435 0.354978
440 0.781703
445 0.479983
450 0.642737
455 0.541784
460 0.4483
465 0.309219
470 0.288255
475 0.781687
480 0.432227
485 0.45424
490 0.369466
495 0.246373
500 0.238051
505 0.438224
510 0.22513
515 0.291011
520 0.220564
525 0.139327
530 0.242977
535 0.260213
540 0.322204
545 0.291333
550 0.480948
555 0.316993
560 0.401898
565 0.188851
570 0.235272
575 0.528798
580 0.603164
585 0.425378
590 0.377688
595 0.354399
600 0.0403293
Ex : 298
200 0.177442
205 0.296752
210 0.205646
215 0.175032
220 0.269987
225 0.151476
230 0.347189
235 0.330428
240 0.215898
245 0.493328
250 0.305589
255 0.146113
260 0.345077
265 0.281145
270 0.128117
275 0.252652
280 0.29568
285 0.222497
290 0.390772
295 0.437431
300 0.235034
305 0.13175
310 0.80952
315 0.550305
320 0.208076
325 0.404469
330 0.420386
335 0.407653
340 0.509162
345 0.383427
350 0.575109
355 0.311499
360 0.336007
365 0.341173
370 0.719179
375 0.525753
380 0.325162
385 0.370296
390 0.364134
395 0.678155
400 0.52472
405 0.45759
410 0.457843
415 0.524906
420 0.433637
425 0.388647
430 0.373493
435 0.294948
440 0.507211
445 0.572538
450 0.455244
455 0.400088
460 0.560347
465 0.253433
470 0.8357
475 0.536366
480 0.489597
485 0.234988
490 0.570148
495 0.286022
500 0.211744
505 0.333284
510 0.3282
515 0.288114
520 0.324505
525 0.227408
530 0.512839
535 0.309179
540 0.306081
545 0.319901
550 0.159578
555 0.564383
560 0.324801
565 0.539321
570 0.44304
575 0.174767
580 0.295478
585 0.404943
590 0.481259
595 0.541285
600 0.0615962
Ex : 303
200 0.47593
205 0.239594
210 0.368597
215 0.305108
220 0.352442
225 0.125562
230 0.271848
235 0.356322
240 0.193293
245 0.285225
250 0.130031
255 0.131477
260 0.19652
265 0.292428
270 0.378812
275 0.164798
280 0.364229
285 0.302117
290 0.440702
295 0.417916
300 0.79376
305 0.21345
310 0.0878422
315 0.197381
320 0.224892
325 0.162925
330 0.245818
335 0.388403
340 0.390233
345 0.221437
350 0.276846
355 0.417671
360 0.353884
365 0.349387
370 0.425004
375 0.391951
380 0.368047
385 0.497746
390 0.396705
395 0.435213
400 0.400855
405 0.341135
410 0.523231
415 0.387713
420 0.370709
425 0.308715
430 0.293324
435 0.350481
440 0.348664
445 0.470108
450 0.579264
455 0.42047
460 0.438384
465 0.45004
470 0.450335
475 0.329148
480 0.524833
485 0.551784
490 0.467862
495 0.325136
500 0.316224
505 0.251653
510 0.27052
515 0.180741
520 0.330002
525 0.274414
530 0.172821
535 0.188366
540 0.257008
545 0.236918
550 0.410656
555 0.145857
560 0.20922
565 0.156668
570 0.13512
575 0.199272
580 0.421433
585 0.342536
590 0.384062
595 0.696049
600 0.0792078
Ex : 308
200 0.289582
205 0.187426
210 0.224012
215 0.162307
220 0.231405
225 0.126031
230 0.212277
235 0.123509
240 0.403368
245 0.1935
250 0.119256
255 0.142243
260 0.320222
265 0.522065
270 0.186978
275 0.135428
280 0.166346
285 0.197283
290 0.268993
295 0.288844
300 0.405081
305 0.198211
310 0.10656
315 0.174979
320 0.187688
325 0.264774
330 0.213889
335 0.311515
340 0.17022
345 0.271385
350 0.301873
355 0.432138
360 0.468892
365 0.198997
370 0.413337
375 0.543469
380 0.562391
385 0.584915
390 0.425561
395 0.503104
400 0.47355
405 0.521821
410 0.560733
415 0.455108
420 0.393277
425 0.429605
430 0.369935
435 0.296349
440 0.587447
445 0.767396
450 0.441076
455 0.311913
460 0.348579
465 0.423955
470 0.258119
475 0.247788
480 0.362979
485 0.311047
490 0.236483
495 0.300762
500 0.3128
505 0.280213
510 0.170624
515 0.216351
520 0.268311
525 0.186012
530 0.266381
535 0.137676
540 0.158633
545 0.232982
550 0.23719
555 0.161875
560 0.315974
565 0.368702
570 0.233891
575 0.193533
580 0.209781
585 0.36825
590 0.118529
595 0.261833
600 0.282997
Ex : 313
200 0.097561
205 0.155931
210 0.196767
215 0.160341
220 0.131167
225 0.220181
230 0.167844
235 0.229145
240 0.248836
245 0.406541
250 0.216013
255 0.162114
260 0.103665
265 0.227382
270 0.174517
275 0.127416
280 0.196914
285 0.151911
290 0.191372
295 0.145415
300 0.0613709
305 0.264407
310 0.325934
315 0.155126
320 0.291373
325 0.428111
330 0.269393
335 0.205635
340 0.223416
345 0.295138
350 0.397344
355 0.420699
360 0.362005
365 0.564459
370 0.523647
375 0.447049
380 0.593933
385 0.707326
390 0.860005
395 0.973643
400 1.03976
405 0.795688
410 0.989341
415 1.0203
420 0.986537
425 1.04659
430 0.690616
435 0.577694
440 0.574226
445 0.673783
450 0.481268
455 0.65157
460 0.644536
465 0.818648
470 0.60962
475 0.471606
480 0.479227
485 0.317928
490 0.491073
495 0.359646
500 0.445788
505 0.375626
510 0.307343
515 0.237759
520 0.264145
525 0.352266
530 0.266288
535 0.166268
540 0.293737
545 0.392873
550 0.311382
555 0.278873
560 0.157687
565 0.122347
570 0.143155
575 0.381182
580 0.106523
585 0.132385
590 0.334323
595 0.14798
600 0.0168396
Ex : 318
200 0.119786
205 0.142011
210 0.107969
215 0.172786
220 0.198948
225 0.271081
230 0.224825
235 0.158599
240 0.1171
245 0.183448
250 0.0610712
255 0.274271
260 0.191429
265 0.150738
270 0.103933
275 0.201086
280 0.211154
285 0.141341
290 0.136462
295 0.156911
300 0.170076
305 0.153309
310 0.386858
315 0.835217
320 0.470123
325 0.512068
330 0.632476
335 0.502511
340 1.07132
345 1.3274
350 2.01706
355 2.91312
360 3.5754
365 4.32286
370 6.01662
375 6.50526
380 7.49607
385 8.41168
390 9.67243
395 9.67581
400 10.1234
405 10.0721
410 10.7071
415 10.6133
420 9.53892
425 9.657
430 8.96456
435 9.18045
440 8.20816
445 8.37248
450 7.34379
455 7.39365
460 6.43364
465 5.96837
470 5.69197
475 4.5854
480 4.50781
485 4.09438
490 3.59976
495 2.68048
500 2.6489
505 2.49418
510 2.31281
515 1.74653
520 1.48607
525 1.13284
530 1.0602
535 0.872113
540 0.626865
545 0.64592
550 0.440774
555 0.420761
560 0.47544
565 0.428363
570 0.392919
575 0.270071
580 0.291101
585 0.359887
590 0.189894
595 0.189263
600 0.0215374
Ex : 323
200 0.192845
205 0.143946
210 0.17262
215 0.0809224
220 0.113942
225 0.0586729
230 0.197069
235 0.273919
240 0.158164
245 0.159698
250 0.0704904
255 0.114008
260 0.180138
265 0.120311
270 0.161216
275 0.163015
280 0.173355
285 0.106756
290 0.209905
295 0.0932561
300 0.136848
305 0.206049
310 0.210942
315 7.78846
320 35.6255
325 15.1656
330 3.31377
335 3.00253
340 3.89975
345 5.82111
350 8.84626
355 11.9548
360 13.8893
365 17.6528
370 21.5666
375 24.7828
380 27.518
385 30.305
390 34.526
395 36.7729
400 37.3867
405 37.5727
410 37.5864
415 37.5214
420 36.6778
425 34.6455
430 34.0907
435 32.4135
440 30.8756
445 28.9985
450 27.2705
455 26.1804
460 23.3776
465 22.4911
470 20.2602
475 18.5392
480 16.8795
485 15.4353
490 13.8864
495 12.3692
500 10.7865
505 9.37961
510 8.52236
515 7.0476
520 5.86764
525 5.0465
530 4.05321
535 3.6648
540 2.97498
545 2.40965
550 2.06291
555 1.74279
560 1.62847
565 1.26684
570 0.909046
575 0.814899
580 0.523606
585 0.422238
590 0.412309
595 0.292307
600 0.458989
Ex : 328
200 0.131788
205 0.158814
210 0.165646
215 0.0824503
220 0.105404
225 0.0881901
230 0.122157
235 0.157579
240 0.238528
245 0.106785
250 0.109413
255 0.110342
260 0.122734
265 0.119685
270 0.0822438
275 0.130595
280 0.282672
285 0.314193
290 0.231993
295 0.108147
300 0.110222
305 0.169865
310 0.225169
315 1.83138
320 79.4514
325 189.956
330 56.257
335 9.6423
340 5.26825
345 6.93078
350 9.02239
355 12.68
360 18.0744
365 20.0387
370 22.2652
375 25.2633
380 28.7332
385 32.4879
390 35.2549
395 37.876
400 38.6113
405 39.4871
410 38.8909
415 38.5624
420 37.86
425 35.8862
430 34.4324
435 33.2453
440 31.7815
445 29.6119
450 28.1585
455 26.3886
460 23.8643
465 22.0278
470 20.1841
475 19.3644
480 17.2298
485 15.9162
490 13.5479
495 12.4036
500 11.1448
505 9.94834
510 8.41281
515 7.20424
520 6.01234
525 5.39464
530 4.59681
535 3.76159
540 3.20436
545 2.93821
550 2.18521
555 1.99656
560 1.7663
565 1.4785
570 0.959487
575 0.879557
580 0.605946
585 0.616366
590 0.382514
595 0.370503
600 0.792641
Ex : 333
200 0.037594
205 0.097279
210 0.123039
215 0.0551638
220 0.0723631
225 0.14574
230 0.181756
235 0.174655
240 0.125742
245 0.105855
250 0.128442
255 0.0520395
260 0.0597519
265 0.0995016
270 0.219166
275 0.14481
280 0.148831
285 0.0661699
290 0.174094
295 0.155295
300 0.15461
305 0.199769
310 0.197655
315 0.260073
320 10.4564
325 216.6
330 368.711
335 95.9033
340 14.6528
345 6.16181
350 5.32882
355 6.16125
360 9.66799
365 14.371
370 14.9899
375 15.0412
380 15.4807
385 18.7581
390 21.6397
395 22.1174
400 23.0219
405 22.891
410 23.7869
415 23.5757
420 23.0371
425 20.765
430 19.6388
435 19.2296
440 18.8058
445 16.741
450 16.0211
455 15.2106
460 14.0386
465 11.909
470 11.6527
475 10.8542
480 9.91526
485 8.54298
490 7.5976
495 6.93516
500 6.13661
505 4.9318
510 4.51134
515 3.95348
520 3.26936
525 3.52429
530 2.53994
535 2.25251
540 2.06269
545 1.82158
550 1.4185
555 1.21241
560 1.09135
565 1.01315
570 0.744886
575 0.606468
580 0.588869
585 0.394116
590 0.319084
595 0.335647
600 0.888079
Ex : 338
200 0.0971388
205 0.133875
210 0.162101
215 0.092845
220 0.14963
225 0.0494533
230 0.115026
235 0.0815125
240 0.0812573
245 0.127627
250 0.193058
255 0.076233
260 0.144677
265 0.250978
270 0.174922
275 0.0965628
280 0.0887922
285 0.144325
290 0.143672
295 0.235107
300 0.165866
305 0.11029
310 0.200666
315 0.0964764
320 0.257041
325 20.4115
330 324.151
335 475.908
340 118.104
345 16.3092
350 5.16856
355 4.08116
360 3.69592
365 5.64845
370 9.8547
375 10.1864
380 9.05022
385 10.3058
390 12.3328
395 13.1671
400 12.9574
405 13.9648
410 14.7524
415 14.8873
420 14.3108
425 12.9639
430 11.9737
435 11.3201
440 11.0525
445 10.7867
450 9.86016
455 8.83328
460 8.00433
465 7.36532
470 6.53203
475 6.42846
480 5.76918
485 4.94135
490 4.85142
495 4.36733
500 3.82817
505 3.112
510 2.73386
515 2.59089
520 2.56043
525 2.04987
530 1.92712
535 1.43588
540 1.38405
545 1.04747
550 0.948436
555 0.858024
560 0.753943
565 0.775831
570 0.776913
575 0.570141
580 0.448308
585 0.390483
590 0.439833
595 0.313322
600 0.648178
Ex : 343
200 0.115879
205 0.212828
210 0.12011
215 0.0916265
220 0.137027
225 0.182259
230 0.087166
235 0.167292
240 0.0840455
245 0.147148
250 0.157497
255 0.140162
260 0.0862813
265 0.175775
270 0.0698506
275 0.139067
280 0.0930863
285 0.136786
290 0.23179
295 0.207574
300 0.140087
305 0.180817
310 0.0991911
315 0.181223
320 0.20621
325 0.309959
330 23.3331
335 371.773
340 543.721
345 131.571
350 17.4995
355 4.62458
360 2.98945
365 2.14946
370 3.09798
375 7.02871
380 9.07768
385 9.56161
390 9.93724
395 10.8691
400 10.6482
405 10.7755
410 11.8742
415 12.637
420 12.1697
425 11.3692
430 10.0968
435 9.91677
440 9.40393
445 8.90279
450 8.70033
455 7.46766
460 6.51683
465 6.08508
470 6.1601
475 5.422
480 4.76126
485 4.37911
490 4.07594
495 3.55431
500 3.22259
505 2.93741
510 2.65314
515 2.22061
520 1.96188
525 1.70188
530 1.47252
535 1.42021
540 1.30322
545 1.14051
550 1.08638
555 0.997341
560 0.703724
565 0.776661
570 0.48135
575 0.431327
580 0.383761
585 0.39408
590 0.260957
595 0.36024
600 0.118314
Ex : 348
200 0.0533491
205 0.146698
210 0.117115
215 0.128719
220 0.191019
225 0.114209
230 0.152261
235 0.129642
240 0.172768
245 0.101782
250 0.144823
255 0.130643
260 0.144517
265 0.0567334
270 0.110684
275 0.115483
280 0.101722
285 0.115874
290 0.0969145
295 0.0742253
300 0.129478
305 0.123817
310 0.127228
315 0.13176
320 0.0941708
325 0.16346
330 0.401029
335 24.3367
340 374.129
345 568.777
350 145.208
355 18.551
360 4.42911
365 2.80137
370 1.8277
375 2.53702
380 6.65408
385 11.5133
390 13.358
395 13.1716
400 11.2889
405 12.0569
410 14.4086
415 14.8472
420 14.2685
425 11.9887
430 11.2786
435 11.3501
440 11.1365
445 10.7229
450 9.45796
455 8.41344
460 7.7688
465 7.30049
470 6.52661
475 5.9442
480 5.75845
485 4.89934
490 4.5307
495 4.10473
500 3.52177
505 3.12763
510 2.80457
515 2.73561
520 2.28724
525 1.87243
530 1.88482
535 1.45715
540 1.32267
545 1.33317
550 1.04576
555 0.92139
560 0.813417
565 0.742209
570 0.590469
575 0.509378
580 0.410368
585 0.319214
590 0.396784
595 0.234366
600 0.392229
Ex : 353
200 0.0795796
205 0.0763842
210 0.0701884
215 0.0625153
220 0.14013
225 0.108019
230 0.0841233
235 0.137253
240 0.155912
245 0.104513
250 0.0609504
255 0.108874
260 0.072053
265 0.140332
270 0.101378
275 0.110302
280 0.117278
285 0.137383
290 0.104486
295 0.100011
300 0.0972014
305 0.0718119
310 0.110978
315 0.111796
320 0.191148
325 0.198382
330 0.209345
335 0.642192
340 25.1576
345 389.209
350 574.888
355 141.712
360 18.154
365 3.89929
370 2.32092
375 1.91681
380 3.2439
385 8.68746
390 15.4905
395 16.2825
400 13.8359
405 13.2121
410 14.7399
415 16.8956
420 16.5838
425 14.3738
430 12.5793
435 11.9829
440 12.2601
445 11.8994
450 10.3913
455 9.14281
460 8.46703
465 7.94033
470 7.36628
475 6.81088
480 6.03331
485 5.4061
490 5.15253
495 4.36891
500 3.87266
505 3.65138
510 3.24246
515 3.12275
520 2.24579
525 2.14215
530 1.83557
535 1.70825
540 1.43515
545 1.25142
550 1.1796
555 1.1211
560 0.703008
565 0.616857
570 0.641532
575 0.530934
580 0.482432
585 0.343817
590 0.38929
595 0.291706
600 0.0535675
Ex : 358
200 0.0620576
205 0.0659531
210 0.113786
215 0.116035
220 0.0510618
225 0.092421
230 0.0913914
235 0.134935
240 0.0639779
245 0.0925684
250 0.0807708
255 0.104814
260 0.17934
265 0.0809295
270 0.0729962
275 0.060682
280 0.0540763
285 0.0823145
290 0.0740394
295 0.094143
300 0.186504
305 0.121231
310 0.0928563
315 0.128666
320 0.115773
325 0.140998
330 0.240297
335 0.370189
340 0.546581
345 23.8723
350 379.283
355 589.937
360 147.748
365 18.642
370 4.00594
375 2.68992
380 3.20603
385 6.0914
390 10.9228
395 16.6566
400 14.7314
405 13.1676
410 13.9162
415 15.7984
420 15.2295
425 13.492
430 12.0356
435 11.4116
440 11.6358
445 11.5566
450 10.6823
455 9.21317
460 8.30151
465 7.59704
470 7.84657
475 6.9332
480 6.22677
485 5.62384
490 4.96379
495 4.37777
500 4.45858
505 3.85771
510 3.14058
515 3.0253
520 2.81454
525 2.30921
530 2.07224
535 1.67274
540 1.53389
545 1.48234
550 1.17881
555 1.11332
560 0.974227
565 0.764763
570 0.730941
575 0.462755
580 0.474985
585 0.286212
590 0.289114
595 0.268609
600 0.283087
Ex : 363
200 0.150453
205 0.0283374
210 0.0675331
215 0.064276
220 0.0856266
225 0.0622256
230 0.0773334
235 0.0582869
240 0.102668
245 0.0924979
250 0.0595432
255 0.0862235
260 0.0879567
265 0.0510774
270 0.0638031
275 0.165042
280 0.0999786
285 0.066666
290 0.104782
295 0.0982176
300 0.147645
305 0.205806
310 0.131855
315 0.0900708
320 0.0964772
325 0.129238
330 0.182243
335 0.222703
340 0.283621
345 0.496376
350 21.5257
355 371.185
360 585.815
365 152.499
370 19.275
375 4.33755
380 4.33221
385 7.69479
390 10.752
395 13.1483
400 14.9139
405 17.0312
410 17.8966
415 18.083
420 16.5936
425 14.7346
430 13.2132
435 13.6536
440 13.2136
445 13.0382
450 11.2378
455 9.93895
460 9.19091
465 8.45375
470 8.20676
475 7.00785
480 6.73295
485 6.36962
490 5.64577
495 4.96081
500 4.66014
505 4.20702
510 3.72186
515 3.28083
520 2.94708
525 2.54411
530 2.3402
535 2.02952
540 1.65156
545 1.52697
550 1.38689
555 1.08936
560 1.01493
565 0.912092
570 0.77877
575 0.580269
580 0.524155
585 0.367555
590 0.248928
595 0.286733
600 0.185423
Ex : 368
200 0.126086
205 0.103678
210 0.10651
215 0.049951
220 0.0833086
225 0.0611697
230 0.0497856
235 0.0635666
240 0.130679
245 0.0868557
250 0.0699037
255 0.0913691
260 0.0758781
265 0.100999
270 0.135528
275 0.0799382
280 0.0941683
285 0.0694457
290 0.0716032
295 0.0667991
300 0.0829303
305 0.148726
310 0.104645
315 0.134345
320 0.0585994
325 0.133509
330 0.168912
335 0.250706
340 0.245683
345 0.345175
350 0.610017
355 18.191
360 363.919
365 605.646
370 162.186
375 20.7416
380 6.22642
385 9.17863
390 14.3898
395 15.8866
400 14.9601
405 18.334
410 23.5517
415 24.4111
420 21.709
425 18.3225
430 16.5671
435 16.5058
440 16.1218
445 15.6013
450 14.3056
455 11.9785
460 10.7235
465 10.2503
470 9.57658
475 8.90983
480 7.99939
485 7.22126
490 6.31979
495 5.42228
500 5.36875
505 4.73393
510 4.36758
515 3.67619
520 3.0053
525 2.65753
530 2.68649
535 2.17867
540 2.03827
545 1.79041
550 1.49749
555 1.25303
560 1.1258
565 0.897974
570 0.721716
575 0.549227
580 0.417474
585 0.357718
590 0.363447
595 0.37556
600 0.205765
Ex : 373
200 0.0618136
205 0.0515825
210 0.0666083
215 0.0748148
220 0.0956043
225 0.0904657
230 0.115193
235 0.0530101
240 0.148294
245 0.112852
250 0.070492
255 0.0822665
260 0.0498165
265 0.0568903
270 0.0696613
275 0.0480484
280 0.107363
285 0.130819
290 0.0563957
295 0.111101
300 0.127887
305 0.150441
310 0.0751933
315 0.139368
320 0.10695
325 0.0766621
330 0.0808025
335 0.148298
340 0.151366
345 0.252013
350 0.337416
355 0.558686
360 21.705
365 374.399
370 603.428
375 160.532
380 21.6455
385 8.79724
390 14.3719
395 17.5829
400 15.6167
405 14.7188
410 19.3725
415 25.7878
420 24.5956
425 20.1517
430 16.2154
435 15.0714
440 15.8803
445 15.1137
450 13.6801
455 11.6536
460 10.5777
465 9.72846
470 9.20987
475 8.78751
480 7.93137
485 6.92697
490 6.62913
495 5.79319
500 5.37531
505 4.57391
510 4.24647
515 3.91292
520 3.46975
525 2.83916
530 2.68245
535 2.13827
540 1.94532
545 1.83557
550 1.60491
555 1.29847
560 1.04556
565 0.973385
570 0.700327
575 0.538047
580 0.488742
585 0.422769
590 0.327417
595 0.237451
600 0.027021
Ex : 378
200 0.0984492
205 0.055902
210 0.072133
215 0.0504339
220 0.0540599
225 0.0791395
230 0.0764305
235 0.108403
240 0.0650694
245 0.0366328
250 0.0646117
255 0.117964
260 0.0805272
265 0.0841589
270 0.170161
275 0.0449205
280 0.0758106
285 0.0881705
290 0.0983824
295 0.0916166
300 0.0629642
305 0.0775661
310 0.0738887
315 0.113079
320 0.0949077
325 0.126776
330 0.129009
335 0.0905306
340 0.10637
345 0.149972
350 0.218836
355 0.331096
360 0.498416
365 20.303
370 374.714
375 613.782
380 164.91
385 24.4482
390 12.1836
395 12.9461
400 11.8273
405 11.0997
410 13.1969
415 17.1191
420 18.908
425 16.5125
430 13.5957
435 12.5989
440 12.2339
445 11.9273
450 10.9529
455 9.89669
460 8.92903
465 8.39658
470 7.85445
475 7.3451
480 7.06238
485 6.62693
490 5.70949
495 5.23095
500 4.97484
505 4.54855
510 4.02695
515 3.96187
520 3.14806
525 2.76414
530 2.29502
535 2.08652
540 1.99555
545 1.83109
550 1.47451
555 1.41145
560 1.21242
565 0.943777
570 0.765383
575 0.676556
580 0.460944
585 0.381446
590 0.286753
595 0.278823
600 0.0317291
Ex : 383
200 0.0684585
205 0.125035
210 0.0535668
215 0.13427
220 0.0889621
225 0.160221
230 0.0782942
235 0.0957726
240 0.074079
245 0.0607516
250 0.140656
255 0.12116
260 0.0807861
265 0.0626868
270 0.0563203
275 0.0653995
280 0.0781375
285 0.0675204
290 0.0505685
295 0.063298
300 0.108519
305 0.0830813
310 0.0937626
315 0.0636075
320 0.0666049
325 0.0464826
330 0.137884
335 0.10489
340 0.0936374
345 0.128421
350 0.168754
355 0.165276
360 0.336335
365 0.510462
370 19.0361
375 369.572
380 636.193
385 177.952
390 30.117
395 13.0514
400 10.6994
405 11.431
410 14.2103
415 15.5356
420 15.4354
425 15.9696
430 15.5198
435 14.2197
440 13.6185
445 12.6252
450 11.3792
455 10.2518
460 9.16168
465 8.88966
470 8.49225
475 8.06904
480 7.30052
485 6.65185
490 6.264
495 5.46872
500 5.25921
505 4.74559
510 4.48928
515 3.78274
520 3.12661
525 2.93705
530 2.54146
535 2.27604
540 1.99368
545 1.71255
550 1.48138
555 1.2915
560 1.10386
565 0.987119
570 0.902124
575 0.686945
580 0.505447
585 0.346286
590 0.327464
595 0.276772
600 0.245288
Ex : 388
200 0.0479789
205 0.0842912
210 0.0629187
215 0.0706732
220 0.0993482
225 0.0519451
230 0.0653857
235 0.0578645
240 0.0675483
245 0.115727
250 0.0447296
255 0.0518974
260 0.0761144
265 0.0865651
270 0.0642618
275 0.0711898
280 0.107792
285 0.125252
290 0.0691858
295 0.0549961
300 0.0851813
305 0.110472
310 0.0538651
315 0.0768807
320 0.140636
325 0.0912028
330 0.0614713
335 0.125856
340 0.113668
345 0.102283
350 0.164794
355 0.178386
360 0.286314
365 0.335788
370 0.665858
375 20.8479
380 384.427
385 650.633
390 184.432
395 34.0712
400 15.138
405 14.215
410 17.0924
415 19.6769
420 18.9721
425 16.7623
430 16.9058
435 17.6381
440 17.2412
445 16.0169
450 13.6676
455 11.6179
460 10.5457
465 10.1557
470 9.63785
475 9.11203
480 8.38072
485 7.27558
490 6.70051
495 5.98893
500 5.4718
505 4.93565
510 4.67538
515 4.09769
520 3.24695
525 2.91629
530 2.59464
535 2.44754
540 2.00317
545 1.83221
550 1.55011
555 1.43765
560 1.17026
565 1.0297
570 0.799534
575 0.688671
580 0.48261
585 0.41756
590 0.365174
595 0.292157
600 0.550762
Ex : 393
200 0.112899
205 0.0893763
210 0.0484235
215 0.0979832
220 0.0591978
225 0.0662611
230 0.120641
235 0.0574879
240 0.0609404
245 0.0577876
250 0.0611128
255 0.0711632
260 0.0488783
265 0.0607683
270 0.0677983
275 0.0770557
280 0.0268638
285 0.0515177
290 0.0827774
295 0.0651327
300 0.0585729
305 0.112224
310 0.0749135
315 0.0688196
320 0.0878608
325 0.0593383
330 0.0987308
335 0.0901668
340 0.0658158
345 0.0776236
350 0.142903
355 0.144928
360 0.214935
365 0.182669
370 0.390942
375 0.788497
380 19.0363
385 376.906
390 654.029
395 189.732
400 34.3873
405 15.45
410 16.3585
415 20.3553
420 20.0402
425 16.8252
430 14.2508
435 15.2654
440 17.3583
445 16.4378
450 14.4952
455 12.1414
460 10.1072
465 9.4455
470 9.20406
475 8.32207
480 7.75501
485 6.97916
490 6.33034
495 5.78039
500 5.2267
505 4.80753
510 4.28047
515 3.83583
520 3.34204
525 2.88798
530 2.49426
535 2.34116
540 2.06775
545 1.71658
550 1.63706
555 1.45759
560 1.36489
565 1.03296
570 0.859207
575 0.683054
580 0.560372
585 0.387294
590 0.281878
595 0.260407
600 0.0296333
Ex : 398
200 0.0574016
205 0.0633058
210 0.0642476
215 0.0510752
220 0.0650523
225 0.0672843
230 0.0828475
235 0.0350812
240 0.0417368
245 0.0852278
250 0.0527463
255 0.0644554
260 0.096692
265 0.10082
270 0.0364712
275 0.0438949
280 0.0614444
285 0.0781046
290 0.0704763
295 0.103217
300 0.0736042
305 0.064112
310 0.0759534
315 0.06158
320 0.0377212
325 0.0627267
330 0.052648
335 0.118619
340 0.0760506
345 0.107371
350 0.106254
355 0.157313
360 0.17104
365 0.149752
370 0.257674
375 0.374426
380 0.798935
385 20.9234
390 393.218
395 674.753
400 185.851
405 28.6395
410 11.4045
415 12.8946
420 13.4577
425 11.194
430 9.0139
435 8.73978
440 10.3763
445 12.5628
450 11.6736
455 9.28264
460 8.1891
465 7.38639
470 6.67032
475 6.58279
480 6.27872
485 5.53859
490 5.27887
495 4.80993
500 4.28176
505 4.09278
510 3.90107
515 3.29903
520 3.1396
525 2.82611
530 2.40692
535 1.95017
540 1.99672
545 1.78052
550 1.628
555 1.36648
560 1.14782
565 0.86195
570 0.715866
575 0.660804
580 0.448271
585 0.467248
590 0.342728
595 0.232962
600 0.179201
Ex : 403
200 0.048412
205 0.0576086
210 0.0959857
215 0.0932199
220 0.0643152
225 0.0613768
230 0.038346
235 0.0387737
240 0.033603
245 0.0799672
250 0.117073
255 0.125178
260 0.0586534
265 0.0351323
270 0.0462259
275 0.115517
280 0.060631
285 0.0760855
290 0.0717304
295 0.0612095
300 0.0467291
305 0.062919
310 0.0761997
315 0.0650839
320 0.0891099
325 0.0803535
330 0.113676
335 0.112284
340 0.0926751
345 0.0978823
350 0.0876774
355 0.0580355
360 0.115009
365 0.125999
370 0.171237
375 0.22771
380 0.433188
385 0.881714
390 23.1064
395 404.416
400 671.069
405 183.376
410 25.6357
415 8.55611
420 7.16605
425 6.71431
430 5.65967
435 5.74475
440 6.29828
445 6.93905
450 8.50504
455 8.57566
460 7.08187
465 6.44516
470 5.76002
475 5.46295
480 5.06201
485 4.80094
490 4.59492
495 4.21069
500 4.09237
505 3.62672
510 3.46403
515 3.06594
520 2.85465
525 2.63764
530 2.40483
535 2.06048
540 1.78111
545 1.72465
550 1.49353
555 1.32786
560 1.02597
565 0.946333
570 0.865339
575 0.733862
580 0.433747
585 0.335555
590 0.339277
595 0.243899
600 0.382843
Ex : 408
200 0.0523526
205 0.0527794
210 0.0456522
215 0.0650981
220 0.0935777
225 0.0686315
230 0.0780913
235 0.0671201
240 0.104159
245 0.0560576
250 0.154225
255 0.0845576
260 0.0520605
265 0.0943126
270 0.0351924
275 0.0469078
280 0.05437
285 0.136526
290 0.0589441
295 0.0563356
300 0.0679829
305 0.0593288
310 0.11149
315 0.11397
320 0.0686822
325 0.036424
330 0.0636388
335 0.0491314
340 0.0772538
345 0.0720707
350 0.0942658
355 0.0967978
360 0.135401
365 0.116123
370 0.146632
375 0.146538
380 0.220862
385 0.464024
390 0.882695
395 21.1737
400 407.519
405 683.657
410 181.806
415 26.3928
420 8.44628
425 5.84734
430 5.81316
435 5.70123
440 6.45159
445 6.47189
450 6.45054
455 7.55868
460 8.24926
465 7.1211
470 6.43137
475 6.00537
480 5.17156
485 4.91904
490 4.58749
495 4.31056
500 3.9089
505 3.58485
510 3.51466
515 3.15007
520 2.82445
525 2.75401
530 2.25255
535 2.00752
540 1.75652
545 1.5391
550 1.49433
555 1.33982
560 1.08077
565 0.895381
570 0.690001
575 0.678059
580 0.465855
585 0.360516
590 0.317043
595 0.219009
600 0.342504
Ex : 413
200 0.0779664
205 0.0636568
210 0.0446551
215 0.0655949
220 0.0471027
225 0.0754433
230 0.0902448
235 0.0804048
240 0.056336
245 0.0446632
250 0.0718668
255 0.062897
260 0.0532704
265 0.0472577
270 0.0936567
275 0.0643649
280 0.0423174
285 0.0607848
290 0.0765006
295 0.0332314
300 0.0769198
305 0.110066
310 0.0563573
315 0.076637
320 0.0795004
325 0.0715906
330 0.0621774
335 0.0984143
340 0.0901116
345 0.0733109
350 0.124503
355 0.11876
360 0.0983831
365 0.0735913
370 0.118106
375 0.136967
380 0.258096
385 0.266561
390 0.431969
395 0.775616
400 23.0205
405 424.268
410 680.419
415 176.189
420 25.1881
425 7.33779
430 5.084
435 5.41377
440 5.69364
445 5.6797
450 5.46104
455 5.19264
460 5.71985
465 7.94313
470 6.90197
475 5.84361
480 5.26598
485 4.87302
490 4.42442
495 4.07411
500 3.82524
505 3.4569
510 3.25522
515 2.82014
520 2.81674
525 2.45633
530 2.18642
535 2.01102
540 1.92614
545 1.7038
550 1.35478
555 1.25528
560 1.11429
565 1.00411
570 0.734437
575 0.565275
580 0.546396
585 0.43671
590 0.292734
595 0.198265
600 0.50135
Ex : 418
200 0.0840534
205 0.0510717
210 0.0682482
215 0.0860571
220 0.0780112
225 0.11302
230 0.0645524
235 0.0611793
240 0.0524029
245 0.0323216
250 0.0331876
255 0.060608
260 0.0487222
265 0.0794181
270 0.0596677
275 0.080066
280 0.0561936
285 0.0561648
290 0.0360387
295 0.0787044
300 0.141403
305 0.0855104
310 0.0893391
315 0.0596149
320 0.0518618
325 0.0364556
330 0.0856832
335 0.130191
340 0.0844953
345 0.0804891
350 0.106572
355 0.0624056
360 0.0772675
365 0.071761
370 0.147477
375 0.15987
380 0.197708
385 0.237115
390 0.223512
395 0.370277
400 0.84864
405 22.4124
410 416.153
415 688.071
420 184.687
425 24.3955
430 5.56375
435 3.69712
440 3.86063
445 3.79087
450 3.39368
455 3.22123
460 3.22135
465 3.94613
470 5.87109
475 5.99037
480 4.58152
485 4.26959
490 3.76382
495 3.17461
500 3.16495
505 2.80784
510 2.71144
515 2.66928
520 2.39967
525 2.0552
530 1.83583
535 1.69041
540 1.48618
545 1.36817
550 1.28952
555 1.18888
560 1.01279
565 0.894075
570 0.670236
575 0.580139
580 0.427972
585 0.360825
590 0.233674
595 0.194213
600 0.139091
Ex : 423
200 0.0615996
205 0.0965822
210 0.0522921
215 0.0574733
220 0.122238
225 0.0670254
230 0.0816172
235 0.0577145
240 0.0772056
245 0.129493
250 0.0644132
255 0.082197
260 0.0810125
265 0.0984439
270 0.0657595
275 0.0878199
280 0.0806129
285 0.0414898
290 0.0418522
295 0.0562335
300 0.0559823
305 0.0624883
310 0.0737465
315 0.073823
320 0.0384745
325 0.0604557
330 0.113089
335 0.0784907
340 0.0728094
345 0.110925
350 0.0909315
355 0.150827
360 0.0982632
365 0.127305
370 0.132643
375 0.143209
380 0.15141
385 0.143494
390 0.153734
395 0.261523
400 0.439417
405 0.821418
410 22.5907
415 429.978
420 675.58
425 171.781
430 21.688
435 4.28612
440 2.27665
445 2.32605
450 2.40214
455 2.14635
460 2.01058
465 2.17588
470 2.4474
475 4.27859
480 4.94453
485 3.93892
490 3.47554
495 3.05516
500 2.61275
505 2.5754
510 2.30669
515 2.16636
520 2.18856
525 1.82941
530 1.69202
535 1.53582
540 1.44685
545 1.33755
550 1.31179
555 1.09797
560 0.880821
565 0.857609
570 0.6357
575 0.513919
580 0.37941
585 0.316278
590 0.31344
595 0.299129
600 0.254143
Ex : 428
200 0.091852
205 0.0424303
210 0.048702
215 0.0678433
220 0.0348033
225 0.0959157
230 0.0847475
235 0.0683597
240 0.0398761
245 0.026822
250 0.0567766
255 0.102409
260 0.0611038
265 0.0361308
270 0.0475737
275 0.0570901
280 0.0586848
285 0.044398
290 0.143363
295 0.0482007
300 0.0419549
305 0.0742722
310 0.0696306
315 0.0402131
320 0.133093
325 0.067492
330 0.104985
335 0.0408579
340 0.105484
345 0.070358
350 0.0884611
355 0.0756668
360 0.110862
365 0.087588
370 0.0983393
375 0.0871591
380 0.126077
385 0.156287
390 0.118559
395 0.186998
400 0.247854
405 0.421351
410 0.67275
415 24.4549
420 431.877
425 696.361
430 182.277
435 22.4827
440 3.92268
445 1.74551
450 1.72398
455 1.76875
460 1.55114
465 1.50536
470 1.74311
475 1.96573
480 3.23998
485 4.74586
490 3.78763
495 3.01557
500 2.76668
505 2.32087
510 2.12465
515 1.85543
520 1.9861
525 1.71112
530 1.73357
535 1.5088
540 1.35916
545 1.21815
550 1.16745
555 1.03559
560 1.01767
565 0.773856
570 0.562839
575 0.476477
580 0.450815
585 0.372588
590 0.235393
595 0.239847
600 0.643205
Ex : 433
200 0.112951
205 0.0514056
210 0.0620871
215 0.121479
220 0.0777833
225 0.0489647
230 0.0508143
235 0.0912023
240 0.0539458
245 0.0459874
250 0.0807971
255 0.0583801
260 0.0776627
265 0.0607204
270 0.0765324
275 0.0523235
280 0.130122
285 0.0922538
290 0.0318042
295 0.0481223
300 0.0402376
305 0.0516289
310 0.0850885
315 0.103012
320 0.0708832
325 0.0773076
330 0.0554585
335 0.0778766
340 0.0925754
345 0.132964
350 0.108716
355 0.0529261
360 0.0941855
365 0.0986271
370 0.077749
375 0.0741812
380 0.106615
385 0.109487
390 0.130591
395 0.153515
400 0.182877
405 0.244054
410 0.409593
415 0.684965
420 28.4787
425 475.1
430 710.358
435 176.965
440 21.714
445 3.72001
450 1.51512
455 1.57655
460 1.71973
465 1.60125
470 1.44623
475 1.5755
480 1.77946
485 2.73896
490 4.43126
495 3.8656
500 2.69988
505 2.59413
510 2.24046
515 1.93396
520 1.82252
525 1.7665
530 1.46241
535 1.39959
540 1.23472
545 1.10634
550 1.05523
555 0.935665
560 0.877505
565 0.768571
570 0.638396
575 0.540183
580 0.376246
585 0.362459
590 0.317564
595 0.263406
600 0.191103
Ex : 438
200 0.0348121
205 0.0686823
210 0.112739
215 0.0465685
220 0.0764667
225 0.0638115
230 0.0602488
235 0.0417365
240 0.129982
245 0.0706737
250 0.06167
255 0.0347668
260 0.0471032
265 0.0663414
270 0.0659116
275 0.0704024
280 0.051027
285 0.0578866
290 0.10214
295 0.0496701
300 0.10386
305 0.0547995
310 0.104813
315 0.0788453
320 0.0542662
325 0.0889689
330 0.0485779
335 0.0717961
340 0.0642222
345 0.0742036
350 0.0940844
355 0.0758341
360 0.0895586
365 0.077656
370 0.117834
375 0.138066
380 0.0884374
385 0.0867634
390 0.0986767
395 0.133737
400 0.12846
405 0.249673
410 0.229044
415 0.321208
420 0.674667
425 26.9221
430 461.043
435 745.464
440 187.829
445 23.023
450 3.90719
455 1.56847
460 1.54268
465 1.7138
470 1.60003
475 1.53227
480 1.51763
485 1.63492
490 2.1166
495 3.60793
500 3.96907
505 2.79035
510 2.3719
515 2.13081
520 1.79586
525 1.55428
530 1.47152
535 1.38066
540 1.26582
545 1.18992
550 1.10051
555 0.814903
560 0.862864
565 0.646476
570 0.561801
575 0.578351
580 0.446532
585 0.394052
590 0.305781
595 0.223517
600 0.486028
Ex : 443
200 0.0752018
205 0.049005
210 0.0369095
215 0.0261991
220 0.0558499
225 0.0655069
230 0.0423444
235 0.107424
240 0.0596729
245 0.0361054
250 0.0553343
255 0.0732563
260 0.0497503
265 0.0804299
270 0.0592787
275 0.0647037
280 0.0612658
285 0.045918
290 0.0480381
295 0.036926
300 0.0511853
305 0.0640217
310 0.0353209
315 0.0358834
320 0.088287
325 0.107582
330 0.0761071
335 0.0434959
340 0.0630869
345 0.121363
350 0.0752066
355 0.0697101
360 0.128369
365 0.0952818
370 0.0612251
375 0.0921722
380 0.0651954
385 0.152591
390 0.0834374
395 0.135811
400 0.135368
405 0.194621
410 0.230993
415 0.292211
420 0.382299
425 0.625542
430 30.1528
435 495.958
440 755.953
445 187.901
450 23.014
455 4.07159
460 1.581
465 1.58508
470 1.75276
475 1.58979
480 1.3304
485 1.4304
490 1.46518
495 1.80804
500 2.81804
505 3.79412
510 2.62098
515 2.26302
520 1.91589
525 1.64397
530 1.39509
535 1.2696
540 1.18942
545 1.0272
550 0.968873
555 0.854185
560 0.862247
565 0.759317
570 0.657154
575 0.484778
580 0.418062
585 0.366258
590 0.275815
595 0.256237
600 0.244085
Ex : 448
200 0.0405665
205 0.0766261
210 0.0597814
215 0.0426321
220 0.0885731
225 0.0563203
230 0.0589539
235 0.103489
240 0.0657655
245 0.0522387
250 0.0512109
255 0.045358
260 0.0494611
265 0.0482728
270 0.0572225
275 0.0839616
280 0.0666854
285 0.0533456
290 0.0406499
295 0.0807061
300 0.0685367
305 0.129507
310 0.0998767
315 0.0665439
320 0.0550579
325 0.0323616
330 0.0436725
335 0.0743695
340 0.0932979
345 0.0884836
350 0.0669603
355 0.0676954
360 0.0616154
365 0.106507
370 0.111709
375 0.106057
380 0.0557389
385 0.0870483
390 0.0962271
395 0.0966729
400 0.127981
405 0.141949
410 0.131903
415 0.182636
420 0.179115
425 0.39991
430 0.672019
435 30.5121
440 521.377
445 796.804
450 198.469
455 24.1911
460 4.15885
465 1.76837
470 1.47909
475 1.68419
480 1.53013
485 1.293
490 1.34831
495 1.29309
500 1.48514
505 2.24038
510 3.50604
515 3.04362
520 2.07197
525 1.90023
530 1.63626
535 1.37651
540 1.30661
545 1.10666
550 0.902
555 0.978606
560 0.898828
565 0.659061
570 0.672486
575 0.52215
580 0.396126
585 0.253121
590 0.248105
595 0.23079
600 0.0351251
Ex : 453
200 0.066787
205 0.0964964
210 0.0461318
215 0.0531996
220 0.0577272
225 0.0812352
230 0.0647835
235 0.0680719
240 0.0545548
245 0.0665543
250 0.0685704
255 0.0662753
260 0.0558365
265 0.0677282
270 0.077531
275 0.0575093
280 0.0694526
285 0.101883
290 0.0311613
295 0.0882328
300 0.10417
305 0.0603599
310 0.087855
315 0.0611053
320 0.0583111
325 0.076218
330 0.062906
335 0.0697093
340 0.0521724
345 0.0456058
350 0.0826823
355 0.0591157
360 0.115145
365 0.0873168
370 0.101797
375 0.0991585
380 0.123429
385 0.0740366
390 0.0882022
395 0.120192
400 0.0755541
405 0.166695
410 0.175271
415 0.188797
420 0.244601
425 0.323549
430 0.374093
435 0.844406
440 32.0531
445 570.556
450 830.022
455 194.937
460 23.9802
465 4.15999
470 1.6052
475 1.41022
480 1.61008
485 1.55022
490 1.33171
495 1.13045
500 1.34506
505 1.27323
510 1.70324
515 2.99984
520 3.07085
525 2.20576
530 1.83103
535 1.68329
540 1.15741
545 0.989037
550 1.02268
555 0.826184
560 0.81479
565 0.729681
570 0.646497
575 0.468969
580 0.3824
585 0.290736
590 0.294472
595 0.204768
600 0.316839
Ex : 458
200 0.0519935
205 0.0984937
210 0.0738005
215 0.0930819
220 0.0651588
225 0.0564821
230 0.0502062
235 0.0700977
240 0.0397982
245 0.056242
250 0.0403945
255 0.0582405
260 0.0678096
265 0.0923605
270 0.0305516
275 0.0373293
280 0.0888366
285 0.0977878
290 0.0965694
295 0.0627145
300 0.083616
305 0.0530137
310 0.0606248
315 0.0614473
320 0.0894689
325 0.0702274
330 0.0793853
335 0.0604881
340 0.0791641
345 0.0713731
350 0.0857898
355 0.0759219
360 0.0664688
365 0.0833992
370 0.139925
375 0.059122
380 0.128925
385 0.111732
390 0.0812158
395 0.112599
400 0.0602922
405 0.127268
410 0.106424
415 0.139188
420 0.146459
425 0.235071
430 0.254836
435 0.377153
440 0.801899
445 36.1975
450 588.634
455 884.324
460 215.599
465 26.4829
470 4.33102
475 1.67575
480 1.4889
485 1.57271
490 1.48293
495 1.26207
500 1.09732
505 1.1718
510 1.17928
515 1.48763
520 2.48634
525 3.13614
530 2.2087
535 1.80893
540 1.56232
545 1.21764
550 1.02166
555 0.886635
560 0.778642
565 0.66969
570 0.692993
575 0.536832
580 0.382832
585 0.344469
590 0.274317
595 0.265054
600 0.0301622
Ex : 463
200 0.0371474
205 0.0388253
210 0.0705605
215 0.0846984
220 0.0869485
225 0.0493015
230 0.0890024
235 0.0611535
240 0.0960988
245 0.0599608
250 0.0493881
255 0.0694294
260 0.0706752
265 0.0642355
270 0.0568957
275 0.0743015
280 0.0768749
285 0.0741926
290 0.051524
295 0.0676234
300 0.0579118
305 0.0597585
310 0.0620864
315 0.0887968
320 0.114074
325 0.0583236
330 0.08497
335 0.0903626
340 0.0620041
345 0.068795
350 0.0599162
355 0.0619385
360 0.0692142
365 0.070115
370 0.0950785
375 0.0766426
380 0.123596
385 0.0887627
390 0.0978335
395 0.115855
400 0.102491
405 0.107152
410 0.119084
415 0.117584
420 0.146786
425 0.172609
430 0.182072
435 0.269913
440 0.424374
445 0.812162
450 35.3892
455 622.357
460 950.073
465 230.247
470 28.2217
475 4.63309
480 1.61961
485 1.30472
490 1.46232
495 1.46934
500 1.15296
505 1.02436
510 1.18188
515 1.20358
520 1.19965
525 1.88703
530 2.99783
535 2.47214
540 1.6987
545 1.54254
550 1.32221
555 0.95841
560 0.777755
565 0.689086
570 0.668286
575 0.530124
580 0.388944
585 0.325739
590 0.250273
595 0.254461
600 1.03134
Ex : 468
200 0.0615185
205 0.0335617
210 0.0468579
215 0.0496886
220 0.0634981
225 0.0459105
230 0.0450683
235 0.042853
240 0.0400976
245 0.0609641
250 0.079715
255 0.0874344
260 0.110247
265 0.0714903
270 0.0507592
275 0.0602887
280 0.0632092
285 0.0855138
290 0.0597039
295 0.0535737
300 0.0597024
305 0.115066
310 0.0930148
315 0.0602387
320 0.0712977
325 0.0698998
330 0.0620999
335 0.0584897
340 0.0572812
345 0.0663853
350 0.0638653
355 0.066921
360 0.0546612
365 0.0831308
370 0.120432
375 0.0762711
380 0.121863
385 0.0631044
390 0.0718255
395 0.0874568
400 0.0995684
405 0.10949
410 0.0964004
415 0.0759719
420 0.124096
425 0.127104
430 0.170152
435 0.221809
440 0.29829
445 0.482998
450 0.891477
455 39.1545
460 635.002
465 1007.49
470 243.311
475 29.4147
480 4.68268
485 1.50196
490 1.32312
495 1.41401
500 1.43356
505 1.25861
510 1.12309
515 1.04728
520 1.1076
525 1.24108
530 1.54308
535 2.62107
540 2.75841
545 1.74009
550 1.40136
555 1.16014
560 0.935406
565 0.820125
570 0.586888
575 0.571964
580 0.44131
585 0.341372
590 0.307326
595 0.277447
600 0.196222
Ex : 473
200 0.123624
205 0.107171
210 0.03952
215 0.113007
220 0.0948016
225 0.0687445
230 0.110632
235 0.0748008
240 0.0414619
245 0.123221
250 0.0674568
255 0.0572752
260 0.071742
265 0.0726554
270 0.0832293
275 0.0740221
280 0.0609661
285 0.0578167
290 0.0539987
295 0.0641511
300 0.0607716
305 0.0552203
310 0.0862752
315 0.0979516
320 0.0636366
325 0.140301
330 0.0698329
335 0.0713879
340 0.086922
345 0.0733247
350 0.0751369
355 0.0526938
360 0.0804512
365 0.102398
370 0.062148
375 0.0879273
380 0.0602169
385 0.0878288
390 0.123117
395 0.086843
400 0.101051
405 0.121393
410 0.140012
415 0.101518
420 0.100259
425 0.146701
430 0.190649
435 0.269948
440 0.264002
445 0.377724
450 0.543783
455 0.984807
460 45.8481
465 710.042
470 996.615
475 230.61
480 28.1194
485 4.47163
490 1.61998
495 1.18215
500 1.30478
505 1.29384
510 1.15242
515 1.08641
520 1.02088
525 0.976807
530 1.24246
535 1.2097
540 2.091
545 2.55989
550 1.81131
555 1.29383
560 1.24393
565 0.992113
570 0.755459
575 0.45126
580 0.523773
585 0.413925
590 0.361018
595 0.290636
600 0.233432
Ex : 478
200 0.0403647
205 0.112308
210 0.0367417
215 0.103184
220 0.0502143
225 0.0649586
230 0.0677338
235 0.0425238
240 0.0992608
245 0.0638593
250 0.0567689
255 0.105415
260 0.0670165
265 0.0953692
270 0.0785675
275 0.049702
280 0.0815079
285 0.148404
290 0.0968975
295 0.084696
300 0.0929015
305 0.0951884
310 0.115074
315 0.0935563
320 0.101687
325 0.1027
330 0.0479773
335 0.115011
340 0.0727614
345 0.0948041
350 0.0854935
355 0.0493519
360 0.105503
365 0.0666047
370 0.10713
375 0.0987536
380 0.0739535
385 0.124746
390 0.0763854
395 0.114968
400 0.128019
405 0.0943956
410 0.0781842
415 0.132113
420 0.120196
425 0.116683
430 0.124444
435 0.162682
440 0.211797
445 0.257376
450 0.338015
455 0.537372
460 1.12504
465 51.1417
470 746.904
475 1041.67
480 251.33
485 30.3032
490 4.8288
495 1.56358
500 1.1311
505 1.12448
510 1.25646
515 1.18548
520 1.09726
525 1.04756
530 1.0826
535 1.11642
540 1.07433
545 1.43171
550 2.24803
555 1.94387
560 1.18737
565 1.00467
570 0.918032
575 0.626453
580 0.462117
585 0.390295
590 0.39463
595 0.322065
600 0.133578
Ex : 483
200 0.0302655
205 0.0517209
210 0.0623623
215 0.0826027
220 0.108023
225 0.0922669
230 0.071571
235 0.0749512
240 0.0732652
245 0.0633344
250 0.0808788
255 0.0722766
260 0.0474903
265 0.0785182
270 0.0596807
275 0.0715616
280 0.0376614
285 0.0632291
290 0.132177
295 0.0938133
300 0.0686991
305 0.11749
310 0.0827482
315 0.0673944
320 0.0935188
325 0.06518
330 0.121312
335 0.0928261
340 0.106843
345 0.0850595
350 0.0550026
355 0.0885093
360 0.0698799
365 0.107306
370 0.0991502
375 0.106381
380 0.117239
385 0.113115
390 0.137382
395 0.0974858
400 0.123192
405 0.0693741
410 0.0851905
415 0.119974
420 0.121787
425 0.0943288
430 0.114297
435 0.18525
440 0.226222
445 0.168841
450 0.299829
455 0.342707
460 0.605462
465 1.24097
470 41.8469
475 751.845
480 1135.1
485 269.456
490 32.484
495 4.90316
500 1.58731
505 1.08034
510 1.08336
515 1.20153
520 1.31429
525 1.1417
530 0.973684
535 0.9365
540 0.989084
545 0.904218
550 1.14007
555 1.90997
560 1.9389
565 1.30828
570 0.905099
575 0.700854
580 0.582351
585 0.372565
590 0.389422
595 0.319333
600 0.226459
Ex : 488
200 0.136841
205 0.0597068
210 0.0917951
215 0.0626618
220 0.0926058
225 0.0702336
230 0.0753507
235 0.107999
240 0.0561015
245 0.102137
250 0.0576868
255 0.0566335
260 0.0491237
265 0.0588722
270 0.0777425
275 0.0907203
280 0.118282
285 0.107124
290 0.0651832
295 0.0938229
300 0.0990271
305 0.0476983
310 0.0824076
315 0.105365
320 0.0732226
325 0.0697854
330 0.0921225
335 0.100142
340 0.0688524
345 0.0954421
350 0.0984878
355 0.0949452
360 0.128147
365 0.106023
370 0.129744
375 0.0886146
380 0.15595
385 0.121895
390 0.0984351
395 0.0741528
400 0.145685
405 0.142257
410 0.141301
415 0.134213
420 0.18424
425 0.146739
430 0.147556
435 0.127802
440 0.175834
445 0.169268
450 0.308456
455 0.264115
460 0.40967
465 0.838612
470 1.26308
475 50.4892
480 815.465
485 1139.42
490 266.662
495 32.1361
500 4.86496
505 1.53331
510 1.09173
515 1.08949
520 1.34002
525 1.28002
530 1.02676
535 0.874443
540 0.887181
545 0.834714
550 0.886681
555 0.968977
560 1.49046
565 1.87441
570 1.299
575 0.679299
580 0.739489
585 0.618859
590 0.403371
595 0.320629
600 0.25122
Ex : 493
200 0.0725524
205 0.06298
210 0.0779312
215 0.0801406
220 0.0664911
225 0.077678
230 0.0974028
235 0.130188
240 0.0890464
245 0.111489
250 0.0819142
255 0.0897903
260 0.105738
265 0.093211
270 0.0538599
275 0.0504352
280 0.0690685
285 0.116703
290 0.112105
295 0.0697187
300 0.0760723
305 0.0760563
310 0.0437865
315 0.1288
320 0.0908584
325 0.0826201
330 0.0616896
335 0.0618044
340 0.0755107
345 0.0712699
350 0.116182
355 0.0761234
360 0.0875132
365 0.0953952
370 0.106442
375 0.164665
380 0.0680122
385 0.124311
390 0.0858709
395 0.106539
400 0.0979922
405 0.0971998
410 0.146307
415 0.107078
420 0.135721
425 0.111562
430 0.144084
435 0.115582
440 0.209042
445 0.163273
450 0.21707
455 0.249961
460 0.289055
465 0.361373
470 0.734057
475 1.19278
480 48.4468
485 818.449
490 1209.05
495 278.959
500 33.5981
505 4.90535
510 1.62402
515 1.11766
520 1.17208
525 1.22773
530 1.1755
535 1.08778
540 0.94067
545 0.818606
550 0.874084
555 0.783929
560 0.838905
565 1.06621
570 1.7368
575 1.31738
580 0.688163
585 0.580151
590 0.462791
595 0.382567
600 0.18399
Ex : 498
200 0.071712
205 0.0675065
210 0.060312
215 0.123869
220 0.158477
225 0.133924
230 0.0801496
235 0.0772085
240 0.0630416
245 0.0914094
250 0.112219
255 0.11812
260 0.070153
265 0.0746284
270 0.102006
275 0.100246
280 0.0785067
285 0.114358
290 0.0907149
295 0.0971482
300 0.130415
305 0.0836094
310 0.0744365
315 0.142242
320 0.158118
325 0.144948
330 0.107477
335 0.133809
340 0.0774713
345 0.136551
350 0.0919648
355 0.120807
360 0.123608
365 0.0822288
370 0.0944909
375 0.107719
380 0.0906122
385 0.104499
390 0.150408
395 0.130248
400 0.113565
405 0.0767577
410 0.117716
415 0.11278
420 0.152057
425 0.146503
430 0.144694
435 0.211548
440 0.196792
445 0.165164
450 0.140302
455 0.18593
460 0.261727
465 0.347803
470 0.448739
475 0.707081
480 1.41434
485 58.9369
490 888.832
495 1205.51
500 277.526
505 33.5037
510 4.98163
515 1.63728
520 1.00087
525 1.18375
530 1.20092
535 1.08142
540 1.07046
545 0.88754
550 0.840716
555 0.669755
560 0.582034
565 0.697096
570 0.761733
575 1.07636
580 1.23922
585 0.684955
590 0.43346
595 0.361447
600 0.241361
Ex : 503
200 0.0418701
205 0.110633
210 0.0936236
215 0.091768
220 0.053853
225 0.0848936
230 0.0855647
235 0.0773287
240 0.0984538
245 0.112559
250 0.0648667
255 0.109488
260 0.114808
265 0.0682004
270 0.10766
275 0.0536363
280 0.10953
285 0.190286
290 0.109355
295 0.144426
300 0.153107
305 0.0803143
310 0.0974511
315 0.0602707
320 0.0665042
325 0.0900756
330 0.0947176
335 0.0996048
340 0.110301
345 0.128131
350 0.168105
355 0.194529
360 0.10416
365 0.10433
370 0.097927
375 0.123746
380 0.0845528
385 0.18343
390 0.194288
395 0.172694
400 0.0938609
405 0.146341
410 0.148463
415 0.128565
420 0.129534
425 0.093381
430 0.114737
435 0.168236
440 0.161932
445 0.231112
450 0.200056
455 0.176762
460 0.297324
465 0.280487
470 0.335481
475 0.37983
480 0.797586
485 1.16879
490 53.6033
495 874.242
500 1230.41
505 284.847
510 34.269
515 5.12572
520 1.72757
525 1.27364
530 1.10014
535 1.23862
540 1.12098
545 0.908635
550 0.857454
555 0.755115
560 0.744423
565 0.667512
570 0.615944
575 0.583634
580 0.730363
585 1.0167
590 0.74886
595 0.447285
600 0.446737
Ex : 508
200 0.102636
205 0.116686
210 0.0937807
215 0.109848
220 0.0601509
225 0.087047
230 0.094278
235 0.0638137
240 0.0721507
245 0.103938
250 0.06272
255 0.0526335
260 0.0647326
265 0.101985
270 0.0723455
275 0.0732047
280 0.12339
285 0.0746381
290 0.117401
295 0.0926082
300 0.117082
305 0.147951
310 0.0670407
315 0.094567
320 0.0829777
325 0.0499147
330 0.151238
335 0.120998
340 0.0635362
345 0.140185
350 0.089375
355 0.145665
360 0.0682365
365 0.153524
370 0.0880352
375 0.100769
380 0.128395
385 0.103716
390 0.13022
395 0.0879214
400 0.121085
405 0.157716
410 0.162517
415 0.113212
420 0.0971638
425 0.105359
430 0.199189
435 0.0914017
440 0.121298
445 0.183005
450 0.234409
455 0.181059
460 0.181239
465 0.232564
470 0.316386
475 0.352519
480 0.443138
485 0.771125
490 1.34282
495 59.1402
500 899.155
505 1271.72
510 306.138
515 36.6797
520 5.61439
525 1.87873
530 1.16097
535 0.948148
540 1.12549
545 1.02901
550 0.980797
555 0.859257
560 0.684786
565 0.67985
570 0.5377
575 0.525233
580 0.506223
585 0.578679
590 0.789033
595 0.783982
600 0.752855
Ex : 513
200 0.100524
205 0.105149
210 0.11385
215 0.108059
220 0.127426
225 0.105296
230 0.126055
235 0.0857998
240 0.132831
245 0.110881
250 0.0988978
255 0.0891261
260 0.12503
265 0.151533
270 0.101899
275 0.22725
280 0.183887
285 0.0829679
290 0.07489
295 0.116197
300 0.0632031
305 0.113712
310 0.0880217
315 0.101458
320 0.14091
325 0.129341
330 0.146991
335 0.063069
340 0.15928
345 0.161632
350 0.106566
355 0.092032
360 0.0717901
365 0.0806834
370 0.184931
375 0.115001
380 0.106644
385 0.0857118
390 0.106252
395 0.119809
400 0.0843795
405 0.08419
410 0.138091
415 0.141171
420 0.172319
425 0.113572
430 0.190986
435 0.136284
440 0.16115
445 0.164808
450 0.182329
455 0.161173
460 0.183449
465 0.179701
470 0.208287
475 0.255953
480 0.343756
485 0.445436
490 0.841157
495 1.28138
500 53.7232
505 896.076
510 1298.73
515 316.089
520 38.1653
525 5.59654
530 1.85546
535 1.33914
540 0.952405
545 0.936825
550 0.796625
555 0.750216
560 0.645661
565 0.628037
570 0.489087
575 0.48607
580 0.530294
585 0.401024
590 0.389803
595 0.593636
600 0.833664
Ex : 518
200 0.0906289
205 0.154715
210 0.129535
215 0.0617277
220 0.179982
225 0.127544
230 0.136546
235 0.0959447
240 0.117883
245 0.0836262
250 0.0475535
255 0.141066
260 0.0808419
265 0.124565
270 0.0955455
275 0.0917914
280 0.135449
285 0.140935
290 0.115807
295 0.181375
300 0.103099
305 0.0892725
310 0.121307
315 0.125038
320 0.180443
325 0.120672
330 0.105905
335 0.116238
340 0.119776
345 0.143004
350 0.106882
355 0.155827
360 0.13352
365 0.163337
370 0.10888
375 0.117637
380 0.0704885
385 0.140262
390 0.188812
395 0.0992089
400 0.14476
405 0.130548
410 0.12355
415 0.0960413
420 0.124965
425 0.159387
430 0.0790557
435 0.138812
440 0.161846
445 0.198445
450 0.168633
455 0.204731
460 0.162504
465 0.226149
470 0.265266
475 0.196978
480 0.291229
485 0.457298
490 0.607826
495 0.802182
500 1.19694
505 55.0955
510 878.532
515 1297.11
520 319.447
525 38.3047
530 5.50987
535 1.64093
540 1.02364
545 0.895265
550 0.873273
555 0.892597
560 0.777715
565 0.656072
570 0.619881
575 0.545974
580 0.352779
585 0.341344
590 0.370571
595 0.377352
600 0.0429412
Ex : 523
200 0.179415
205 0.167678
210 0.098964
215 0.124924
220 0.0984806
225 0.0843283
230 0.0928396
235 0.120302
240 0.100234
245 0.0956758
250 0.0913182
255 0.0636395
260 0.114651
265 0.121428
270 0.0852827
275 0.102347
280 0.130514
285 0.116262
290 0.236599
295 0.119136
300 0.164499
305 0.131735
310 0.157975
315 0.0799057
320 0.124589
325 0.120581
330 0.174465
335 0.108779
340 0.155976
345 0.127023
350 0.16094
355 0.120585
360 0.102521
365 0.133402
370 0.134681
375 0.136811
380 0.118183
385 0.0966088
390 0.120146
395 0.0749579
400 0.134995
405 0.141692
410 0.18637
415 0.159756
420 0.210483
425 0.148485
430 0.0955017
435 0.133837
440 0.145145
445 0.136343
450 0.12925
455 0.138369
460 0.172412
465 0.162743
470 0.179964
475 0.189856
480 0.207859
485 0.290273
490 0.314239
495 0.455191
500 0.722514
505 1.19032
510 50.8686
515 851.954
520 1303.37
525 334.718
530 40.0607
535 5.75187
540 1.69489
545 1.14534
550 0.741808
555 0.823393
560 0.776274
565 0.820098
570 0.625661
575 0.501009
580 0.426344
585 0.414578
590 0.353685
595 0.287769
600 0.323739
Ex : 528
200 0.151216
205 0.107962
210 0.0775516
215 0.18189
220 0.096848
225 0.124299
230 0.0968542
235 0.119329
240 0.127808
245 0.100011
250 0.0785043
255 0.0773536
260 0.104894
265 0.0887176
270 0.118692
275 0.133138
280 0.0717585
285 0.122935
290 0.106166
295 0.113876
300 0.100391
305 0.177227
310 0.118815
315 0.100853
320 0.143713
325 0.130917
330 0.14885
335 0.104496
340 0.104138
345 0.142845
350 0.128452
355 0.142179
360 0.125842
365 0.12572
370 0.170759
375 0.142207
380 0.116413
385 0.144948
390 0.161929
395 0.144919
400 0.16597
405 0.131088
410 0.129816
415 0.260304
420 0.213507
425 0.237146
430 0.142583
435 0.193967
440 0.131665
445 0.159496
450 0.126382
455 0.209273
460 0.230334
465 0.161737
470 0.159251
475 0.180844
480 0.172248
485 0.209759
490 0.272869
495 0.30653
500 0.480529
505 0.64375
510 1.34859
515 47.3518
520 846.837
525 1322.62
530 337.024
535 40.3203
540 5.76198
545 1.55042
550 0.989239
555 0.65597
560 0.676186
565 0.536493
570 0.550866
575 0.522542
580 0.396899
585 0.353211
590 0.367952
595 0.296358
600 0.377214
Ex : 533
200 0.15839
205 0.14656
210 0.0901259
215 0.090462
220 0.117976
225 0.115903
230 0.106414
235 0.149779
240 0.0812926
245 0.174445
250 0.135988
255 0.0943488
260 0.128583
265 0.104783
270 0.0846786
275 0.0983571
280 0.113162
285 0.142776
290 0.183796
295 0.174318
300 0.0872299
305 0.0998555
310 0.0980107
315 0.0840012
320 0.0711728
325 0.163815
330 0.0972847
335 0.153931
340 0.093618
345 0.104739
350 0.164388
355 0.189809
360 0.175795
365 0.0915672
370 0.0883083
375 0.128038
380 0.131842
385 0.0854775
390 0.205459
395 0.110476
400 0.0935006
405 0.0922069
410 0.0993153
415 0.176592
420 0.166527
425 0.183041
430 0.130566
435 0.162781
440 0.128935
445 0.148295
450 0.172348
455 0.142668
460 0.201459
465 0.149926
470 0.124623
475 0.216029
480 0.185721
485 0.314708
490 0.284783
495 0.295955
500 0.360139
505 0.399999
510 0.755827
515 1.24045
520 47.2674
525 820.029
530 1291.26
535 334.311
540 39.7832
545 5.54795
550 1.35997
555 0.890396
560 0.552289
565 0.50129
570 0.710469
575 0.4451
580 0.399751
585 0.347878
590 0.277199
595 0.332649
600 0.255851
Ex : 538
200 0.112916
205 0.119097
210 0.0856132
215 0.072298
220 0.097055
225 0.155835
230 0.13841
235 0.123647
240 0.0863619
245 0.0957674
250 0.073383
255 0.11579
260 0.172982
265 0.181946
270 0.126219
275 0.10704
280 0.0971717
285 0.117564
290 0.140692
295 0.165772
300 0.108532
305 0.138638
310 0.144091
315 0.127072
320 0.120464
325 0.145555
330 0.116913
335 0.160774
340 0.0985136
345 0.175052
350 0.135622
355 0.112213
360 0.0974296
365 0.0923987
370 0.11506
375 0.109335
380 0.17498
385 0.13516
390 0.205597
395 0.230547
400 0.172785
405 0.182474
410 0.143502
415 0.153106
420 0.108313
425 0.150318
430 0.170092
435 0.118142
440 0.183696
445 0.184353
450 0.169085
455 0.222649
460 0.110449
465 0.198748
470 0.20652
475 0.263395
480 0.196783
485 0.230158
490 0.231706
495 0.336481
500 0.243475
505 0.338742
510 0.483658
515 0.761396
520 1.07705
525 41.8766
530 792.319
535 1307.87
540 353.636
545 42.2643
550 5.63559
555 1.36382
560 0.784933
565 0.552229
570 0.514472
575 0.463868
580 0.467338
585 0.412939
590 0.320778
595 0.278458
600 0.441075
Ex : 543
200 0.140942
205 0.111354
210 0.106187
215 0.123021
220 0.153683
225 0.108165
230 0.125943
235 0.0819267
240 0.0986771
245 0.0684455
250 0.0572403
255 0.107567
260 0.160355
265 0.173964
270 0.0962667
275 0.0776813
280 0.116665
285 0.0870175
290 0.238839
295 0.138836
300 0.13812
305 0.138818
310 0.073495
315 0.146359
320 0.0991642
325 0.181248
330 0.309285
335 0.115727
340 0.164464
345 0.125561
350 0.0950775
355 0.150591
360 0.14737
365 0.111623
370 0.138692
375 0.138087
380 0.149214
385 0.119348
390 0.1168
395 0.170218
400 0.125951
405 0.0787818
410 0.135312
415 0.127244
420 0.20561
425 0.117773
430 0.120835
435 0.11655
440 0.17506
445 0.106386
450 0.17658
455 0.1841
460 0.162196
465 0.154104
470 0.140167
475 0.155472
480 0.155472
485 0.208873
490 0.229605
495 0.215708
500 0.270701
505 0.258804
510 0.286835
515 0.516337
520 0.825936
525 1.11462
530 38.1687
535 769.088
540 1301.67
545 357.951
550 42.9009
555 5.82047
560 1.28366
565 0.689378
570 0.418275
575 0.387098
580 0.395257
585 0.431457
590 0.330194
595 0.26448
600 0.159542
Ex : 548
200 0.176342
205 0.110037
210 0.0659618
215 0.0786692
220 0.170958
225 0.102191
230 0.195037
235 0.143234
240 0.106282
245 0.104626
250 0.152818
255 0.133643
260 0.12703
265 0.112031
270 0.121538
275 0.0918741
280 0.112676
285 0.123598
290 0.108899
295 0.149917
300 0.0835497
305 0.0984575
310 0.164174
315 0.101469
320 0.116486
325 0.111966
330 0.184518
335 0.145597
340 0.101085
345 0.120794
350 0.170313
355 0.0826205
360 0.0975583
365 0.0853585
370 0.113267
375 0.140684
380 0.147101
385 0.118798
390 0.138082
395 0.161627
400 0.202335
405 0.103589
410 0.128701
415 0.198735
420 0.141762
425 0.143674
430 0.173193
435 0.149394
440 0.0935142
445 0.195988
450 0.192961
455 0.123069
460 0.231842
465 0.141446
470 0.20202
475 0.154993
480 0.178943
485 0.257563
490 0.160283
495 0.206362
500 0.221713
505 0.256877
510 0.402944
515 0.346365
520 0.493434
525 0.665325
530 1.02912
535 43.4097
540 787.136
545 1286.63
550 352.683
555 41.8529
560 5.56332
565 1.27328
570 0.673283
575 0.442161
580 0.371475
585 0.336128
590 0.405388
595 0.436466
600 0.707991
Ex : 553
200 0.155148
205 0.07789
210 0.135822
215 0.112475
220 0.16983
225 0.143923
230 0.134094
235 0.109518
240 0.126452
245 0.106948
250 0.115232
255 0.138673
260 0.0868878
265 0.162668
270 0.0946574
275 0.133541
280 0.11437
285 0.079355
290 0.128354
295 0.11793
300 0.102066
305 0.144276
310 0.107577
315 0.101678
320 0.119235
325 0.128111
330 0.109502
335 0.101872
340 0.0952299
345 0.131592
350 0.129934
355 0.0882401
360 0.165327
365 0.110892
370 0.170467
375 0.164272
380 0.113077
385 0.154895
390 0.137698
395 0.137913
400 0.105216
405 0.253188
410 0.187464
415 0.0979523
420 0.137999
425 0.115266
430 0.206153
435 0.176841
440 0.14626
445 0.18363
450 0.110058
455 0.201065
460 0.125337
465 0.129294
470 0.219096
475 0.301761
480 0.126709
485 0.301877
490 0.22514
495 0.255474
500 0.236729
505 0.163884
510 0.282791
515 0.226544
520 0.482831
525 0.470563
530 0.593655
535 1.1043
540 36.4257
545 736.185
550 1272.38
555 356.989
560 42.5204
565 5.75461
570 1.34301
575 0.657336
580 0.426709
585 0.396374
590 0.264427
595 0.415636
600 0.406992
Ex : 558
200 0.0907261
205 0.0729239
210 0.126321
215 0.144814
220 0.227024
225 0.164304
230 0.213517
235 0.137575
240 0.110946
245 0.153665
250 0.118897
255 0.144738
260 0.11069
265 0.0848889
270 0.0944914
275 0.121028
280 0.13934
285 0.131003
290 0.117307
295 0.0782658
300 0.14136
305 0.137426
310 0.0688907
315 0.232165
320 0.0641607
325 0.167468
330 0.162309
335 0.133161
340 0.188214
345 0.152765
350 0.165407
355 0.138157
360 0.150163
365 0.124109
370 0.15196
375 0.122897
380 0.187105
385 0.14512
390 0.120644
395 0.205039
400 0.110375
405 0.108482
410 0.139278
415 0.136849
420 0.145397
425 0.149677
430 0.131582
435 0.253522
440 0.225267
445 0.161528
450 0.26085
455 0.118992
460 0.140621
465 0.167753
470 0.164053
475 0.133616
480 0.137864
485 0.205432
490 0.199253
495 0.164364
500 0.137588
505 0.2029
510 0.231812
515 0.269032
520 0.262153
525 0.314665
530 0.443014
535 0.754489
540 1.04862
545 35.8538
550 706.005
555 1254.24
560 354.153
565 42.395
570 5.52687
575 1.07308
580 0.480202
585 0.360819
590 0.307889
595 0.330827
600 0.704332
Ex : 563
200 0.165018
205 0.0731394
210 0.195117
215 0.147849
220 0.117172
225 0.0749758
230 0.099142
235 0.127361
240 0.13467
245 0.127702
250 0.153861
255 0.0768122
260 0.141038
265 0.14433
270 0.254473
275 0.150119
280 0.157997
285 0.134203
290 0.126365
295 0.160484
300 0.110381
305 0.159817
310 0.103935
315 0.201307
320 0.159625
325 0.16777
330 0.147187
335 0.21169
340 0.155315
345 0.209386
350 0.249077
355 0.124566
360 0.0970179
365 0.220941
370 0.108509
375 0.147292
380 0.167655
385 0.118082
390 0.1697
395 0.225467
400 0.18093
405 0.0851159
410 0.117818
415 0.218193
420 0.129862
425 0.193216
430 0.103272
435 0.156889
440 0.183484
445 0.126814
450 0.164908
455 0.133351
460 0.140858
465 0.162618
470 0.139169
475 0.172837
480 0.175421
485 0.175847
490 0.195469
495 0.181149
500 0.254302
505 0.295227
510 0.315989
515 0.195109
520 0.260904
525 0.273723
530 0.291269
535 0.439954
540 0.829433
545 1.07277
550 33.0984
555 690.497
560 1205.84
565 350.267
570 41.8107
575 5.40337
580 1.03888
585 0.64564
590 0.367895
595 0.352397
600 0.959538
Ex : 568
200 0.0957218
205 0.12359
210 0.174731
215 0.181212
220 0.126105
225 0.229839
230 0.113002
235 0.118226
240 0.115181
245 0.209462
250 0.0919528
255 0.0831394
260 0.103494
265 0.0951249
270 0.202925
275 0.269904
280 0.161151
285 0.175173
290 0.0786467
295 0.169754
300 0.161966
305 0.119688
310 0.156374
315 0.118418
320 0.0661064
325 0.123836
330 0.128351
335 0.202847
340 0.137057
345 0.111869
350 0.149725
355 0.109803
360 0.128595
365 0.208681
370 0.119341
375 0.117759
380 0.0909913
385 0.209404
390 0.189285
395 0.187436
400 0.17958
405 0.144825
410 0.238958
415 0.212885
420 0.187405
425 0.149728
430 0.135933
435 0.126945
440 0.157129
445 0.135904
450 0.107998
455 0.173827
460 0.213895
465 0.188585
470 0.22561
475 0.165903
480 0.162181
485 0.21133
490 0.20427
495 0.188729
500 0.221132
505 0.223119
510 0.16849
515 0.296069
520 0.255518
525 0.275572
530 0.366762
535 0.469822
540 0.440458
545 0.625098
550 1.19036
555 26.147
560 621.179
565 1178.1
570 357.832
575 43.0044
580 5.36969
585 1.17832
590 0.623407
595 0.430154
600 0.283365
Ex : 573
200 0.157023
205 0.117896
210 0.108843
215 0.0943395
220 0.160336
225 0.204384
230 0.0859477
235 0.148382
240 0.112351
245 0.191157
250 0.159462
255 0.190871
260 0.0994922
265 0.208051
270 0.175568
275 0.110567
280 0.0725028
285 0.135962
290 0.13996
295 0.176888
300 0.0792567
305 0.127727
310 0.105735
315 0.140363
320 0.193837
325 0.173136
330 0.130997
335 0.163711
340 0.103945
345 0.120795
350 0.146308
355 0.19885
360 0.120245
365 0.162114
370 0.120333
375 0.141775
380 0.143079
385 0.104592
390 0.236242
395 0.161784
400 0.0909592
405 0.139055
410 0.159471
415 0.191237
420 0.18781
425 0.131259
430 0.133516
435 0.143389
440 0.262979
445 0.14861
450 0.168091
455 0.149903
460 0.132124
465 0.204117
470 0.166906
475 0.127157
480 0.244715
485 0.132547
490 0.210241
495 0.177607
500 0.171601
505 0.282321
510 0.160519
515 0.226312
520 0.156565
525 0.211518
530 0.273922
535 0.239233
540 0.256829
545 0.461555
550 0.614772
555 0.961812
560 22.0812
565 543.285
570 1088.85
575 335.602
580 40.1627
585 5.14319
590 0.990594
595 0.501974
600 0.24618
Ex : 578
200 0.24939
205 0.131724
210 0.126093
215 0.11962
220 0.210126
225 0.10914
230 0.0904138
235 0.11139
240 0.213828
245 0.131246
250 0.181135
255 0.126608
260 0.144167
265 0.111595
270 0.168255
275 0.163708
280 0.11196
285 0.165164
290 0.146916
295 0.117658
300 0.141215
305 0.057574
310 0.0983381
315 0.160994
320 0.0727571
325 0.163376
330 0.142989
335 0.143805
340 0.112485
345 0.130393
350 0.102235
355 0.17973
360 0.173881
365 0.113965
370 0.179214
375 0.143928
380 0.13647
385 0.164726
390 0.13508
395 0.154932
400 0.108479
405 0.162868
410 0.1209
415 0.10135
420 0.176802
425 0.14299
430 0.146176
435 0.10975
440 0.16577
445 0.198913
450 0.227021
455 0.135645
460 0.317673
465 0.216067
470 0.248249
475 0.220027
480 0.219277
485 0.186793
490 0.212091
495 0.155894
500 0.235023
505 0.231063
510 0.196332
515 0.207715
520 0.273712
525 0.205002
530 0.154995
535 0.195807
540 0.263008
545 0.222608
550 0.380308
555 0.416408
560 0.762953
565 20.1018
570 494.073
575 978.749
580 298.07
585 35.6555
590 4.54643
595 0.870858
600 0.430673
Ex : 583
200 0.0675563
205 0.114465
210 0.104491
215 0.0752772
220 0.170256
225 0.0692319
230 0.0931307
235 0.102213
240 0.0452054
245 0.139668
250 0.0903432
255 0.183782
260 0.120141
265 0.100645
270 0.106527
275 0.136651
280 0.11188
285 0.199601
290 0.179085
295 0.176742
300 0.131448
305 0.20804
310 0.155805
315 0.097105
320 0.112241
325 0.112842
330 0.147763
335 0.10732
340 0.11319
345 0.156149
350 0.0726308
355 0.174757
360 0.169106
365 0.148466
370 0.160834
375 0.112528
380 0.276425
385 0.0978165
390 0.0956383
395 0.21912
400 0.133999
405 0.197378
410 0.21377
415 0.190725
420 0.187587
425 0.112059
430 0.157004
435 0.0908339
440 0.120091
445 0.224134
450 0.269763
455 0.171651
460 0.243586
465 0.156861
470 0.174678
475 0.148578
480 0.175029
485 0.199669
490 0.172284
495 0.176977
500 0.152047
505 0.218379
510 0.21662
515 0.194651
520 0.160797
525 0.193808
530 0.161111
535 0.251011
540 0.214066
545 0.241153
550 0.243593
555 0.360028
560 0.466504
565 0.712933
570 16.9081
575 435.321
580 835.789
585 242.822
590 29.0045
595 3.75068
600 0.587084
Ex : 588
200 0.0577188
205 0.0898429
210 0.0932764
215 0.0888135
220 0.173188
225 0.0897729
230 0.113194
235 0.128406
240 0.119081
245 0.19107
250 0.130923
255 0.232633
260 0.102856
265 0.123906
270 0.069062
275 0.0517992
280 0.146696
285 0.246949
290 0.105793
295 0.0410998
300 0.252604
305 0.110513
310 0.124145
315 0.108509
320 0.129806
325 0.167874
330 0.104492
335 0.107655
340 0.127334
345 0.0841933
350 0.0602741
355 0.102322
360 0.119011
365 0.152287
370 0.0557998
375 0.0918836
380 0.146854
385 0.203792
390 0.100379
395 0.134627
400 0.154269
405 0.0856777
410 0.10939
415 0.143022
420 0.140089
425 0.247965
430 0.230179
435 0.199554
440 0.230253
445 0.135295
450 0.199438
455 0.227157
460 0.12181
465 0.151829
470 0.147806
475 0.137427
480 0.148023
485 0.210237
490 0.113586
495 0.175455
500 0.279811
505 0.15164
510 0.183053
515 0.124535
520 0.214989
525 0.188697
530 0.0949638
535 0.156541
540 0.143312
545 0.233363
550 0.178838
555 0.408257
560 0.37609
565 0.517643
570 0.728482
575 15.1674
580 371.426
585 718.129
590 214.37
595 25.5577
600 4.40263
Ex : 593
200 0.212372
205 0.148883
210 0.127375
215 0.234799
220 0.104767
225 0.0898425
230 0.12276
235 0.129078
240 0.192091
245 0.0885784
250 0.100766
255 0.0568262
260 0.0809633
265 0.0808501
270 0.137573
275 0.175243
280 0.122812
285 0.0944955
290 0.0712933
295 0.183703
300 0.118726
305 0.115325
310 0.102081
315 0.0933083
320 0.0771965
325 0.0897592
330 0.10796
335 0.0655994
340 0.228653
345 0.186618
350 0.301806
355 0.173727
360 0.21988
365 0.229418
370 0.099096
375 0.181229
380 0.0895753
385 0.151477
390 0.088076
395 0.171676
400 0.104996
405 0.174206
410 0.107816
415 0.179027
420 0.14845
425 0.147089
430 0.153562
435 0.137406
440 0.298409
445 0.136896
450 0.0890651
455 0.18847
460 0.169335
465 0.160991
470 0.159395
475 0.131659
480 0.153941
485 0.220138
490 0.305779
495 0.193983
500 0.0968379
505 0.107336
510 0.175026
515 0.205604
520 0.187359
525 0.0994678
530 0.209119
535 0.205103
540 0.1624
545 0.115922
550 0.193529
555 0.296447
560 0.269175
565 0.321028
570 0.350809
575 0.379349
580 12.9946
585 321.377
590 601.126
595 184.432
600 25.4583
Ex : 598
200 0.303605
205 0.142825
210 0.0849431
215 0.104689
220 0.189594
225 0.12021
230 0.0740481
235 0.153265
240 0.164068
245 0.108524
250 0.124623
255 0.125674
260 0.136367
265 0.171877
270 0.135165
275 0.0660601
280 0.168035
285 0.103306
290 0.138236
295 0.0623017
300 0.0868531
305 0.0671667
310 0.170577
315 0.166914
320 0.126316
325 0.187578
330 0.207563
335 0.085307
340 0.150423
345 0.150639
350 0.128719
355 0.132469
360 0.162775
365 0.194285
370 0.0994276
375 0.152532
380 0.156592
385 0.0817706
390 0.158895
395 0.283216
400 0.120528
405 0.150458
410 0.107768
415 0.130582
420 0.170355
425 0.215491
430 0.178548
435 0.0889144
440 0.0961409
445 0.137347
450 0.145671
455 0.123183
460 0.0983538
465 0.218555
470 0.294879
475 0.169648
480 0.10255
485 0.105195
490 0.233479
495 0.10018
500 0.121167
505 0.152389
510 0.184224
515 0.262149
520 0.118384
525 0.119512
530 0.208538
535 0.244902
540 0.155389
545 0.165805
550 0.129285
555 0.241081
560 0.202403
565 0.249258
570 0.288616
575 0.393889
580 0.527591
585 12.7519
590 296.481
595 534.749
600 345.235
Ex : 603
200 0.170024
205 0.124853
210 0.160994
215 0.133053
220 0.1914
225 0.0766517
230 0.0880499
235 0.0542418
240 0.0669749
245 0.151564
250 0.142516
255 0.18461
260 0.105216
265 0.17462
270 0.167075
275 0.183144
280 0.140451
285 0.100467
290 0.186844
295 0.0689282
300 0.173548
305 0.106079
310 0.218547
315 0.108122
320 0.0992727
325 0.221321
330 0.156462
335 0.128187
340 0.144865
345 0.205645
350 0.109805
355 0.111493
360 0.102205
365 0.171305
370 0.145517
375 0.174294
380 0.150562
385 0.118229
390 0.161506
395 0.178771
400 0.081461
405 0.180788
410 0.139866
415 0.168449
420 0.179028
425 0.122255
430 0.311379
435 0.162536
440 0.119013
445 0.125788
450 0.172003
455 0.216761
460 0.239074
465 0.191877
470 0.128602
475 0.133134
480 0.271757
485 0.10842
490 0.154676
495 0.213204
500 0.127133
505 0.194691
510 0.203031
515 0.174511
520 0.185065
525 0.168555
530 0.183411
535 0.159478
540 0.176129
545 0.199788
550 0.143317
555 0.167672
560 0.104102
565 0.161392
570 0.169822
575 0.213535
580 0.242428
585 0.522471
590 11.3355
595 257.301
600 507.675
