File format V 1.0
ven. 6. janv. 01:44:36 2017
Operator : 
Comments : 

=============================================
SpectroFluorometer parameters
Mode : 3D measurement
Data : Fluorescence
Phospho. : Ordinary
Spectrum : Fluorescence

Scan speed : 2400 nm/mn
Response : 100 ms
PM Voltage : 700 V
Shutter : On

Lambda Ex. Start : 203
Lambda Ex. End : 603
Lambda Ex. Step : 5
Ex. Slit : 5 nm

Lambda Em. Start : 200
Lambda Em. End : 600
Lambda Em. Step : 5
Em. Slit : 5 nm

Repetition : 1
Decal lambda em : 10
=============================================
DATA
Ex : 203
200 3.3494
205 4.12551
210 3.08204
215 5.60025
220 2.8499
225 7.008
230 5.63307
235 3.07225
240 4.11441
245 2.89847
250 7.37865
255 4.30818
260 2.08102
265 3.61546
270 2.55453
275 1.59468
280 4.67446
285 3.44375
290 3.11548
295 1.73032
300 6.15219
305 8.0456
310 3.17728
315 5.26214
320 3.84075
325 5.84181
330 5.35327
335 1.86209
340 2.26475
345 9.26362
350 4.24677
355 2.01457
360 3.27901
365 3.98701
370 5.55087
375 9.84336
380 3.73683
385 4.49345
390 6.74575
395 6.02156
400 3.94601
405 3.00733
410 3.20171
415 4.60169
420 7.20427
425 3.95746
430 4.05805
435 7.26181
440 1.99145
445 5.15122
450 3.54798
455 4.12104
460 4.35874
465 5.87115
470 7.54611
475 5.16947
480 3.7871
485 2.76576
490 2.97334
495 1.84907
500 1.93556
505 4.3634
510 8.49453
515 3.44802
520 2.53661
525 1.87771
530 2.88443
535 3.63469
540 3.17681
545 6.42366
550 5.5787
555 3.11271
560 3.68512
565 2.61629
570 6.96019
575 5.03274
580 3.24793
585 5.97801
590 5.25331
595 2.25462
600 0.256567
Ex : 208
200 1.25641
205 5.50876
210 3.85598
215 5.32149
220 3.08579
225 7.55936
230 7.28068
235 4.28228
240 6.0517
245 3.05766
250 3.52647
255 1.69562
260 2.1426
265 3.21068
270 3.32897
275 8.1713
280 5.49722
285 2.92617
290 3.43177
295 4.30593
300 2.28513
305 5.0381
310 3.18789
315 4.06119
320 2.84717
325 1.61785
330 3.74036
335 2.89936
340 2.28615
345 4.24506
350 2.91298
355 2.94955
360 4.6694
365 4.31167
370 4.19824
375 4.6304
380 3.61159
385 6.14054
390 2.20474
395 2.39909
400 5.41187
405 5.31331
410 4.17262
415 3.23635
420 3.63001
425 2.20977
430 4.95471
435 7.47272
440 5.7653
445 6.33129
450 3.43262
455 3.13726
460 2.77075
465 6.08873
470 5.44039
475 3.58447
480 3.77895
485 1.93897
490 4.88608
495 3.20852
500 4.12328
505 7.25765
510 2.97978
515 2.95136
520 2.81268
525 6.69038
530 5.27734
535 2.26354
540 4.4388
545 1.99831
550 1.90652
555 4.19321
560 2.54882
565 2.68336
570 5.46872
575 2.0766
580 4.98958
585 2.4889
590 2.00868
595 2.90991
600 0.331137
Ex : 213
200 3.84106
205 2.9041
210 3.03901
215 2.08927
220 3.26508
225 5.72731
230 7.48981
235 4.35684
240 4.36178
245 4.40014
250 3.62606
255 2.12133
260 3.71185
265 2.10119
270 2.79378
275 3.74839
280 1.95727
285 2.95713
290 7.82464
295 4.11694
300 5.05312
305 4.75119
310 5.11744
315 2.09175
320 2.08674
325 3.8527
330 3.94104
335 4.48687
340 3.99632
345 2.49243
350 5.949
355 6.28423
360 4.80827
365 4.13306
370 4.71478
375 4.49803
380 6.97904
385 4.72284
390 4.69262
395 5.06613
400 4.27978
405 5.98264
410 3.60471
415 4.92698
420 3.90921
425 3.97838
430 2.19038
435 3.10359
440 6.86938
445 6.19024
450 3.70625
455 4.31723
460 4.58998
465 4.26855
470 3.72925
475 4.12257
480 4.139
485 6.33734
490 8.48288
495 6.54725
500 4.12776
505 3.11619
510 5.94543
515 3.12697
520 2.05005
525 4.14301
530 4.15307
535 2.87168
540 2.91111
545 2.09777
550 4.1285
555 4.22754
560 4.56682
565 4.26206
570 7.39378
575 2.81424
580 3.47877
585 2.81631
590 2.20068
595 4.00241
600 3.77872
Ex : 218
200 1.37107
205 4.65565
210 4.33426
215 2.74901
220 2.51891
225 2.98001
230 3.141
235 3.64985
240 6.12776
245 3.13582
250 2.78377
255 4.38499
260 3.73064
265 4.72816
270 4.54345
275 2.91499
280 3.10811
285 3.46648
290 3.47142
295 2.01974
300 3.83879
305 3.76792
310 4.47521
315 4.49416
320 1.5226
325 3.72916
330 2.11461
335 3.46688
340 3.92878
345 5.06402
350 3.29396
355 4.78411
360 2.37551
365 1.84157
370 4.78726
375 2.08427
380 5.58245
385 6.73479
390 4.58705
395 1.41934
400 3.31425
405 3.18159
410 3.99835
415 5.34019
420 4.42345
425 3.33922
430 3.84172
435 3.27418
440 2.45517
445 4.33461
450 3.05076
455 4.10015
460 3.58857
465 4.70217
470 3.74822
475 1.83187
480 3.85822
485 6.288
490 7.13401
495 4.80878
500 2.66426
505 6.47186
510 3.49734
515 9.29523
520 3.427
525 3.22029
530 5.71283
535 5.63848
540 5.6302
545 1.71083
550 4.90525
555 7.98315
560 2.96691
565 3.18842
570 2.11841
575 3.26426
580 4.01354
585 7.81633
590 5.80188
595 3.35794
600 0.382121
Ex : 223
200 2.47337
205 2.28482
210 4.59006
215 2.92616
220 2.18811
225 2.29624
230 3.19977
235 4.72329
240 5.63316
245 2.24324
250 2.04943
255 2.8383
260 3.37257
265 3.52416
270 5.07268
275 2.43128
280 5.47805
285 6.54112
290 5.98816
295 5.16527
300 3.88017
305 3.24259
310 3.00107
315 4.05675
320 4.87023
325 6.75764
330 5.42871
335 3.33075
340 5.39506
345 5.57422
350 4.13591
355 8.53916
360 3.17898
365 2.35143
370 2.43034
375 2.9178
380 5.80535
385 5.76213
390 3.06618
395 4.90976
400 8.43797
405 4.21553
410 3.76091
415 5.31505
420 3.17313
425 4.74318
430 3.45663
435 4.90493
440 3.51765
445 6.59811
450 7.30518
455 3.32878
460 3.10897
465 6.05002
470 2.86681
475 4.42148
480 3.22621
485 7.55943
490 3.99932
495 1.76737
500 3.82367
505 3.92121
510 3.04115
515 5.05545
520 5.853
525 8.26208
530 3.88468
535 4.70569
540 3.18827
545 2.33449
550 3.51888
555 3.96187
560 5.69101
565 2.39759
570 3.88671
575 2.39306
580 2.81642
585 1.91566
590 3.96326
595 3.83364
600 0.436253
Ex : 228
200 1.50649
205 3.46305
210 3.57785
215 2.95963
220 4.84079
225 4.10099
230 4.97498
235 3.29212
240 3.79791
245 4.59392
250 4.84766
255 4.87936
260 1.96396
265 2.48521
270 1.36303
275 3.63737
280 3.16782
285 2.77231
290 6.13051
295 6.60038
300 2.094
305 4.82946
310 2.3689
315 4.39095
320 2.27208
325 1.01366
330 7.46929
335 2.91955
340 3.49801
345 2.36449
350 2.84015
355 4.25837
360 2.91517
365 6.78988
370 3.84029
375 2.77192
380 4.06559
385 3.7156
390 2.89729
395 2.75094
400 5.95739
405 6.35663
410 4.00231
415 3.25982
420 5.42634
425 3.54311
430 2.93676
435 3.68657
440 3.09341
445 3.5215
450 4.97945
455 2.53106
460 4.0987
465 7.79127
470 5.95591
475 3.55512
480 5.48614
485 7.28835
490 9.78004
495 5.44313
500 4.80685
505 2.84559
510 3.79044
515 3.29905
520 3.58263
525 4.27176
530 3.72416
535 3.08759
540 2.32588
545 8.33082
550 6.09006
555 6.43992
560 5.3411
565 3.84415
570 5.06066
575 3.73362
580 2.55399
585 2.93844
590 1.40872
595 1.61046
600 0.183264
Ex : 233
200 4.26596
205 3.1748
210 5.45214
215 3.57114
220 4.76809
225 2.69338
230 1.8292
235 3.45757
240 1.94549
245 2.4226
250 2.36951
255 6.31531
260 1.6668
265 1.85186
270 6.17915
275 4.47405
280 2.6445
285 5.31274
290 8.74716
295 2.1362
300 0.935756
305 1.72381
310 1.23167
315 1.59409
320 4.2359
325 3.72979
330 4.82174
335 3.80764
340 3.55328
345 5.44249
350 4.12269
355 2.68942
360 2.47725
365 3.05375
370 3.92397
375 5.69072
380 3.4456
385 3.38176
390 5.12602
395 5.66553
400 3.52116
405 3.84181
410 2.22329
415 4.20827
420 2.53412
425 3.91375
430 6.78276
435 2.69196
440 3.02698
445 3.55576
450 4.97163
455 4.84747
460 5.88811
465 2.99387
470 1.78784
475 4.67161
480 6.36867
485 5.1805
490 1.66668
495 2.75038
500 1.16565
505 3.04308
510 2.4207
515 3.19357
520 1.76576
525 4.43719
530 3.53056
535 3.17115
540 1.32011
545 4.69705
550 2.65182
555 5.67051
560 2.51462
565 5.27422
570 3.81148
575 3.1338
580 3.94862
585 3.83607
590 1.36371
595 3.51291
600 0.399756
Ex : 238
200 2.85849
205 1.13054
210 2.84967
215 3.27227
220 4.15063
225 3.14372
230 2.43286
235 2.39244
240 1.78902
245 1.52445
250 2.66782
255 4.2915
260 2.79087
265 2.26208
270 1.87289
275 2.084
280 3.80358
285 3.71224
290 2.11241
295 2.59129
300 1.32374
305 2.40795
310 3.00648
315 1.09329
320 3.17261
325 2.40675
330 1.96653
335 2.74406
340 4.14531
345 3.98045
350 2.4388
355 5.6549
360 2.63957
365 4.12264
370 4.20386
375 4.03189
380 2.90337
385 2.1028
390 2.89382
395 2.7851
400 4.29195
405 4.22195
410 4.6837
415 1.77934
420 5.16353
425 2.38912
430 2.88808
435 2.6345
440 3.1639
445 3.36979
450 2.43708
455 4.71652
460 4.06857
465 2.64441
470 4.2143
475 2.39684
480 3.09287
485 4.04928
490 1.76351
495 1.18627
500 3.27015
505 3.32054
510 1.37538
515 3.92868
520 2.6166
525 4.12357
530 1.83297
535 3.13822
540 1.98326
545 1.53591
550 4.31896
555 4.057
560 2.39788
565 5.58189
570 5.36018
575 6.75069
580 4.50202
585 3.01299
590 5.17203
595 2.10179
600 7.58201
Ex : 243
200 3.03265
205 3.02203
210 3.35406
215 2.78054
220 1.78106
225 2.35211
230 1.23443
235 1.4735
240 2.30262
245 2.73325
250 2.22827
255 3.34362
260 2.47093
265 2.98982
270 4.2165
275 3.19727
280 4.22541
285 2.51986
290 3.35892
295 3.04869
300 2.01082
305 1.41288
310 2.53975
315 1.79053
320 1.41997
325 3.93076
330 1.41138
335 1.87491
340 1.67735
345 3.66027
350 1.64213
355 2.48457
360 3.34451
365 2.466
370 1.35834
375 3.23467
380 4.57381
385 5.58185
390 2.67527
395 2.69428
400 2.67477
405 3.52833
410 1.2542
415 2.26159
420 4.22845
425 2.30502
430 2.63048
435 3.20904
440 2.74569
445 1.37664
450 1.29331
455 4.5819
460 4.251
465 2.25616
470 2.69673
475 2.30624
480 2.39976
485 5.05546
490 3.04158
495 2.40242
500 2.41214
505 3.90507
510 0.966341
515 1.44488
520 1.66646
525 2.76198
530 3.46607
535 1.49181
540 1.45152
545 2.58448
550 6.22664
555 3.76799
560 1.97415
565 3.6483
570 1.19441
575 2.64938
580 1.85598
585 2.14884
590 1.32891
595 2.64977
600 0.301534
Ex : 248
200 2.02685
205 2.33461
210 1.35095
215 2.51052
220 3.86862
225 1.20788
230 2.59627
235 1.54224
240 0.785928
245 1.82373
250 1.74622
255 3.28829
260 3.52445
265 2.15488
270 3.06782
275 2.17869
280 1.78647
285 1.24458
290 2.39769
295 0.807793
300 2.49345
305 1.55608
310 0.974363
315 2.44723
320 2.26945
325 1.99521
330 3.50633
335 1.86263
340 2.12528
345 1.18834
350 2.07936
355 1.19029
360 1.38446
365 2.3982
370 2.4233
375 1.93778
380 2.21768
385 2.69414
390 2.11872
395 1.86205
400 2.36233
405 2.73016
410 2.12394
415 1.68906
420 1.98967
425 2.0905
430 1.31311
435 4.65587
440 3.11458
445 2.17607
450 4.04819
455 1.27598
460 3.51278
465 3.48736
470 3.38905
475 1.20564
480 1.13063
485 3.21789
490 1.942
495 1.19402
500 2.57213
505 1.14575
510 0.936292
515 2.31875
520 1.69029
525 2.16617
530 1.08792
535 2.9857
540 1.21657
545 1.32326
550 2.72582
555 1.50517
560 3.26015
565 2.97637
570 1.20491
575 1.48692
580 2.15991
585 3.27921
590 1.56119
595 2.99066
600 2.23933
Ex : 253
200 2.97436
205 2.17615
210 1.30066
215 2.48252
220 1.71211
225 2.78566
230 1.82505
235 1.81129
240 0.847254
245 1.75235
250 1.74328
255 1.54173
260 1.40115
265 2.48058
270 2.60762
275 1.35758
280 0.938051
285 1.12968
290 1.38921
295 1.86134
300 0.756196
305 3.5185
310 1.71814
315 1.75797
320 2.18202
325 2.03586
330 1.69378
335 0.923161
340 1.74759
345 2.02714
350 1.58001
355 1.52714
360 1.50058
365 1.40049
370 1.36714
375 1.6217
380 1.78324
385 1.63566
390 1.62683
395 1.06613
400 3.2531
405 3.25424
410 2.10351
415 2.37205
420 0.830692
425 1.25166
430 2.39636
435 2.10113
440 1.5392
445 1.42917
450 1.21955
455 2.33368
460 1.51758
465 3.0466
470 1.58687
475 2.08243
480 1.42709
485 2.11255
490 1.58127
495 2.02772
500 2.33903
505 1.66494
510 1.72133
515 2.11146
520 1.80218
525 2.64969
530 2.44467
535 1.42581
540 1.51339
545 0.918903
550 1.90274
555 4.02078
560 2.85716
565 1.83496
570 1.84816
575 1.59643
580 1.49012
585 0.923233
590 1.45808
595 1.6179
600 0.18411
Ex : 258
200 1.11211
205 0.570669
210 0.932809
215 1.05196
220 2.06533
225 1.85175
230 1.47533
235 0.498996
240 1.01734
245 1.55018
250 0.718198
255 1.46941
260 0.575919
265 1.12774
270 0.779421
275 1.63853
280 0.572804
285 1.04349
290 0.564781
295 1.07736
300 0.830763
305 1.41181
310 1.12925
315 0.715261
320 0.904297
325 1.11225
330 1.57451
335 1.63325
340 1.52123
345 1.75347
350 1.4943
355 1.70278
360 0.781905
365 0.975182
370 2.12922
375 1.76832
380 1.70738
385 1.61741
390 1.63421
395 2.3373
400 2.14369
405 1.56915
410 3.0706
415 2.17925
420 2.13468
425 1.73801
430 1.28785
435 3.82927
440 1.47969
445 0.764631
450 0.832417
455 2.41172
460 1.49348
465 3.6618
470 2.14341
475 1.9383
480 2.24293
485 1.39846
490 0.830004
495 0.783042
500 0.796056
505 1.76588
510 3.63525
515 2.72258
520 2.86046
525 1.36996
530 1.18783
535 1.71898
540 0.510073
545 1.55583
550 1.56543
555 1.44778
560 1.00355
565 2.56638
570 1.41523
575 0.920364
580 3.73453
585 1.93865
590 2.25379
595 0.605276
600 0.0688781
Ex : 263
200 0.661403
205 1.48916
210 0.879351
215 0.691902
220 1.77912
225 0.904821
230 1.40556
235 1.27539
240 0.548098
245 1.75608
250 1.18121
255 1.37449
260 1.12261
265 0.71286
270 1.6851
275 0.843379
280 1.10695
285 0.977846
290 1.13417
295 1.64957
300 0.710821
305 1.45119
310 1.06396
315 1.56938
320 0.757237
325 0.796702
330 0.465355
335 0.990647
340 1.66958
345 1.28535
350 1.46067
355 1.75764
360 2.32101
365 1.75881
370 0.920662
375 0.871587
380 1.22637
385 0.829697
390 1.52393
395 1.49407
400 2.00496
405 1.33983
410 1.23166
415 0.681209
420 0.453294
425 1.25395
430 1.98303
435 1.95631
440 1.38385
445 1.56607
450 1.24135
455 1.04629
460 2.43458
465 0.95545
470 0.798168
475 1.32992
480 1.17958
485 1.31061
490 1.29389
495 1.10161
500 1.86817
505 2.28195
510 1.36903
515 0.601304
520 1.17157
525 0.652872
530 1.03555
535 0.667193
540 2.07377
545 1.22626
550 0.916972
555 1.15397
560 1.57853
565 1.22609
570 1.48649
575 1.47639
580 1.36948
585 2.13649
590 0.958549
595 1.34789
600 6.35681
Ex : 268
200 1.40387
205 0.401447
210 0.641409
215 0.517915
220 1.23888
225 0.53941
230 0.953872
235 0.977661
240 0.787214
245 0.891503
250 1.52692
255 1.1997
260 0.596854
265 0.463806
270 0.778077
275 0.557349
280 0.533878
285 0.87138
290 0.890982
295 0.699913
300 0.626582
305 0.76822
310 1.30309
315 0.601837
320 1.09216
325 0.518554
330 0.463988
335 0.635861
340 0.421882
345 0.917986
350 1.08886
355 0.353664
360 0.476716
365 1.48811
370 1.18619
375 0.930455
380 1.26848
385 1.46997
390 0.776618
395 1.17746
400 1.92121
405 1.38276
410 2.01528
415 0.685935
420 0.904612
425 0.878522
430 1.19088
435 1.27142
440 0.86852
445 0.873799
450 0.695586
455 0.795452
460 0.58058
465 1.24317
470 0.978233
475 0.611792
480 1.6543
485 0.513115
490 0.669437
495 1.02275
500 1.34157
505 0.371467
510 0.601018
515 1.00506
520 0.507694
525 0.952452
530 1.52238
535 2.28802
540 0.739629
545 1.42512
550 0.786294
555 0.404215
560 0.440145
565 0.335919
570 1.088
575 0.568136
580 0.724124
585 0.797004
590 1.00065
595 2.22447
600 0.253136
Ex : 273
200 0.797371
205 0.826804
210 1.21622
215 0.654063
220 0.651354
225 0.672185
230 1.25776
235 0.384286
240 0.266519
245 0.619175
250 0.570752
255 0.601206
260 1.06823
265 1.22138
270 1.15108
275 0.938854
280 0.476337
285 0.346951
290 0.316358
295 0.636269
300 1.28122
305 0.417646
310 0.862088
315 0.626645
320 0.949697
325 0.867396
330 0.712387
335 0.687052
340 0.611291
345 0.7718
350 0.701429
355 1.13157
360 0.910654
365 0.677817
370 0.985194
375 0.937364
380 0.442337
385 1.09821
390 0.974169
395 1.11542
400 0.892602
405 0.625463
410 0.46351
415 0.983845
420 1.05639
425 0.528774
430 0.447638
435 0.667729
440 0.487507
445 1.06728
450 0.618171
455 0.912737
460 1.13005
465 0.668321
470 0.747868
475 0.675577
480 0.989787
485 1.01191
490 1.17919
495 0.85792
500 0.770945
505 0.545126
510 1.0785
515 0.884032
520 0.841589
525 2.1271
530 1.54376
535 0.526239
540 1.11121
545 1.19185
550 0.660096
555 0.528638
560 0.505718
565 0.795558
570 0.357484
575 0.944707
580 0.463551
585 0.564022
590 1.147
595 0.938592
600 0.106808
Ex : 278
200 0.655235
205 0.385694
210 0.608936
215 0.846638
220 0.428172
225 0.372748
230 0.665982
235 0.762834
240 0.367545
245 0.277388
250 0.294683
255 0.316313
260 0.222354
265 0.639567
270 0.879074
275 0.83827
280 0.41655
285 0.705679
290 0.744553
295 0.307687
300 0.668593
305 0.397676
310 0.422293
315 0.429582
320 0.381917
325 0.715479
330 0.596331
335 0.554053
340 0.716211
345 0.985176
350 0.507579
355 0.716794
360 0.748217
365 0.76027
370 0.598865
375 0.496494
380 0.795403
385 0.624807
390 0.533187
395 0.773785
400 0.728271
405 0.66157
410 1.1012
415 1.51606
420 0.941102
425 0.851058
430 0.691472
435 0.81853
440 0.912225
445 1.06433
450 0.545092
455 0.747296
460 1.07999
465 0.363417
470 0.601526
475 0.756478
480 0.684517
485 0.75642
490 0.595003
495 0.51769
500 0.404217
505 0.427636
510 0.703054
515 0.347146
520 0.360202
525 0.562334
530 1.01937
535 0.792737
540 0.490613
545 0.60497
550 0.807212
555 0.882124
560 0.893002
565 0.591364
570 0.415418
575 0.575928
580 0.570318
585 0.630167
590 0.945012
595 0.427153
600 0.0486084
Ex : 283
200 0.551128
205 0.386634
210 0.323712
215 0.278951
220 0.920575
225 0.601429
230 0.334638
235 0.228402
240 0.39899
245 0.333671
250 0.66279
255 0.448768
260 0.287434
265 0.429151
270 0.272237
275 0.630646
280 0.964612
285 0.30787
290 0.633714
295 0.302461
300 0.507988
305 0.46518
310 0.270169
315 0.151979
320 0.501708
325 0.456805
330 0.562845
335 0.553603
340 0.943178
345 0.438322
350 0.429871
355 0.826756
360 0.471905
365 1.04572
370 0.301824
375 0.804531
380 0.556676
385 0.549395
390 0.824838
395 0.892245
400 0.945069
405 0.707579
410 0.636582
415 0.676096
420 0.615907
425 0.664646
430 0.829214
435 0.85159
440 1.22079
445 0.585325
450 0.645353
455 0.486073
460 1.10409
465 0.511206
470 0.506867
475 0.535021
480 0.247557
485 0.143245
490 0.437893
495 0.369812
500 0.350559
505 0.258983
510 0.606396
515 0.291703
520 0.366994
525 0.840481
530 0.709375
535 0.281474
540 0.4712
545 0.586681
550 0.4969
555 0.63525
560 0.635995
565 0.903024
570 0.420783
575 0.299668
580 0.583978
585 0.330402
590 0.436688
595 0.347961
600 0.0395966
Ex : 288
200 0.310174
205 0.264602
210 0.36374
215 0.545687
220 0.406701
225 0.280156
230 0.346177
235 0.248529
240 0.535553
245 0.47909
250 0.205162
255 0.441002
260 0.263267
265 0.496469
270 0.357783
275 0.774966
280 0.293119
285 0.446398
290 0.373614
295 0.200946
300 0.318083
305 0.715436
310 0.635913
315 0.341983
320 0.478156
325 0.384111
330 0.224992
335 0.382173
340 0.416775
345 0.526441
350 0.392372
355 0.409687
360 0.312975
365 0.367041
370 0.444437
375 0.495893
380 0.521208
385 0.50983
390 0.761134
395 0.835246
400 0.35492
405 0.485706
410 0.915685
415 0.928216
420 0.405291
425 0.590028
430 0.607755
435 0.767929
440 0.669908
445 0.475915
450 0.442389
455 0.476209
460 0.401872
465 0.380726
470 0.70397
475 0.961306
480 0.377442
485 0.546489
490 0.640721
495 0.759831
500 0.414853
505 0.299546
510 0.655366
515 0.645344
520 0.319145
525 0.572848
530 0.399865
535 0.413788
540 0.202735
545 0.230178
550 0.544147
555 0.536236
560 0.592523
565 0.7372
570 0.584432
575 0.830513
580 0.439082
585 0.370927
590 0.502858
595 0.401612
600 0.0457019
Ex : 293
200 0.139706
205 0.455704
210 0.576945
215 0.438991
220 0.335797
225 0.321442
230 0.194544
235 0.691736
240 0.347895
245 0.25303
250 0.239261
255 0.175874
260 0.627184
265 0.30414
270 0.371302
275 0.36166
280 0.181479
285 0.462339
290 0.718546
295 0.224085
300 0.376584
305 0.291474
310 0.403169
315 0.205123
320 0.306324
325 0.223452
330 0.400962
335 0.338379
340 0.350649
345 0.44928
350 0.311167
355 0.464672
360 0.410642
365 0.754183
370 0.40855
375 0.572412
380 0.786916
385 0.433687
390 0.509687
395 0.639279
400 0.402856
405 0.696664
410 0.81138
415 0.526736
420 0.553469
425 0.899796
430 0.43472
435 0.918748
440 0.424568
445 0.379763
450 0.456464
455 0.295427
460 0.340146
465 0.450412
470 0.590909
475 0.673151
480 0.786695
485 0.35496
490 0.178789
495 0.371553
500 0.438295
505 0.262319
510 0.147136
515 0.343834
520 0.380881
525 0.357908
530 0.2136
535 0.432197
540 0.20479
545 0.429833
550 0.439104
555 0.231066
560 0.62655
565 0.514867
570 0.316616
575 0.506385
580 0.565173
585 0.553303
590 0.46723
595 0.392747
600 0.0635485
Ex : 298
200 0.190715
205 0.357974
210 0.231886
215 0.170074
220 0.230452
225 0.191855
230 0.16444
235 0.364155
240 0.346161
245 0.259004
250 0.372494
255 0.234934
260 0.12466
265 0.117318
270 0.243698
275 0.385046
280 0.154796
285 0.263602
290 0.198238
295 0.87982
300 0.413706
305 0.29929
310 0.159563
315 0.105445
320 0.15508
325 0.24052
330 0.266278
335 0.406478
340 0.194972
345 0.305336
350 0.193923
355 0.439273
360 0.350839
365 0.496822
370 0.542729
375 0.603804
380 0.551685
385 0.318839
390 0.416026
395 0.333478
400 0.368652
405 0.461345
410 0.529874
415 0.557189
420 0.423007
425 0.445933
430 0.702052
435 0.515621
440 0.397399
445 0.436063
450 0.352051
455 0.441629
460 0.348801
465 0.777446
470 0.5756
475 0.486297
480 0.494758
485 0.418858
490 0.391352
495 0.361007
500 0.20343
505 0.328638
510 0.58404
515 0.29575
520 0.15824
525 0.520485
530 0.509828
535 0.294801
540 0.286631
545 0.352714
550 0.245423
555 0.392234
560 0.462848
565 0.424487
570 0.317222
575 0.497365
580 0.196376
585 0.913406
590 0.685399
595 0.491749
600 1.25986
Ex : 303
200 0.182571
205 0.235475
210 0.232308
215 0.305828
220 0.252417
225 0.274145
230 0.262458
235 0.19979
240 0.188505
245 0.158839
250 0.204185
255 0.414838
260 0.162598
265 0.12173
270 0.235403
275 0.333954
280 0.178227
285 0.343176
290 0.247715
295 0.269498
300 0.477669
305 0.253437
310 0.264347
315 0.156883
320 0.157484
325 0.172256
330 0.244364
335 0.177868
340 0.345671
345 0.195063
350 0.204444
355 0.276062
360 0.269968
365 0.420454
370 0.433638
375 0.619074
380 0.388745
385 0.618288
390 0.457898
395 0.47529
400 0.451181
405 0.707336
410 0.610733
415 0.366072
420 0.364969
425 0.537497
430 0.378195
435 0.254406
440 0.323304
445 0.338462
450 0.711206
455 0.441487
460 0.587088
465 0.466455
470 0.521437
475 0.47755
480 0.393269
485 0.301487
490 0.369647
495 0.304057
500 0.24314
505 0.241484
510 0.225672
515 0.305127
520 0.24417
525 0.151637
530 0.218105
535 0.456289
540 0.294132
545 0.417094
550 0.290177
555 0.40084
560 0.248034
565 0.103489
570 0.284105
575 0.29606
580 0.120904
585 0.187046
590 0.382814
595 0.545768
600 0.0621063
Ex : 308
200 0.0899725
205 0.150798
210 0.305484
215 0.246948
220 0.328702
225 0.207793
230 0.153259
235 0.32919
240 0.228699
245 0.252069
250 0.222867
255 0.183744
260 0.170145
265 0.190571
270 0.314745
275 0.392696
280 0.264146
285 0.215707
290 0.0952237
295 0.176519
300 0.31682
305 0.589892
310 0.351516
315 0.363623
320 0.358034
325 0.402722
330 0.272402
335 0.31184
340 0.345842
345 0.244075
350 0.382378
355 0.459756
360 0.381076
365 0.34925
370 0.306587
375 0.344968
380 0.302689
385 0.226763
390 0.489362
395 0.556413
400 0.767854
405 0.368689
410 0.486131
415 0.468943
420 0.41123
425 0.294217
430 0.557005
435 0.426356
440 0.370579
445 0.489264
450 0.37455
455 0.446258
460 0.256618
465 0.287203
470 0.24271
475 0.302648
480 0.337137
485 0.391368
490 0.420093
495 0.332262
500 0.262481
505 0.223765
510 0.275577
515 0.394119
520 0.576144
525 0.210299
530 0.23065
535 0.210553
540 0.397904
545 0.233487
550 0.170814
555 0.233222
560 0.16219
565 0.187404
570 0.157996
575 0.217891
580 0.392103
585 0.172761
590 0.163476
595 0.177216
600 0.0201665
Ex : 313
200 0.196348
205 0.202312
210 0.0868226
215 0.222363
220 0.093453
225 0.113084
230 0.256939
235 0.120592
240 0.264962
245 0.173425
250 0.264593
255 0.289133
260 0.215753
265 0.135529
270 0.222992
275 0.219157
280 0.39218
285 0.126823
290 0.127944
295 0.184994
300 0.221162
305 0.31045
310 0.447361
315 0.226748
320 0.203847
325 0.22996
330 0.120417
335 0.280962
340 0.328546
345 0.329663
350 0.461386
355 0.607797
360 0.652638
365 0.663559
370 0.678043
375 0.661676
380 0.998122
385 0.921001
390 0.922098
395 1.08922
400 0.874868
405 0.883393
410 1.18807
415 1.15065
420 1.18907
425 0.949348
430 1.03335
435 1.00111
440 0.901599
445 0.77593
450 0.726494
455 0.710579
460 0.547468
465 0.812846
470 0.514335
475 0.521107
480 0.458776
485 0.596168
490 0.541345
495 0.31032
500 0.509778
505 0.446027
510 0.271974
515 0.352371
520 0.305637
525 0.31797
530 0.36509
535 0.332272
540 0.28798
545 0.246858
550 0.285195
555 0.143095
560 0.210535
565 0.173626
570 0.169073
575 0.175819
580 0.178626
585 0.188706
590 0.290748
595 0.223665
600 0.0254522
Ex : 318
200 0.194674
205 0.12118
210 0.186452
215 0.118231
220 0.108796
225 0.290024
230 0.153293
235 0.194541
240 0.131605
245 0.164539
250 0.0730835
255 0.160196
260 0.0921592
265 0.119075
270 0.28964
275 0.187311
280 0.122091
285 0.253743
290 0.192186
295 0.287803
300 0.151542
305 0.256572
310 0.532733
315 1.09512
320 0.573835
325 0.398582
330 0.550937
335 0.760995
340 0.936292
345 1.49349
350 2.4051
355 3.25965
360 3.70448
365 4.78658
370 5.7141
375 7.09167
380 8.28286
385 8.9891
390 9.86285
395 11.2375
400 11.34
405 11.5471
410 11.3411
415 11.1946
420 10.3202
425 10.4409
430 9.85431
435 9.79182
440 9.33506
445 8.7678
450 7.6066
455 7.54089
460 7.42443
465 6.63901
470 5.60423
475 5.41582
480 5.09247
485 4.18457
490 3.57683
495 3.26181
500 2.87745
505 2.50933
510 2.07462
515 1.87139
520 1.43312
525 1.35589
530 1.11333
535 1.07753
540 0.839185
545 0.800054
550 0.538999
555 0.643957
560 0.370987
565 0.323932
570 0.270599
575 0.431445
580 0.341477
585 0.199206
590 0.167151
595 0.187309
600 0.459438
Ex : 323
200 0.173944
205 0.163228
210 0.120013
215 0.132144
220 0.14037
225 0.139797
230 0.135382
235 0.161912
240 0.176599
245 0.112691
250 0.187263
255 0.103354
260 0.197033
265 0.160223
270 0.135745
275 0.158383
280 0.137735
285 0.117076
290 0.111365
295 0.106036
300 0.122313
305 0.0741113
310 0.141553
315 8.44441
320 35.1324
325 13.7893
330 3.10112
335 2.55838
340 4.16465
345 5.44316
350 8.46507
355 11.6881
360 14.5836
365 17.3396
370 20.1823
375 24.0653
380 28.0526
385 30.5974
390 32.545
395 34.9252
400 35.9596
405 37.3241
410 37.5175
415 37.1077
420 35.8697
425 34.5787
430 32.8368
435 31.7904
440 31.0325
445 29.6732
450 28.1699
455 26.4775
460 23.888
465 22.5474
470 20.5303
475 18.5671
480 16.8906
485 15.22
490 13.7536
495 12.634
500 10.5394
505 9.5363
510 8.39764
515 7.15589
520 5.96076
525 5.37945
530 4.13015
535 3.93652
540 3.22636
545 2.82739
550 2.43756
555 1.73673
560 1.46645
565 1.37536
570 0.818016
575 0.677089
580 0.475358
585 0.428086
590 0.285135
595 0.28225
600 0.0321189
Ex : 328
200 0.261446
205 0.224713
210 0.0815043
215 0.165224
220 0.254242
225 0.0828713
230 0.138357
235 0.141663
240 0.0683067
245 0.174731
250 0.0967715
255 0.102007
260 0.122217
265 0.103788
270 0.162063
275 0.2141
280 0.219671
285 0.20879
290 0.0864726
295 0.289362
300 0.197946
305 0.134703
310 0.189642
315 1.79303
320 77.0499
325 176.864
330 51.3974
335 8.92587
340 5.6426
345 6.32966
350 8.59844
355 12.3781
360 17.7445
365 19.0532
370 21.2647
375 23.6643
380 27.166
385 30.1611
390 33.6781
395 35.6263
400 36.4169
405 37.3802
410 37.4292
415 36.8395
420 35.7772
425 34.0427
430 32.2691
435 30.3794
440 30.2234
445 28.4398
450 27.165
455 24.7721
460 23.4589
465 21.4368
470 19.976
475 17.5681
480 16.2303
485 14.3384
490 13.7018
495 12.1467
500 10.5092
505 8.90415
510 8.06096
515 6.52581
520 6.10517
525 5.02338
530 4.65929
535 3.64328
540 3.41706
545 2.51352
550 2.46022
555 2.04683
560 1.72852
565 1.41528
570 1.17192
575 1.04043
580 0.513877
585 0.552461
590 0.328538
595 0.395615
600 0.0694104
Ex : 333
200 0.196505
205 0.154291
210 0.0684054
215 0.117646
220 0.0544172
225 0.142916
230 0.0829613
235 0.0766639
240 0.118263
245 0.0851798
250 0.0779293
255 0.132625
260 0.229898
265 0.187289
270 0.200181
275 0.0863275
280 0.155565
285 0.197845
290 0.127069
295 0.12068
300 0.144817
305 0.242929
310 0.246383
315 0.219836
320 9.26449
325 196.479
330 331.856
335 84.9609
340 12.7327
345 5.83003
350 5.63665
355 6.17521
360 8.74628
365 13.6004
370 14.6193
375 14.4029
380 15.1906
385 17.6185
390 19.8747
395 20.9801
400 21.5636
405 21.5052
410 22.7418
415 22.3567
420 21.4243
425 19.9573
430 18.8691
435 17.9864
440 16.6574
445 16.2869
450 15.4475
455 14.1494
460 13.0219
465 11.7699
470 10.8856
475 10.129
480 9.42503
485 7.99774
490 7.66655
495 6.73863
500 6.03874
505 5.20077
510 4.28492
515 3.80399
520 3.178
525 2.83829
530 2.46159
535 2.21804
540 1.82851
545 1.592
550 1.35932
555 1.22372
560 1.00081
565 0.783084
570 0.973587
575 0.682658
580 0.56663
585 0.444851
590 0.40925
595 0.339215
600 0.247544
Ex : 338
200 0.133811
205 0.178124
210 0.144452
215 0.152078
220 0.0913922
225 0.175678
230 0.127682
235 0.0908587
240 0.12646
245 0.0580978
250 0.0714401
255 0.100934
260 0.187627
265 0.207986
270 0.105607
275 0.215956
280 0.128335
285 0.0882589
290 0.135101
295 0.109644
300 0.113507
305 0.175798
310 0.0756861
315 0.208181
320 0.267604
325 17.1372
330 284.627
335 415.341
340 103.994
345 14.6282
350 4.98747
355 3.33367
360 3.32962
365 5.44499
370 9.69325
375 9.88033
380 9.29493
385 10.0804
390 11.8664
395 13.4836
400 12.7949
405 13.0135
410 13.6496
415 13.9092
420 13.7944
425 11.961
430 11.5287
435 10.8185
440 10.2127
445 10.0755
450 9.37875
455 7.99445
460 7.68301
465 7.20588
470 6.45902
475 6.18305
480 5.88197
485 4.7769
490 4.54717
495 3.95343
500 3.48648
505 3.12855
510 2.79201
515 2.49326
520 2.16097
525 2.05868
530 1.56671
535 1.64274
540 1.30472
545 1.45252
550 0.916002
555 1.11245
560 0.937968
565 0.766208
570 0.586124
575 0.483662
580 0.537155
585 0.366228
590 0.441998
595 0.284407
600 0.415043
Ex : 343
200 0.235834
205 0.160451
210 0.0955498
215 0.0866867
220 0.0931571
225 0.106434
230 0.0571239
235 0.0717831
240 0.0687515
245 0.0732673
250 0.0983169
255 0.179542
260 0.0998959
265 0.0700283
270 0.119441
275 0.190089
280 0.0994088
285 0.107808
290 0.105703
295 0.151273
300 0.0963268
305 0.120393
310 0.18746
315 0.301569
320 0.191563
325 0.234557
330 20.8841
335 326.79
340 478.142
345 115.011
350 15.1528
355 4.17521
360 2.91488
365 2.27667
370 3.27723
375 7.29346
380 8.75601
385 9.50636
390 10.2725
395 10.2858
400 9.42509
405 10.9706
410 11.5835
415 11.7716
420 11.0161
425 10.1874
430 9.10175
435 9.21307
440 8.84106
445 8.70977
450 7.97516
455 7.05827
460 6.23366
465 6.04325
470 5.58482
475 5.35353
480 4.91973
485 4.36521
490 3.82905
495 3.54609
500 3.35593
505 2.70834
510 2.64983
515 2.13258
520 1.8271
525 1.86206
530 1.57728
535 1.35344
540 1.28294
545 1.12492
550 1.08045
555 0.999308
560 0.67866
565 0.673975
570 0.606342
575 0.376802
580 0.40995
585 0.36123
590 0.33357
595 0.449087
600 0.739709
Ex : 348
200 0.0556786
205 0.0846499
210 0.139891
215 0.0615344
220 0.0864245
225 0.0804209
230 0.0993031
235 0.121944
240 0.0720211
245 0.10564
250 0.115093
255 0.0651342
260 0.057763
265 0.0785632
270 0.147934
275 0.0608685
280 0.150642
285 0.0819101
290 0.179186
295 0.0929785
300 0.125294
305 0.0719679
310 0.113081
315 0.154682
320 0.101789
325 0.196687
330 0.429314
335 20.6707
340 325.806
345 498.53
350 128.192
355 16.7333
360 4.17816
365 2.53255
370 1.85829
375 2.28989
380 6.32138
385 11.9769
390 13.182
395 13.2876
400 11.3642
405 11.9478
410 13.3735
415 14.1925
420 13.5092
425 11.5549
430 11.16
435 10.8146
440 10.3159
445 10.0097
450 8.92128
455 8.0496
460 7.20048
465 6.67214
470 5.75157
475 5.35195
480 5.11821
485 4.81202
490 4.23932
495 3.89412
500 3.37629
505 3.08855
510 2.88452
515 2.57954
520 2.17674
525 2.02958
530 1.75115
535 1.51131
540 1.46105
545 1.47028
550 0.991261
555 0.767098
560 0.887301
565 0.671602
570 0.588111
575 0.469709
580 0.428535
585 0.288466
590 0.221361
595 0.238499
600 0.304079
Ex : 353
200 0.124041
205 0.153875
210 0.156014
215 0.11679
220 0.079392
225 0.174685
230 0.120752
235 0.059019
240 0.0688338
245 0.0872506
250 0.10749
255 0.108831
260 0.105861
265 0.074298
270 0.062264
275 0.146088
280 0.0991438
285 0.205052
290 0.160002
295 0.0879653
300 0.133192
305 0.131804
310 0.244369
315 0.123851
320 0.105732
325 0.256094
330 0.24932
335 0.417259
340 22.0669
345 348.589
350 514.109
355 128.648
360 16.4085
365 3.62547
370 2.22078
375 1.75523
380 3.2377
385 8.45396
390 15.3092
395 15.8163
400 13.8098
405 12.4928
410 14.1137
415 15.2503
420 15.0481
425 12.9605
430 11.9804
435 11.3409
440 11.6314
445 10.7706
450 9.76498
455 8.94022
460 7.90724
465 7.29565
470 6.90199
475 6.55467
480 5.61518
485 5.27886
490 4.49656
495 4.28327
500 4.03677
505 3.54094
510 3.20212
515 3.01505
520 2.46683
525 2.12487
530 1.85637
535 1.62942
540 1.44499
545 1.21246
550 1.44898
555 1.1933
560 0.910141
565 0.706695
570 0.679489
575 0.442649
580 0.400941
585 0.436113
590 0.32355
595 0.282229
600 0.207296
Ex : 358
200 0.115848
205 0.0672886
210 0.130284
215 0.121508
220 0.0792744
225 0.186558
230 0.130654
235 0.109087
240 0.0611374
245 0.158968
250 0.101876
255 0.0846832
260 0.0706684
265 0.15888
270 0.139296
275 0.107223
280 0.144545
285 0.0703051
290 0.171986
295 0.0594211
300 0.138371
305 0.0743595
310 0.206625
315 0.106174
320 0.0519269
325 0.125669
330 0.186707
335 0.296919
340 0.52878
345 21.4656
350 337.993
355 522.559
360 130.385
365 16.4747
370 3.46508
375 2.52365
380 3.04583
385 5.52913
390 10.837
395 15.8352
400 14.6395
405 12.8762
410 13.6113
415 14.5207
420 14.0236
425 12.192
430 10.7735
435 10.6202
440 10.9325
445 10.4857
450 9.11418
455 8.35374
460 7.42068
465 7.13762
470 7.02164
475 6.52692
480 5.93725
485 5.59482
490 4.8621
495 4.05118
500 3.98512
505 3.62782
510 3.29894
515 3.13401
520 2.51917
525 2.24828
530 2.04605
535 1.82289
540 1.47064
545 1.49949
550 1.18986
555 0.929811
560 0.846227
565 0.770269
570 0.667758
575 0.634035
580 0.514293
585 0.312452
590 0.382071
595 0.370971
600 0.280442
Ex : 363
200 0.045219
205 0.10775
210 0.0672818
215 0.0854177
220 0.103222
225 0.114653
230 0.0539245
235 0.0887361
240 0.0783821
245 0.115737
250 0.0593082
255 0.0779637
260 0.0571296
265 0.147976
270 0.0587478
275 0.104543
280 0.123653
285 0.0920395
290 0.0972963
295 0.0565564
300 0.0718419
305 0.0976565
310 0.0952516
315 0.10471
320 0.110653
325 0.116926
330 0.17508
335 0.209552
340 0.223542
345 0.359449
350 19.0825
355 332.216
360 521.639
365 135.314
370 17.3893
375 3.95489
380 4.37335
385 7.6515
390 11.1172
395 12.8068
400 14.944
405 16.4458
410 17.0614
415 17.2997
420 15.0247
425 13.3267
430 12.0452
435 11.8876
440 11.9318
445 11.0966
450 9.67594
455 8.90276
460 8.35934
465 7.63695
470 7.5258
475 6.87549
480 6.30357
485 5.57898
490 5.3811
495 4.94842
500 4.60231
505 4.1226
510 3.79274
515 3.48501
520 2.75792
525 2.559
530 2.19084
535 1.84349
540 1.52625
545 1.52283
550 1.31342
555 1.09738
560 0.970786
565 1.00893
570 0.64499
575 0.577688
580 0.461002
585 0.350179
590 0.335215
595 0.261389
600 0.128212
Ex : 368
200 0.044859
205 0.0722146
210 0.139449
215 0.0826179
220 0.101766
225 0.0788495
230 0.148518
235 0.173908
240 0.0621075
245 0.0523294
250 0.0935569
255 0.091309
260 0.139664
265 0.132315
270 0.111334
275 0.0774487
280 0.160056
285 0.136065
290 0.100934
295 0.124362
300 0.0828147
305 0.147924
310 0.0538401
315 0.110398
320 0.0976645
325 0.13988
330 0.11738
335 0.114266
340 0.169897
345 0.237362
350 0.534758
355 15.8719
360 325.055
365 543.948
370 145.875
375 18.6715
380 5.64917
385 8.90721
390 13.8089
395 15.771
400 14.8676
405 17.231
410 21.3997
415 22.2451
420 20.6558
425 16.6719
430 14.878
435 14.1631
440 14.6837
445 13.8281
450 11.8217
455 10.6654
460 9.65089
465 9.18917
470 8.45075
475 7.97127
480 6.84262
485 6.58637
490 5.65863
495 5.28534
500 4.892
505 4.79575
510 3.89227
515 3.4745
520 3.15485
525 2.67188
530 2.4034
535 2.16178
540 1.74934
545 1.75764
550 1.53251
555 1.26586
560 0.976467
565 0.91772
570 0.703177
575 0.739403
580 0.489069
585 0.411146
590 0.342648
595 0.310602
600 0.0353454
Ex : 373
200 0.0346586
205 0.0788056
210 0.110007
215 0.0616595
220 0.0592718
225 0.0503745
230 0.0386974
235 0.0414257
240 0.0384273
245 0.0162676
250 0.079272
255 0.0490779
260 0.0516093
265 0.0471025
270 0.0778947
275 0.0755997
280 0.0608751
285 0.0744237
290 0.0992339
295 0.104995
300 0.0837243
305 0.0681156
310 0.0641596
315 0.0738012
320 0.101814
325 0.113136
330 0.117919
335 0.134159
340 0.132039
345 0.139441
350 0.202791
355 0.587084
360 19.8959
365 329.195
370 538.871
375 144.47
380 19.5502
385 8.40414
390 13.6234
395 16.527
400 14.9859
405 14.3028
410 18.1171
415 23.7825
420 22.3106
425 17.9292
430 14.5782
435 14.001
440 13.9408
445 13.7189
450 12.366
455 10.5343
460 9.52225
465 8.65751
470 8.09404
475 7.92307
480 7.1987
485 6.39977
490 5.81088
495 5.51559
500 4.84698
505 4.41331
510 4.23623
515 3.66894
520 3.27178
525 2.94018
530 2.619
535 2.24096
540 1.84606
545 1.63131
550 1.56563
555 1.4019
560 1.12799
565 0.989722
570 0.717652
575 0.566358
580 0.500003
585 0.347891
590 0.371857
595 0.258314
600 0.160399
Ex : 378
200 0.0865404
205 0.0656298
210 0.0978631
215 0.0492358
220 0.0595174
225 0.0698397
230 0.0845374
235 0.123906
240 0.0611017
245 0.0636744
250 0.0476921
255 0.0445464
260 0.0910878
265 0.0504788
270 0.0638129
275 0.0611125
280 0.0681054
285 0.153763
290 0.0629125
295 0.0406273
300 0.0576057
305 0.121706
310 0.0587275
315 0.0874313
320 0.0707879
325 0.106327
330 0.0884059
335 0.108694
340 0.11488
345 0.197085
350 0.185087
355 0.240322
360 0.573268
365 18.2625
370 340.712
375 560.1
380 150.843
385 22.5365
390 11.602
395 12.1904
400 11.2135
405 10.3353
410 12.1989
415 15.36
420 17.5708
425 15.0931
430 12.7637
435 11.3083
440 11.0398
445 11.0281
450 9.3801
455 8.5857
460 7.96327
465 7.63769
470 6.99894
475 6.7139
480 6.45451
485 5.94449
490 5.4864
495 4.86497
500 4.51954
505 4.31195
510 3.80364
515 3.40281
520 3.11821
525 2.75625
530 2.4038
535 2.16322
540 1.9201
545 1.7651
550 1.52955
555 1.36746
560 1.06101
565 1.06741
570 0.834001
575 0.655443
580 0.426545
585 0.407447
590 0.349502
595 0.249857
600 0.17008
Ex : 383
200 0.104336
205 0.0970024
210 0.0395852
215 0.0817118
220 0.0962785
225 0.108604
230 0.0343363
235 0.0815255
240 0.0413959
245 0.0708365
250 0.0674102
255 0.058177
260 0.0819639
265 0.0673703
270 0.0738626
275 0.0657854
280 0.0822454
285 0.0691061
290 0.0534836
295 0.0558183
300 0.0848411
305 0.119802
310 0.063414
315 0.0950691
320 0.0722568
325 0.0817441
330 0.0637588
335 0.0706396
340 0.202192
345 0.109782
350 0.145238
355 0.194524
360 0.306335
365 0.624347
370 17.5687
375 336.506
380 581.669
385 163.04
390 28.2471
395 12.37
400 10.2045
405 10.9839
410 12.9152
415 14.1597
420 13.5995
425 14.175
430 13.4227
435 12.5294
440 12.0144
445 10.5944
450 8.99431
455 8.62148
460 8.0658
465 7.50738
470 7.03921
475 7.03083
480 6.39472
485 6.07648
490 5.29632
495 5.17559
500 4.58124
505 4.11669
510 3.80789
515 3.42057
520 3.0456
525 2.76119
530 2.61199
535 2.34909
540 1.96999
545 1.86168
550 1.3726
555 1.38081
560 1.11416
565 0.963038
570 0.723849
575 0.7067
580 0.449307
585 0.423111
590 0.34958
595 0.209087
600 0.027255
Ex : 388
200 0.0591828
205 0.0469542
210 0.0540001
215 0.0537973
220 0.065553
225 0.0757976
230 0.0418662
235 0.0235613
240 0.067867
245 0.0851614
250 0.0509363
255 0.126001
260 0.100402
265 0.038867
270 0.052141
275 0.0232371
280 0.13036
285 0.0894316
290 0.0651816
295 0.0997387
300 0.0886708
305 0.0461662
310 0.150045
315 0.136253
320 0.102328
325 0.0802992
330 0.0875101
335 0.134725
340 0.0941246
345 0.0919504
350 0.105852
355 0.202039
360 0.23921
365 0.28268
370 0.632461
375 19.4825
380 352.235
385 595.181
390 168.079
395 31.7417
400 14.5105
405 13.5155
410 15.3887
415 17.1312
420 16.4524
425 14.4092
430 14.5965
435 15.8053
440 14.5945
445 13.1685
450 10.8531
455 9.75002
460 8.92889
465 8.47721
470 8.2597
475 7.43268
480 6.89984
485 6.39254
490 6.11604
495 5.48002
500 4.85449
505 4.45356
510 3.95872
515 3.63015
520 3.31594
525 3.08255
530 2.53409
535 2.1918
540 2.13978
545 1.827
550 1.5581
555 1.34049
560 1.13905
565 0.979316
570 0.790046
575 0.6236
580 0.515114
585 0.324146
590 0.290528
595 0.297353
600 0.361566
Ex : 393
200 0.0673632
205 0.0593212
210 0.0477586
215 0.0607793
220 0.0536836
225 0.0724665
230 0.0641235
235 0.0872063
240 0.0454754
245 0.0305866
250 0.0633055
255 0.0419855
260 0.0670872
265 0.0907635
270 0.0323498
275 0.0530001
280 0.103785
285 0.057102
290 0.0345841
295 0.067045
300 0.101877
305 0.101844
310 0.10575
315 0.0535059
320 0.0774989
325 0.0734325
330 0.0696291
335 0.0788505
340 0.0964651
345 0.102672
350 0.1218
355 0.16636
360 0.155618
365 0.247971
370 0.350821
375 0.576583
380 17.5917
385 352.252
390 608.149
395 176.203
400 32.3907
405 14.5427
410 15.0014
415 17.9749
420 17.8249
425 14.6974
430 12.4226
435 13.1434
440 15.039
445 14.616
450 12.3356
455 10.1849
460 8.33145
465 7.91936
470 7.57346
475 7.62293
480 6.54878
485 6.20588
490 5.74355
495 5.15969
500 5.07947
505 4.39194
510 4.04888
515 3.67595
520 3.37031
525 2.74062
530 2.61065
535 2.34033
540 1.98495
545 1.73495
550 1.67314
555 1.4484
560 1.09353
565 1.0526
570 0.764224
575 0.676069
580 0.534658
585 0.419786
590 0.263753
595 0.225386
600 0.025648
Ex : 398
200 0.0535296
205 0.078988
210 0.0647178
215 0.0504827
220 0.0440838
225 0.0682807
230 0.043794
235 0.0747136
240 0.0818227
245 0.0867268
250 0.0539776
255 0.0345334
260 0.0644334
265 0.043442
270 0.0547327
275 0.07732
280 0.03747
285 0.0474315
290 0.0529422
295 0.0488483
300 0.101694
305 0.0821998
310 0.0627424
315 0.0455165
320 0.0705914
325 0.0695437
330 0.206806
335 0.118715
340 0.112539
345 0.124553
350 0.0903595
355 0.0897338
360 0.156009
365 0.134289
370 0.181635
375 0.285826
380 0.83188
385 19.0503
390 359.579
395 616.958
400 171.151
405 26.272
410 10.6396
415 10.9321
420 11.6899
425 9.76731
430 8.01813
435 7.70888
440 8.83005
445 10.5142
450 9.80064
455 8.17324
460 7.00049
465 5.92522
470 5.83775
475 5.54133
480 5.31522
485 5.07198
490 4.69964
495 4.64718
500 4.20638
505 3.71809
510 3.54871
515 3.21301
520 3.05652
525 2.72544
530 2.45142
535 2.22082
540 1.86549
545 1.74628
550 1.49902
555 1.38849
560 1.02157
565 1.04709
570 0.721498
575 0.66545
580 0.565402
585 0.416302
590 0.294831
595 0.26581
600 0.0302481
Ex : 403
200 0.0665362
205 0.0314143
210 0.0647251
215 0.0666151
220 0.0500852
225 0.0414007
230 0.0304197
235 0.0546755
240 0.0785903
245 0.0830736
250 0.0654879
255 0.0801889
260 0.119536
265 0.0717109
270 0.112506
275 0.146856
280 0.0706127
285 0.0559463
290 0.0644578
295 0.0785407
300 0.0527449
305 0.0406354
310 0.0434201
315 0.0626941
320 0.0983343
325 0.0683575
330 0.0852748
335 0.106896
340 0.112487
345 0.082511
350 0.133688
355 0.127423
360 0.0846268
365 0.148787
370 0.139651
375 0.170531
380 0.335724
385 0.817069
390 21.4112
395 371.001
400 614.559
405 168.489
410 23.0471
415 7.12155
420 5.69428
425 5.02801
430 4.51819
435 4.23413
440 4.49088
445 5.2465
450 7.30501
455 7.3898
460 5.68129
465 5.21715
470 4.86971
475 4.5363
480 4.57238
485 4.14594
490 3.92728
495 3.68381
500 3.71429
505 3.47032
510 3.2177
515 2.80594
520 2.64066
525 2.60028
530 2.43905
535 2.10457
540 1.85952
545 1.60893
550 1.48284
555 1.2913
560 1.1691
565 0.95794
570 0.786627
575 0.628823
580 0.458269
585 0.429654
590 0.336767
595 0.250176
600 0.0284691
Ex : 408
200 0.0779798
205 0.0598752
210 0.0820115
215 0.0418826
220 0.0384654
225 0.0872164
230 0.044856
235 0.0390968
240 0.0579655
245 0.0413692
250 0.125233
255 0.0331681
260 0.0670799
265 0.0596181
270 0.0540841
275 0.0818168
280 0.0341253
285 0.082199
290 0.0723738
295 0.0471628
300 0.0577405
305 0.0884545
310 0.0389409
315 0.0451713
320 0.0678785
325 0.0746049
330 0.0548495
335 0.0790942
340 0.0567388
345 0.0730517
350 0.0851314
355 0.103771
360 0.15802
365 0.137788
370 0.140115
375 0.121221
380 0.171114
385 0.368336
390 0.687124
395 19.1654
400 376.821
405 637.639
410 170.558
415 23.2995
420 6.10559
425 4.10446
430 3.93863
435 3.88606
440 4.01396
445 4.24513
450 4.63962
455 5.96923
460 6.89007
465 5.63799
470 5.17982
475 4.79566
480 4.45211
485 4.09745
490 3.86722
495 3.8328
500 3.55362
505 3.53107
510 3.07387
515 2.86012
520 2.55865
525 2.36611
530 2.32003
535 2.03729
540 1.7817
545 1.60457
550 1.3998
555 1.23438
560 1.1799
565 1.06399
570 0.819852
575 0.587246
580 0.464188
585 0.332264
590 0.252591
595 0.229847
600 0.156658
Ex : 413
200 0.0373111
205 0.0415396
210 0.0585503
215 0.0784518
220 0.0670462
225 0.0486978
230 0.0580288
235 0.0455614
240 0.0677244
245 0.0972965
250 0.0752824
255 0.0509666
260 0.130806
265 0.0540138
270 0.0306336
275 0.0377925
280 0.0697974
285 0.0744506
290 0.0555109
295 0.0582671
300 0.113161
305 0.0775849
310 0.0317948
315 0.0796679
320 0.0847053
325 0.0664188
330 0.122803
335 0.111632
340 0.059223
345 0.0758522
350 0.0668132
355 0.101712
360 0.0785393
365 0.106531
370 0.171501
375 0.105979
380 0.165785
385 0.233418
390 0.391591
395 0.818536
400 22.4479
405 393.535
410 634.305
415 164.825
420 22.2482
425 5.37118
430 3.57589
435 3.75909
440 3.97953
445 3.90194
450 3.73794
455 3.53374
460 4.81546
465 6.24397
470 5.56551
475 5.11663
480 4.68992
485 4.20753
490 3.66027
495 3.54327
500 3.28305
505 3.34484
510 3.03874
515 2.73614
520 2.67382
525 2.32727
530 2.21873
535 1.93815
540 1.70603
545 1.54157
550 1.4576
555 1.35728
560 1.18991
565 0.965934
570 0.753446
575 0.599869
580 0.516783
585 0.381296
590 0.381609
595 0.23314
600 0.425616
Ex : 418
200 0.0820019
205 0.0482384
210 0.0659283
215 0.0747263
220 0.035865
225 0.0610656
230 0.0379248
235 0.0394428
240 0.0397532
245 0.08409
250 0.076171
255 0.0559946
260 0.052837
265 0.0292744
270 0.0481075
275 0.0553068
280 0.0618742
285 0.0605522
290 0.0281403
295 0.0613394
300 0.0817084
305 0.0620642
310 0.0519284
315 0.0934399
320 0.0901461
325 0.0978088
330 0.073675
335 0.046752
340 0.0733709
345 0.103538
350 0.0938498
355 0.102827
360 0.0769998
365 0.093186
370 0.109826
375 0.136318
380 0.134567
385 0.140939
390 0.197753
395 0.403163
400 0.643785
405 20.5184
410 386.474
415 639.972
420 171.334
425 22.1019
430 4.49091
435 2.68108
440 2.83628
445 2.84107
450 2.53426
455 2.60133
460 2.68173
465 3.17323
470 5.10607
475 5.25245
480 4.25146
485 3.80981
490 3.56626
495 3.0221
500 2.90487
505 3.01585
510 2.67437
515 2.43088
520 2.37368
525 2.31907
530 1.94886
535 1.76837
540 1.53813
545 1.51588
550 1.3082
555 1.08914
560 1.03616
565 0.94719
570 0.823361
575 0.568677
580 0.436264
585 0.420469
590 0.28578
595 0.198862
600 0.0226298
Ex : 423
200 0.0645582
205 0.0788617
210 0.125279
215 0.0669615
220 0.0567382
225 0.0389581
230 0.108865
235 0.0498229
240 0.11065
245 0.10614
250 0.0669421
255 0.043102
260 0.0194442
265 0.0467972
270 0.0512628
275 0.0628537
280 0.0390778
285 0.0608531
290 0.095469
295 0.0427319
300 0.0901267
305 0.0929869
310 0.090615
315 0.0635719
320 0.0591478
325 0.0956783
330 0.1038
335 0.0410389
340 0.0838586
345 0.0707608
350 0.084082
355 0.0954216
360 0.0861188
365 0.0682783
370 0.116518
375 0.0829124
380 0.147909
385 0.164001
390 0.246192
395 0.239657
400 0.334182
405 0.682375
410 21.3148
415 402.016
420 638.121
425 162.892
430 20.5045
435 3.89003
440 1.83308
445 2.03731
450 1.98465
455 1.96367
460 1.84889
465 1.80404
470 2.35555
475 3.91067
480 4.68194
485 3.89142
490 3.43842
495 3.03274
500 2.67776
505 2.44789
510 2.29539
515 2.36671
520 2.16525
525 2.0482
530 1.81284
535 1.5244
540 1.65006
545 1.43875
550 1.23503
555 1.09608
560 0.946179
565 0.811628
570 0.850397
575 0.618695
580 0.463406
585 0.390031
590 0.273462
595 0.328736
600 0.482651
Ex : 428
200 0.0873072
205 0.0599993
210 0.0688336
215 0.0678701
220 0.0836128
225 0.0657884
230 0.0454514
235 0.0658944
240 0.0780403
245 0.0589551
250 0.0603559
255 0.104621
260 0.0540113
265 0.0996778
270 0.0856054
275 0.093178
280 0.0780166
285 0.0759356
290 0.0790176
295 0.0515999
300 0.0575352
305 0.116483
310 0.0502979
315 0.0577245
320 0.0951042
325 0.0669176
330 0.0681303
335 0.054956
340 0.112961
345 0.0910489
350 0.0797702
355 0.0605483
360 0.066658
365 0.0859769
370 0.12124
375 0.110446
380 0.112795
385 0.104743
390 0.174843
395 0.133631
400 0.280359
405 0.389554
410 0.772354
415 24.0286
420 402.746
425 637.914
430 166.802
435 20.5917
440 3.53407
445 1.62639
450 1.45068
455 1.60258
460 1.60693
465 1.55411
470 1.74505
475 1.97487
480 3.28207
485 4.63038
490 3.67822
495 2.98747
500 2.76815
505 2.47886
510 2.15134
515 2.02781
520 1.95532
525 1.74779
530 1.56176
535 1.54243
540 1.4537
545 1.32623
550 1.07615
555 1.07142
560 0.929683
565 0.911524
570 0.715616
575 0.552693
580 0.412594
585 0.317312
590 0.287869
595 0.245117
600 0.418175
Ex : 433
200 0.0691557
205 0.0546168
210 0.0769511
215 0.0596502
220 0.0566084
225 0.0431472
230 0.0548037
235 0.0400964
240 0.0415208
245 0.0879469
250 0.0713442
255 0.107402
260 0.047528
265 0.0568531
270 0.0886645
275 0.0569337
280 0.0355077
285 0.0554313
290 0.067445
295 0.0475702
300 0.0415166
305 0.0344991
310 0.0553144
315 0.0663906
320 0.113574
325 0.107649
330 0.0828837
335 0.121308
340 0.0699688
345 0.0543267
350 0.0620522
355 0.0385381
360 0.0537776
365 0.0575597
370 0.0765846
375 0.0935696
380 0.230233
385 0.118837
390 0.101624
395 0.148375
400 0.231687
405 0.23129
410 0.323333
415 0.673375
420 25.3442
425 432.326
430 655.178
435 165.093
440 20.2428
445 3.51313
450 1.4763
455 1.46512
460 1.8163
465 1.58289
470 1.40914
475 1.61306
480 1.82341
485 2.49515
490 4.22667
495 3.65029
500 2.92701
505 2.60555
510 2.38217
515 1.8367
520 1.84952
525 1.72657
530 1.56332
535 1.40363
540 1.4094
545 1.26024
550 1.08434
555 1.06281
560 0.950116
565 0.908126
570 0.661364
575 0.528205
580 0.451013
585 0.351338
590 0.314681
595 0.234292
600 0.15751
Ex : 438
200 0.0511905
205 0.0489463
210 0.110384
215 0.0408055
220 0.0896597
225 0.0800268
230 0.109833
235 0.0902875
240 0.064318
245 0.0431311
250 0.0296351
255 0.0581172
260 0.0375391
265 0.0647476
270 0.0434017
275 0.0273727
280 0.0251531
285 0.03264
290 0.0514194
295 0.0842178
300 0.0969024
305 0.0764516
310 0.0528125
315 0.0537854
320 0.0636221
325 0.0400937
330 0.0397947
335 0.074518
340 0.0742685
345 0.0759221
350 0.102076
355 0.0503215
360 0.0676859
365 0.0704976
370 0.0646863
375 0.079893
380 0.112328
385 0.106968
390 0.106976
395 0.146007
400 0.164198
405 0.141367
410 0.191194
415 0.355874
420 0.634505
425 24.9638
430 434.301
435 697.402
440 176.694
445 21.7854
450 3.68766
455 1.47284
460 1.51305
465 1.70954
470 1.55729
475 1.41379
480 1.61243
485 1.52411
490 1.98811
495 3.80391
500 3.78174
505 2.875
510 2.52758
515 2.20399
520 1.68439
525 1.6672
530 1.63378
535 1.42628
540 1.36061
545 1.13962
550 1.08934
555 1.06518
560 0.909235
565 0.761031
570 0.613413
575 0.433339
580 0.378945
585 0.308157
590 0.32276
595 0.195634
600 0.0222624
Ex : 443
200 0.0428218
205 0.0371477
210 0.0537635
215 0.117581
220 0.0971785
225 0.0616683
230 0.0426471
235 0.0555257
240 0.0262126
245 0.0507793
250 0.0811072
255 0.056511
260 0.0359994
265 0.0217823
270 0.0729698
275 0.0532498
280 0.0728328
285 0.0874223
290 0.0622714
295 0.0564585
300 0.0820624
305 0.0699226
310 0.0635319
315 0.0538982
320 0.0992116
325 0.0644208
330 0.0679904
335 0.129732
340 0.113879
345 0.0594657
350 0.102629
355 0.056878
360 0.0786443
365 0.105861
370 0.10535
375 0.0859932
380 0.0612514
385 0.101928
390 0.121204
395 0.159396
400 0.160294
405 0.20571
410 0.197342
415 0.277398
420 0.360793
425 0.587798
430 27.6028
435 468.941
440 705.511
445 174.388
450 21.4382
455 3.84766
460 1.5184
465 1.49106
470 1.56767
475 1.62253
480 1.3974
485 1.46068
490 1.61609
495 1.85618
500 2.84441
505 3.79576
510 2.69496
515 2.18653
520 2.04985
525 1.71637
530 1.44102
535 1.24658
540 1.2906
545 1.14577
550 1.00364
555 0.85932
560 0.896194
565 0.716541
570 0.578225
575 0.533884
580 0.380501
585 0.337133
590 0.246064
595 0.236294
600 0.431331
Ex : 448
200 0.0458752
205 0.0307258
210 0.0397871
215 0.0438655
220 0.127334
225 0.109504
230 0.0642347
235 0.0631521
240 0.0643953
245 0.0610134
250 0.0586602
255 0.0668681
260 0.0611782
265 0.0496551
270 0.111518
275 0.0531406
280 0.0377557
285 0.0576496
290 0.0574891
295 0.0431099
300 0.0908389
305 0.0385937
310 0.101647
315 0.0468533
320 0.0692583
325 0.0411983
330 0.0867388
335 0.100004
340 0.0626557
345 0.0867356
350 0.0680156
355 0.0502788
360 0.0612343
365 0.17822
370 0.115246
375 0.0793085
380 0.0820692
385 0.176886
390 0.135015
395 0.0739527
400 0.11563
405 0.143265
410 0.135426
415 0.172823
420 0.229249
425 0.343563
430 0.728524
435 29.3701
440 491.982
445 740.203
450 184.449
455 22.5304
460 3.92645
465 1.63412
470 1.45964
475 1.59124
480 1.4743
485 1.52669
490 1.30482
495 1.42355
500 1.59571
505 2.41472
510 3.43337
515 3.13471
520 2.1729
525 2.02635
530 1.58041
535 1.31139
540 1.16417
545 1.13792
550 0.89523
555 0.950198
560 0.801677
565 0.74191
570 0.626716
575 0.503425
580 0.441075
585 0.357122
590 0.297606
595 0.183935
600 0.418093
Ex : 453
200 0.0262923
205 0.0369863
210 0.0934707
215 0.0552723
220 0.0830049
225 0.0776617
230 0.0723821
235 0.084373
240 0.0570801
245 0.0546754
250 0.0616931
255 0.0719581
260 0.0515682
265 0.0331752
270 0.0518943
275 0.0542972
280 0.0513857
285 0.0374071
290 0.0858914
295 0.0222993
300 0.0745969
305 0.0736155
310 0.0793403
315 0.0536925
320 0.0374486
325 0.0468105
330 0.0500536
335 0.0632624
340 0.0645287
345 0.0557596
350 0.0865256
355 0.0993018
360 0.0959387
365 0.084326
370 0.0921053
375 0.114654
380 0.0605415
385 0.0787311
390 0.0717812
395 0.0745969
400 0.13507
405 0.10446
410 0.144584
415 0.199731
420 0.170585
425 0.255304
430 0.398567
435 0.759819
440 30.5142
445 535.675
450 789.128
455 185.347
460 22.652
465 3.99657
470 1.49096
475 1.34513
480 1.7488
485 1.41278
490 1.29691
495 1.30542
500 1.29519
505 1.52914
510 1.79581
515 3.16355
520 3.11969
525 2.29339
530 1.84533
535 1.61484
540 1.20627
545 1.05687
550 0.930929
555 0.95974
560 0.814548
565 0.691781
570 0.662612
575 0.546171
580 0.493728
585 0.369132
590 0.327001
595 0.248411
600 0.0282682
Ex : 458
200 0.105783
205 0.0911001
210 0.0750133
215 0.0483609
220 0.05536
225 0.0602631
230 0.0323205
235 0.0330192
240 0.0357589
245 0.0441111
250 0.0494999
255 0.0813952
260 0.0684304
265 0.049666
270 0.0623333
275 0.0632338
280 0.053674
285 0.0911015
290 0.0634256
295 0.0531715
300 0.0432681
305 0.0364428
310 0.066114
315 0.0658
320 0.0423373
325 0.0791759
330 0.0897955
335 0.0704996
340 0.0409812
345 0.0664997
350 0.0351407
355 0.134463
360 0.107174
365 0.0702531
370 0.0734055
375 0.0967312
380 0.0816256
385 0.118829
390 0.11166
395 0.0704616
400 0.0802223
405 0.123353
410 0.0959323
415 0.102741
420 0.15726
425 0.202663
430 0.246462
435 0.353823
440 0.713147
445 34.756
450 554.295
455 822.004
460 198.613
465 24.3697
470 4.03734
475 1.48482
480 1.42223
485 1.54746
490 1.52973
495 1.2897
500 1.14848
505 1.22565
510 1.15347
515 1.34361
520 2.58114
525 3.01455
530 2.33487
535 1.78299
540 1.72631
545 1.29617
550 0.940528
555 0.845739
560 0.856644
565 0.735893
570 0.627332
575 0.504916
580 0.495282
585 0.394256
590 0.320988
595 0.260413
600 0.613657
Ex : 463
200 0.0593381
205 0.0341233
210 0.0621979
215 0.0683136
220 0.0491313
225 0.0766459
230 0.0671465
235 0.087457
240 0.0570562
245 0.0286495
250 0.06683
255 0.0569103
260 0.0715228
265 0.0603527
270 0.0635513
275 0.0784487
280 0.0509759
285 0.0611398
290 0.0519431
295 0.0555213
300 0.0631235
305 0.0297522
310 0.0509352
315 0.0492395
320 0.0401206
325 0.0352939
330 0.0450479
335 0.0500631
340 0.0602675
345 0.0670481
350 0.0667274
355 0.0741983
360 0.0809469
365 0.0741348
370 0.0800297
375 0.124933
380 0.0698851
385 0.0739659
390 0.108193
395 0.0844765
400 0.0776977
405 0.0930508
410 0.0885784
415 0.117398
420 0.117733
425 0.172333
430 0.149775
435 0.199773
440 0.387668
445 0.843157
450 33.1673
455 581.182
460 888.714
465 215.545
470 26.1853
475 4.294
480 1.60003
485 1.25491
490 1.50947
495 1.5521
500 1.27806
505 1.14938
510 1.05174
515 1.05919
520 1.28358
525 2.01619
530 2.84909
535 2.46197
540 1.718
545 1.52971
550 1.40748
555 1.06865
560 0.785291
565 0.705918
570 0.58122
575 0.501446
580 0.455874
585 0.379081
590 0.330585
595 0.274174
600 0.350017
Ex : 468
200 0.030845
205 0.0872866
210 0.0806734
215 0.0315659
220 0.0449948
225 0.0693614
230 0.0693716
235 0.0841606
240 0.0576613
245 0.0689
250 0.0589253
255 0.0770519
260 0.0585556
265 0.0572638
270 0.0693702
275 0.0534746
280 0.11517
285 0.0652287
290 0.0585388
295 0.0588489
300 0.0539014
305 0.0613795
310 0.0540321
315 0.129649
320 0.0724536
325 0.0603644
330 0.0390821
335 0.0579987
340 0.0620491
345 0.0771634
350 0.119549
355 0.0968993
360 0.0665659
365 0.0560582
370 0.0708663
375 0.0813589
380 0.0682808
385 0.078759
390 0.0745642
395 0.080393
400 0.0706226
405 0.0592136
410 0.104877
415 0.110001
420 0.124414
425 0.110076
430 0.126866
435 0.217507
440 0.241231
445 0.331928
450 0.719463
455 37.0005
460 602.338
465 951.178
470 230.626
475 27.9896
480 4.65264
485 1.62508
490 1.21756
495 1.41194
500 1.49535
505 1.21007
510 1.08194
515 1.05882
520 1.13823
525 1.20013
530 1.51457
535 2.42243
540 2.79072
545 1.8397
550 1.5179
555 1.22542
560 1.01342
565 0.763554
570 0.742607
575 0.555754
580 0.459714
585 0.495824
590 0.358689
595 0.30754
600 0.283421
Ex : 473
200 0.106497
205 0.0535992
210 0.0779255
215 0.041563
220 0.028427
225 0.0884798
230 0.0595641
235 0.0819218
240 0.0996451
245 0.0909461
250 0.0692208
255 0.0924235
260 0.0839832
265 0.0736679
270 0.0927573
275 0.0967694
280 0.0607413
285 0.0650218
290 0.0369434
295 0.0340037
300 0.080315
305 0.0695555
310 0.0712898
315 0.0451729
320 0.0939021
325 0.0753231
330 0.0928123
335 0.0715283
340 0.0800056
345 0.0627301
350 0.0425425
355 0.0938614
360 0.0737265
365 0.0754476
370 0.128325
375 0.0637272
380 0.068361
385 0.0898854
390 0.0790755
395 0.0658299
400 0.065646
405 0.0795697
410 0.0731154
415 0.0910901
420 0.101004
425 0.130437
430 0.11955
435 0.178992
440 0.191963
445 0.345112
450 0.4728
455 0.848129
460 44.1885
465 679.808
470 958.11
475 222.132
480 26.909
485 4.32618
490 1.56948
495 1.23855
500 1.44029
505 1.30673
510 1.19948
515 0.994917
520 1.0372
525 1.10638
530 1.14304
535 1.27775
540 2.03447
545 2.41278
550 1.88553
555 1.2701
560 1.17802
565 1.04162
570 0.827152
575 0.662535
580 0.512728
585 0.40902
590 0.292941
595 0.324839
600 0.447771
Ex : 478
200 0.0498176
205 0.0433467
210 0.0746173
215 0.0628563
220 0.0538813
225 0.0658982
230 0.0598539
235 0.056828
240 0.06023
245 0.103373
250 0.0631332
255 0.0928953
260 0.0769805
265 0.0736205
270 0.0846612
275 0.11237
280 0.0575088
285 0.0900434
290 0.107488
295 0.11794
300 0.0885005
305 0.0865762
310 0.0915402
315 0.0799465
320 0.062249
325 0.101795
330 0.0779549
335 0.055403
340 0.0862113
345 0.145497
350 0.0916994
355 0.088443
360 0.0779537
365 0.0694443
370 0.0586556
375 0.0423932
380 0.0646179
385 0.131298
390 0.0680557
395 0.115383
400 0.101706
405 0.0789756
410 0.0829932
415 0.0976988
420 0.121716
425 0.132417
430 0.123874
435 0.213872
440 0.234265
445 0.222922
450 0.356969
455 0.555328
460 1.00386
465 48.6916
470 700.653
475 979.664
480 234.76
485 28.3667
490 4.59037
495 1.46663
500 1.11777
505 1.18619
510 1.2204
515 1.14647
520 1.00393
525 1.02356
530 1.11385
535 1.11836
540 1.01712
545 1.48522
550 2.32718
555 1.96282
560 1.33184
565 1.00748
570 0.897643
575 0.690229
580 0.611338
585 0.392007
590 0.329311
595 0.309476
600 0.25754
Ex : 483
200 0.0963288
205 0.0733571
210 0.088168
215 0.119963
220 0.0780945
225 0.0979281
230 0.17379
235 0.0612382
240 0.0894748
245 0.0693456
250 0.046907
255 0.0592171
260 0.0741792
265 0.0656632
270 0.0297968
275 0.063551
280 0.0858676
285 0.071387
290 0.0437517
295 0.0774985
300 0.0619558
305 0.121639
310 0.0805298
315 0.0429824
320 0.0650391
325 0.0726337
330 0.100803
335 0.0673093
340 0.0970525
345 0.135672
350 0.079109
355 0.0949977
360 0.0553458
365 0.0730119
370 0.0737221
375 0.07503
380 0.0993055
385 0.0879206
390 0.109168
395 0.114708
400 0.0828216
405 0.13436
410 0.10259
415 0.0957516
420 0.108653
425 0.133627
430 0.125314
435 0.105085
440 0.17318
445 0.185824
450 0.248983
455 0.343049
460 0.610994
465 1.16107
470 38.0214
475 687.497
480 1062.3
485 256.457
490 30.9089
495 4.75968
500 1.51254
505 1.06529
510 1.05726
515 1.26627
520 1.1883
525 1.17839
530 0.964459
535 0.9476
540 0.964378
545 0.968608
550 1.16576
555 2.03394
560 2.13753
565 1.18427
570 0.920936
575 0.897539
580 0.659069
585 0.438481
590 0.378197
595 0.311555
600 0.762752
Ex : 488
200 0.0648165
205 0.0668581
210 0.0994872
215 0.0527601
220 0.048865
225 0.0791191
230 0.0649317
235 0.0455141
240 0.0819826
245 0.161986
250 0.0904579
255 0.108942
260 0.118941
265 0.0683114
270 0.0778614
275 0.0565312
280 0.0757378
285 0.0701719
290 0.0661266
295 0.102563
300 0.140494
305 0.0780301
310 0.0689418
315 0.0406496
320 0.0626705
325 0.135489
330 0.121248
335 0.10911
340 0.076037
345 0.0558025
350 0.0844438
355 0.0719676
360 0.0922445
365 0.0659052
370 0.100685
375 0.192046
380 0.121745
385 0.0946173
390 0.0718369
395 0.0933144
400 0.0851349
405 0.10801
410 0.099918
415 0.122769
420 0.108551
425 0.115347
430 0.168411
435 0.161551
440 0.158735
445 0.160062
450 0.231993
455 0.284254
460 0.382156
465 0.721737
470 1.17445
475 48.8418
480 762.466
485 1068.81
490 251.936
495 30.4507
500 4.78617
505 1.58379
510 1.11995
515 1.24752
520 1.33019
525 1.26238
530 1.01281
535 1.02595
540 0.948476
545 0.926117
550 0.865597
555 0.98544
560 1.51172
565 2.0012
570 1.32913
575 0.807171
580 0.764527
585 0.452874
590 0.349624
595 0.29357
600 0.807131
Ex : 493
200 0.0557668
205 0.0956092
210 0.114842
215 0.109624
220 0.0781434
225 0.0459653
230 0.0950613
235 0.0832117
240 0.0965973
245 0.0492123
250 0.0754277
255 0.134839
260 0.0658856
265 0.039528
270 0.110398
275 0.134081
280 0.0554705
285 0.100346
290 0.167319
295 0.066954
300 0.0759498
305 0.0815781
310 0.0670896
315 0.0624145
320 0.0603328
325 0.0799712
330 0.0657527
335 0.0860779
340 0.0603156
345 0.0751451
350 0.0769687
355 0.10711
360 0.0613553
365 0.151298
370 0.088178
375 0.0743419
380 0.0699984
385 0.10332
390 0.12198
395 0.073523
400 0.119172
405 0.0772801
410 0.0967935
415 0.10624
420 0.0733233
425 0.094103
430 0.0814495
435 0.174707
440 0.178267
445 0.186283
450 0.164905
455 0.217186
460 0.267949
465 0.382157
470 0.61087
475 1.10314
480 45.6247
485 763.19
490 1140.81
495 261.158
500 31.2909
505 4.7309
510 1.47055
515 1.04975
520 1.0533
525 1.27033
530 1.2195
535 1.09473
540 0.994165
545 0.96738
550 0.897722
555 0.803581
560 0.904375
565 1.01359
570 1.49269
575 1.43242
580 0.770645
585 0.592939
590 0.592481
595 0.455171
600 0.0517968
Ex : 498
200 0.0666069
205 0.0879581
210 0.0828334
215 0.0512063
220 0.0563449
225 0.0863941
230 0.0810601
235 0.067839
240 0.0644276
245 0.0897795
250 0.138587
255 0.090751
260 0.066426
265 0.119346
270 0.0922125
275 0.0640547
280 0.0892214
285 0.0973177
290 0.0536001
295 0.0738659
300 0.0654627
305 0.085751
310 0.0786732
315 0.0853862
320 0.142275
325 0.0919799
330 0.0906486
335 0.200673
340 0.116224
345 0.144995
350 0.106392
355 0.0622862
360 0.126284
365 0.0751278
370 0.135647
375 0.0820773
380 0.0892277
385 0.119285
390 0.119085
395 0.0851944
400 0.0668006
405 0.143173
410 0.100735
415 0.113913
420 0.0926635
425 0.101857
430 0.160996
435 0.0985283
440 0.130008
445 0.11687
450 0.201627
455 0.194762
460 0.209303
465 0.321855
470 0.426039
475 0.613566
480 1.09547
485 54.3284
490 820.679
495 1124.02
500 260.716
505 31.3501
510 4.62453
515 1.70936
520 1.16458
525 1.01589
530 1.28699
535 1.04289
540 1.06886
545 0.949795
550 0.824622
555 0.687292
560 0.687731
565 0.683993
570 0.750076
575 1.22007
580 1.22914
585 0.659714
590 0.426537
595 0.430225
600 0.493929
Ex : 503
200 0.0786339
205 0.0580982
210 0.0654231
215 0.0730272
220 0.0816615
225 0.112802
230 0.125902
235 0.110961
240 0.0816951
245 0.114639
250 0.0861683
255 0.0830534
260 0.0678148
265 0.0758432
270 0.0483184
275 0.107742
280 0.0878984
285 0.0793208
290 0.148953
295 0.102226
300 0.131263
305 0.101682
310 0.164827
315 0.13225
320 0.109215
325 0.083193
330 0.119027
335 0.102485
340 0.0815469
345 0.090703
350 0.115699
355 0.075951
360 0.0916366
365 0.0444372
370 0.112543
375 0.152166
380 0.134775
385 0.139771
390 0.111183
395 0.0834586
400 0.171971
405 0.112899
410 0.123869
415 0.193343
420 0.137487
425 0.125035
430 0.212024
435 0.131236
440 0.118676
445 0.144819
450 0.152826
455 0.148868
460 0.257996
465 0.348419
470 0.324466
475 0.476264
480 0.67804
485 1.40127
490 51.6762
495 834.865
500 1180.6
505 272.939
510 33.02
515 5.01086
520 1.66742
525 1.10961
530 0.999936
535 0.998774
540 1.11506
545 0.988689
550 0.845735
555 0.751515
560 0.682734
565 0.654261
570 0.615885
575 0.563307
580 0.75061
585 1.01849
590 0.618403
595 0.469996
600 0.26131
Ex : 508
200 0.0931522
205 0.0625358
210 0.0875134
215 0.0919662
220 0.069371
225 0.0680301
230 0.100759
235 0.0893677
240 0.0746033
245 0.0876218
250 0.101717
255 0.0874244
260 0.0483485
265 0.0559929
270 0.0579482
275 0.0682871
280 0.0837422
285 0.121629
290 0.0501806
295 0.144092
300 0.164648
305 0.0964565
310 0.130449
315 0.115097
320 0.0746597
325 0.150977
330 0.151655
335 0.110102
340 0.0707236
345 0.109589
350 0.106292
355 0.14915
360 0.142094
365 0.0818574
370 0.131263
375 0.120355
380 0.134343
385 0.135788
390 0.202159
395 0.185089
400 0.121316
405 0.118059
410 0.159563
415 0.158161
420 0.0874739
425 0.111751
430 0.108422
435 0.115387
440 0.152225
445 0.158898
450 0.203674
455 0.167044
460 0.183164
465 0.17998
470 0.221922
475 0.369189
480 0.44904
485 0.648634
490 1.29783
495 56.1994
500 846.172
505 1187.71
510 285.474
515 34.3094
520 5.39707
525 1.63596
530 1.06953
535 1.04015
540 1.12934
545 0.978197
550 0.831562
555 0.817017
560 0.675707
565 0.606745
570 0.57842
575 0.458508
580 0.443246
585 0.539654
590 0.744478
595 0.633883
600 0.808613
Ex : 513
200 0.0694784
205 0.0860686
210 0.0957201
215 0.0756666
220 0.147712
225 0.074551
230 0.0865985
235 0.0866729
240 0.126591
245 0.0984242
250 0.144011
255 0.083692
260 0.118785
265 0.0747788
270 0.11264
275 0.0657391
280 0.109609
285 0.0737245
290 0.111067
295 0.0956926
300 0.105815
305 0.0738926
310 0.0690233
315 0.101733
320 0.0586707
325 0.0899073
330 0.105861
335 0.139102
340 0.0946361
345 0.13275
350 0.120621
355 0.0986504
360 0.129931
365 0.107071
370 0.14163
375 0.0752966
380 0.0821787
385 0.164206
390 0.075199
395 0.126365
400 0.099155
405 0.141182
410 0.103961
415 0.105052
420 0.0718545
425 0.0581234
430 0.102117
435 0.0946835
440 0.197165
445 0.288428
450 0.119931
455 0.270034
460 0.153638
465 0.164319
470 0.217593
475 0.303646
480 0.397046
485 0.4763
490 0.739184
495 1.2157
500 52.3923
505 839.637
510 1220
515 298.901
520 36.0249
525 5.44116
530 1.62822
535 1.205
540 0.872884
545 0.804395
550 0.941643
555 0.92267
560 0.779689
565 0.658506
570 0.547119
575 0.484205
580 0.370802
585 0.394822
590 0.474809
595 0.517958
600 0.441715
Ex : 518
200 0.113665
205 0.101381
210 0.0892235
215 0.0609834
220 0.116921
225 0.0941751
230 0.0391456
235 0.10134
240 0.121371
245 0.0773303
250 0.0657869
255 0.089236
260 0.0737457
265 0.071218
270 0.134485
275 0.105206
280 0.117789
285 0.0733695
290 0.0795392
295 0.159241
300 0.110249
305 0.0991249
310 0.148035
315 0.108287
320 0.132423
325 0.102439
330 0.10345
335 0.126513
340 0.0913333
345 0.106307
350 0.0840182
355 0.141878
360 0.151256
365 0.0922538
370 0.0741634
375 0.0931997
380 0.0923856
385 0.166334
390 0.0948943
395 0.0809291
400 0.110309
405 0.131774
410 0.124082
415 0.277448
420 0.102551
425 0.124147
430 0.0982438
435 0.155731
440 0.150856
445 0.181876
450 0.151497
455 0.218136
460 0.186729
465 0.158265
470 0.16772
475 0.201519
480 0.270428
485 0.374704
490 0.554064
495 0.697487
500 1.28227
505 52.5689
510 827.842
515 1219.42
520 300.176
525 36.1025
530 5.15072
535 1.52405
540 1.04676
545 0.932407
550 0.787358
555 0.727824
560 0.799698
565 0.686263
570 0.521298
575 0.462272
580 0.362049
585 0.387459
590 0.344153
595 0.348138
600 0.482719
Ex : 523
200 0.114573
205 0.207702
210 0.162844
215 0.126321
220 0.103627
225 0.0634384
230 0.0903703
235 0.063083
240 0.152501
245 0.143685
250 0.0987195
255 0.0953417
260 0.164607
265 0.206265
270 0.105883
275 0.0903087
280 0.0618542
285 0.0792722
290 0.101154
295 0.0793578
300 0.0745587
305 0.119049
310 0.105492
315 0.124472
320 0.0689163
325 0.0760281
330 0.0693069
335 0.0613465
340 0.114565
345 0.115653
350 0.106628
355 0.105863
360 0.0827747
365 0.141965
370 0.0695892
375 0.178039
380 0.0910301
385 0.153902
390 0.140477
395 0.0907271
400 0.0664079
405 0.120784
410 0.0962828
415 0.157567
420 0.118038
425 0.12004
430 0.110325
435 0.119013
440 0.115923
445 0.145627
450 0.17792
455 0.212419
460 0.166701
465 0.128196
470 0.171464
475 0.223222
480 0.372237
485 0.327722
490 0.331606
495 0.476607
500 0.539654
505 1.11317
510 49.2447
515 816.209
520 1241.98
525 316.819
530 37.9585
535 5.41866
540 1.56741
545 0.975494
550 0.660152
555 0.658091
560 0.712782
565 0.551478
570 0.562953
575 0.548251
580 0.310568
585 0.377182
590 0.308245
595 0.296625
600 0.218015
Ex : 528
200 0.141413
205 0.140401
210 0.0818994
215 0.128141
220 0.0834884
225 0.114452
230 0.129616
235 0.161743
240 0.167726
245 0.140629
250 0.0977376
255 0.15
260 0.0765345
265 0.128537
270 0.0732593
275 0.136536
280 0.145263
285 0.101362
290 0.130431
295 0.0981341
300 0.177072
305 0.081429
310 0.0413318
315 0.0661836
320 0.112096
325 0.0806907
330 0.0685327
335 0.087633
340 0.179389
345 0.105425
350 0.0984029
355 0.0645902
360 0.101974
365 0.12013
370 0.0647122
375 0.0869923
380 0.125326
385 0.106428
390 0.0743731
395 0.0959642
400 0.192335
405 0.125679
410 0.142484
415 0.152603
420 0.116884
425 0.0684974
430 0.0938574
435 0.142548
440 0.0780547
445 0.150449
450 0.162177
455 0.12021
460 0.235421
465 0.150025
470 0.21415
475 0.201178
480 0.185955
485 0.277352
490 0.318779
495 0.366965
500 0.426848
505 0.655433
510 1.20437
515 46.0439
520 801.232
525 1232.36
530 308.944
535 36.8751
540 5.0649
545 1.43521
550 0.80263
555 0.620186
560 0.646967
565 0.610752
570 0.632886
575 0.469033
580 0.475454
585 0.363716
590 0.330248
595 0.283682
600 0.532192
Ex : 533
200 0.107756
205 0.0706846
210 0.11191
215 0.169368
220 0.057056
225 0.113749
230 0.164962
235 0.112994
240 0.104292
245 0.110896
250 0.168501
255 0.117592
260 0.143209
265 0.105297
270 0.128511
275 0.0983361
280 0.0650015
285 0.109087
290 0.140037
295 0.102011
300 0.142012
305 0.110266
310 0.0562418
315 0.0755119
320 0.0725137
325 0.127043
330 0.168031
335 0.174084
340 0.182316
345 0.142636
350 0.112706
355 0.12796
360 0.194374
365 0.0948194
370 0.0896727
375 0.112987
380 0.142225
385 0.103208
390 0.0727389
395 0.110882
400 0.131811
405 0.146156
410 0.0925572
415 0.12829
420 0.179683
425 0.143581
430 0.188078
435 0.153462
440 0.160976
445 0.114167
450 0.184537
455 0.166965
460 0.141204
465 0.189071
470 0.244246
475 0.122076
480 0.165742
485 0.320172
490 0.294446
495 0.258423
500 0.359756
505 0.489338
510 0.660001
515 1.363
520 46.6115
525 794.615
530 1230.39
535 318.629
540 37.9943
545 5.30353
550 1.32028
555 0.894928
560 0.704087
565 0.531016
570 0.515877
575 0.511406
580 0.499393
585 0.412786
590 0.335416
595 0.421214
600 0.505176
Ex : 538
200 0.110243
205 0.116737
210 0.130815
215 0.114573
220 0.105054
225 0.101374
230 0.133706
235 0.127839
240 0.0983995
245 0.098937
250 0.0846445
255 0.0941592
260 0.137299
265 0.105758
270 0.101572
275 0.108512
280 0.0839201
285 0.123245
290 0.10956
295 0.0725903
300 0.116959
305 0.0980269
310 0.11402
315 0.11454
320 0.0795747
325 0.0925307
330 0.0794877
335 0.159835
340 0.209313
345 0.174564
350 0.119771
355 0.0629652
360 0.106387
365 0.132131
370 0.119105
375 0.189981
380 0.145865
385 0.118893
390 0.125873
395 0.10773
400 0.111536
405 0.173201
410 0.254806
415 0.188393
420 0.112284
425 0.136176
430 0.180616
435 0.199507
440 0.166763
445 0.100304
450 0.110075
455 0.168445
460 0.1757
465 0.14353
470 0.162841
475 0.18369
480 0.151983
485 0.15819
490 0.220776
495 0.214474
500 0.293325
505 0.258906
510 0.447649
515 0.657321
520 1.06809
525 38.7668
530 754.005
535 1234.37
540 328.865
545 39.2827
550 5.47147
555 1.23388
560 0.758914
565 0.541812
570 0.527101
575 0.485475
580 0.493206
585 0.482944
590 0.324033
595 0.365966
600 0.460666
Ex : 543
200 0.0779737
205 0.108521
210 0.108888
215 0.103372
220 0.114127
225 0.156199
230 0.0991132
235 0.0979944
240 0.0732707
245 0.100402
250 0.0907585
255 0.125255
260 0.11648
265 0.0970403
270 0.167006
275 0.2113
280 0.150358
285 0.0986889
290 0.103467
295 0.110294
300 0.116859
305 0.105621
310 0.0753619
315 0.0954982
320 0.123802
325 0.120328
330 0.102836
335 0.0956585
340 0.0737369
345 0.0992867
350 0.158584
355 0.170918
360 0.1348
365 0.144007
370 0.0894191
375 0.118123
380 0.177029
385 0.134735
390 0.115221
395 0.100642
400 0.166639
405 0.234064
410 0.197005
415 0.277451
420 0.215404
425 0.1785
430 0.262859
435 0.12885
440 0.160324
445 0.134322
450 0.136013
455 0.193808
460 0.125291
465 0.207882
470 0.122823
475 0.14933
480 0.180105
485 0.148225
490 0.226536
495 0.235077
500 0.309307
505 0.297001
510 0.313291
515 0.444896
520 0.544672
525 1.12427
530 36.0755
535 731.641
540 1230.44
545 339.228
550 40.8193
555 5.64327
560 1.26002
565 0.760953
570 0.455391
575 0.379922
580 0.376435
585 0.391854
590 0.481121
595 0.335022
600 0.157612
Ex : 548
200 0.113192
205 0.046517
210 0.0952194
215 0.107827
220 0.139325
225 0.074164
230 0.0738922
235 0.234723
240 0.12779
245 0.0621505
250 0.15275
255 0.0852053
260 0.0919812
265 0.153662
270 0.121925
275 0.105179
280 0.123035
285 0.125778
290 0.0780047
295 0.0745577
300 0.15991
305 0.191368
310 0.120244
315 0.11073
320 0.185354
325 0.11975
330 0.132245
335 0.14923
340 0.158176
345 0.090954
350 0.0785761
355 0.0901021
360 0.0783575
365 0.0929807
370 0.148889
375 0.130317
380 0.117154
385 0.0971831
390 0.11033
395 0.172705
400 0.127867
405 0.138218
410 0.103098
415 0.238212
420 0.153498
425 0.166004
430 0.101497
435 0.122173
440 0.196797
445 0.176932
450 0.167059
455 0.177792
460 0.159474
465 0.162299
470 0.148761
475 0.18444
480 0.248658
485 0.156561
490 0.264404
495 0.241136
500 0.192389
505 0.23362
510 0.25601
515 0.432375
520 0.433742
525 0.554082
530 1.12795
535 39.6752
540 727.103
545 1209.2
550 334.92
555 39.9499
560 5.24593
565 1.24953
570 0.696679
575 0.424064
580 0.414269
585 0.392626
590 0.363688
595 0.346828
600 0.160314
Ex : 553
200 0.158087
205 0.132222
210 0.165259
215 0.150351
220 0.113102
225 0.112609
230 0.145967
235 0.110757
240 0.142359
245 0.240618
250 0.137952
255 0.139396
260 0.0712113
265 0.132615
270 0.143505
275 0.139843
280 0.100778
285 0.106017
290 0.158951
295 0.133538
300 0.118196
305 0.165985
310 0.0783787
315 0.101543
320 0.092142
325 0.207266
330 0.176714
335 0.131585
340 0.179262
345 0.112314
350 0.213159
355 0.173726
360 0.110109
365 0.0794085
370 0.180438
375 0.18141
380 0.138712
385 0.150837
390 0.162931
395 0.0904896
400 0.104692
405 0.161291
410 0.161371
415 0.13098
420 0.207476
425 0.168719
430 0.174168
435 0.154365
440 0.138151
445 0.160031
450 0.118816
455 0.196912
460 0.213198
465 0.173125
470 0.165368
475 0.200318
480 0.251658
485 0.161938
490 0.171809
495 0.179503
500 0.229248
505 0.281865
510 0.251682
515 0.216532
520 0.204358
525 0.42482
530 0.666012
535 1.05549
540 34.975
545 690.073
550 1196.96
555 337.262
560 40.0987
565 5.38412
570 1.19966
575 0.567711
580 0.4402
585 0.305457
590 0.405283
595 0.363841
600 0.244709
Ex : 558
200 0.145662
205 0.0878186
210 0.106823
215 0.0928023
220 0.128756
225 0.0778875
230 0.154439
235 0.136916
240 0.149877
245 0.160956
250 0.12298
255 0.0839683
260 0.0713085
265 0.116107
270 0.0874515
275 0.158776
280 0.069275
285 0.0716343
290 0.132996
295 0.15864
300 0.0873358
305 0.10254
310 0.139557
315 0.197994
320 0.151367
325 0.0898222
330 0.131578
335 0.12198
340 0.0984226
345 0.155288
350 0.128106
355 0.110433
360 0.125998
365 0.173746
370 0.127037
375 0.145415
380 0.134967
385 0.13
390 0.100077
395 0.146646
400 0.218398
405 0.156728
410 0.121379
415 0.201682
420 0.193726
425 0.112218
430 0.177862
435 0.119439
440 0.143068
445 0.117391
450 0.242131
455 0.197448
460 0.246247
465 0.166039
470 0.144829
475 0.149327
480 0.0990176
485 0.113949
490 0.119498
495 0.235766
500 0.143561
505 0.152139
510 0.218019
515 0.194077
520 0.261698
525 0.40097
530 0.558154
535 0.59516
540 0.962479
545 32.7292
550 669.194
555 1181.18
560 335.166
565 40.1044
570 5.29723
575 1.11023
580 0.641547
585 0.446632
590 0.306222
595 0.33733
600 0.60037
Ex : 563
200 0.0775112
205 0.132517
210 0.0760872
215 0.103304
220 0.150017
225 0.0981209
230 0.0867744
235 0.0718143
240 0.0986011
245 0.122079
250 0.0794825
255 0.154388
260 0.133479
265 0.0887179
270 0.194755
275 0.140429
280 0.208134
285 0.0556177
290 0.115574
295 0.105479
300 0.0869124
305 0.105031
310 0.0852009
315 0.0969996
320 0.0944019
325 0.130987
330 0.133599
335 0.119996
340 0.0793892
345 0.128578
350 0.132721
355 0.138414
360 0.237436
365 0.110134
370 0.132341
375 0.245446
380 0.125001
385 0.16929
390 0.299301
395 0.0971883
400 0.118361
405 0.120239
410 0.165454
415 0.0959818
420 0.14882
425 0.125554
430 0.171565
435 0.173948
440 0.172293
445 0.144739
450 0.1425
455 0.130863
460 0.158727
465 0.165117
470 0.172338
475 0.154734
480 0.191445
485 0.162178
490 0.119302
495 0.118488
500 0.227487
505 0.203128
510 0.208693
515 0.184779
520 0.241209
525 0.318847
530 0.41229
535 0.445729
540 0.536494
545 0.893184
550 32.6793
555 641.477
560 1117.83
565 322.238
570 38.2286
575 4.89217
580 0.874766
585 0.554565
590 0.419332
595 0.325504
600 0.0370411
Ex : 568
200 0.165515
205 0.0873531
210 0.149997
215 0.120524
220 0.19238
225 0.10283
230 0.166022
235 0.185518
240 0.185999
245 0.0717393
250 0.0622641
255 0.0877866
260 0.141791
265 0.0854796
270 0.168522
275 0.112686
280 0.1384
285 0.158148
290 0.143812
295 0.105355
300 0.134163
305 0.114559
310 0.130022
315 0.0805631
320 0.109382
325 0.0401069
330 0.112128
335 0.137636
340 0.112447
345 0.134988
350 0.118395
355 0.0978079
360 0.095635
365 0.0912589
370 0.1712
375 0.0924295
380 0.101767
385 0.145929
390 0.171503
395 0.1426
400 0.146193
405 0.141487
410 0.107524
415 0.135713
420 0.126803
425 0.0871726
430 0.111087
435 0.138787
440 0.281655
445 0.138027
450 0.175478
455 0.175323
460 0.255896
465 0.158384
470 0.178589
475 0.121165
480 0.127309
485 0.109462
490 0.158763
495 0.228485
500 0.151874
505 0.100232
510 0.260775
515 0.171435
520 0.197217
525 0.202318
530 0.28975
535 0.262082
540 0.45257
545 0.501401
550 0.83071
555 23.943
560 583.454
565 1093.01
570 328.324
575 39.2548
580 5.23138
585 0.879231
590 0.377845
595 0.436009
600 0.583611
Ex : 573
200 0.0912692
205 0.131181
210 0.12095
215 0.131443
220 0.0636471
225 0.101393
230 0.0838116
235 0.121402
240 0.113585
245 0.0600158
250 0.125851
255 0.119949
260 0.125432
265 0.17352
270 0.190671
275 0.159258
280 0.184737
285 0.15196
290 0.0516172
295 0.121854
300 0.137635
305 0.0929689
310 0.118053
315 0.128113
320 0.190423
325 0.0910343
330 0.137224
335 0.121667
340 0.0814033
345 0.0807269
350 0.0880322
355 0.15484
360 0.197151
365 0.122387
370 0.111607
375 0.140371
380 0.259807
385 0.216565
390 0.272446
395 0.130244
400 0.139422
405 0.118163
410 0.198406
415 0.129602
420 0.0771969
425 0.0582138
430 0.139059
435 0.160668
440 0.199975
445 0.155836
450 0.284456
455 0.148373
460 0.219043
465 0.17319
470 0.14483
475 0.11201
480 0.156871
485 0.218515
490 0.149378
495 0.183313
500 0.231605
505 0.255814
510 0.146162
515 0.177567
520 0.200905
525 0.168396
530 0.172339
535 0.260191
540 0.370489
545 0.328756
550 0.535839
555 0.705913
560 21.0969
565 511.036
570 1030.26
575 319.82
580 38.2448
585 4.94141
590 1.03807
595 0.410265
600 0.122982
Ex : 578
200 0.144559
205 0.176696
210 0.0983104
215 0.189478
220 0.105353
225 0.195482
230 0.140618
235 0.0717617
240 0.0791323
245 0.0791689
250 0.171906
255 0.12116
260 0.190009
265 0.191271
270 0.110634
275 0.157589
280 0.120599
285 0.127726
290 0.232038
295 0.150578
300 0.108259
305 0.0980062
310 0.157959
315 0.117286
320 0.0994791
325 0.117194
330 0.0907447
335 0.120321
340 0.122542
345 0.0554673
350 0.162385
355 0.169144
360 0.159758
365 0.134336
370 0.128791
375 0.133001
380 0.158367
385 0.134826
390 0.105212
395 0.141384
400 0.147865
405 0.0851417
410 0.163975
415 0.153123
420 0.144941
425 0.196982
430 0.126974
435 0.176689
440 0.155628
445 0.125884
450 0.142849
455 0.200392
460 0.18425
465 0.20181
470 0.137103
475 0.0701821
480 0.192099
485 0.148294
490 0.188211
495 0.142766
500 0.251877
505 0.154242
510 0.169887
515 0.233804
520 0.133773
525 0.208312
530 0.25583
535 0.22792
540 0.380157
545 0.257319
550 0.25003
555 0.408983
560 0.685755
565 18.0098
570 460.148
575 908.525
580 279.383
585 33.1368
590 4.2662
595 0.709359
600 1.85313
Ex : 583
200 0.0774648
205 0.078113
210 0.182602
215 0.242629
220 0.200247
225 0.129992
230 0.20254
235 0.143955
240 0.138164
245 0.122276
250 0.157485
255 0.219399
260 0.0899819
265 0.124304
270 0.111951
275 0.206821
280 0.135472
285 0.118546
290 0.121983
295 0.136106
300 0.123445
305 0.09423
310 0.0986085
315 0.0840497
320 0.150869
325 0.179587
330 0.171181
335 0.115793
340 0.145212
345 0.166377
350 0.159957
355 0.115005
360 0.0871247
365 0.0903701
370 0.117165
375 0.067268
380 0.0907364
385 0.115166
390 0.115527
395 0.118736
400 0.18572
405 0.12025
410 0.0934723
415 0.13345
420 0.157248
425 0.0847296
430 0.0703286
435 0.0811951
440 0.152185
445 0.170607
450 0.0907557
455 0.182851
460 0.129461
465 0.168394
470 0.114118
475 0.196308
480 0.287376
485 0.156467
490 0.108314
495 0.219637
500 0.135356
505 0.0647113
510 0.102721
515 0.199508
520 0.171303
525 0.230316
530 0.200234
535 0.195901
540 0.25285
545 0.24387
550 0.183825
555 0.301166
560 0.549294
565 0.8566
570 15.5241
575 413.913
580 794.244
585 230.894
590 27.2785
595 3.46877
600 0.771841
Ex : 588
200 0.0571379
205 0.15548
210 0.0898025
215 0.131325
220 0.093383
225 0.0891765
230 0.203193
235 0.192851
240 0.181626
245 0.103595
250 0.0563379
255 0.21203
260 0.106328
265 0.105417
270 0.0765202
275 0.106489
280 0.0425596
285 0.128723
290 0.0987405
295 0.0793821
300 0.233518
305 0.106142
310 0.0775692
315 0.100771
320 0.10343
325 0.0985711
330 0.133575
335 0.150355
340 0.124824
345 0.109422
350 0.142676
355 0.104949
360 0.198569
365 0.147673
370 0.179311
375 0.0949788
380 0.152662
385 0.108565
390 0.109259
395 0.19521
400 0.181396
405 0.175121
410 0.134356
415 0.198254
420 0.162147
425 0.170545
430 0.204228
435 0.121862
440 0.0597295
445 0.0756329
450 0.112793
455 0.126237
460 0.155296
465 0.12731
470 0.135136
475 0.134434
480 0.092023
485 0.18402
490 0.0943051
495 0.174792
500 0.0983212
505 0.152622
510 0.242475
515 0.171368
520 0.216041
525 0.228101
530 0.141698
535 0.239453
540 0.138564
545 0.237435
550 0.197586
555 0.233302
560 0.245638
565 0.426407
570 0.558767
575 13.8322
580 343.735
585 661.122
590 199.398
595 23.6698
600 3.16874
Ex : 593
200 0.0939681
205 0.16391
210 0.175022
215 0.0441371
220 0.0626645
225 0.164343
230 0.123534
235 0.0971897
240 0.229872
245 0.143396
250 0.115967
255 0.0747028
260 0.158598
265 0.113627
270 0.200903
275 0.094803
280 0.109823
285 0.163015
290 0.0580874
295 0.041645
300 0.0966823
305 0.106838
310 0.0727529
315 0.0867341
320 0.0825307
325 0.110521
330 0.168382
335 0.140022
340 0.147647
345 0.105438
350 0.122032
355 0.0919586
360 0.0882611
365 0.0809789
370 0.178023
375 0.175665
380 0.207812
385 0.100012
390 0.117434
395 0.182241
400 0.203451
405 0.169887
410 0.196703
415 0.137457
420 0.124101
425 0.115214
430 0.105184
435 0.109218
440 0.103722
445 0.138173
450 0.099367
455 0.156262
460 0.170247
465 0.179281
470 0.127771
475 0.0890608
480 0.151169
485 0.187552
490 0.176797
495 0.157475
500 0.117402
505 0.154073
510 0.0952333
515 0.139331
520 0.17732
525 0.14041
530 0.182799
535 0.267642
540 0.234419
545 0.12976
550 0.160673
555 0.154041
560 0.280138
565 0.291711
570 0.296914
575 0.602949
580 11.7659
585 310.825
590 570.157
595 170.641
600 24.471
Ex : 598
200 0.210179
205 0.141348
210 0.089739
215 0.0906535
220 0.101911
225 0.127527
230 0.102741
235 0.0641087
240 0.0966731
245 0.0460764
250 0.121494
255 0.0639594
260 0.146092
265 0.100681
270 0.138347
275 0.151769
280 0.146832
285 0.149084
290 0.167075
295 0.160704
300 0.143488
305 0.141412
310 0.131772
315 0.118301
320 0.142477
325 0.0850464
330 0.153391
335 0.161843
340 0.132526
345 0.0645952
350 0.0864821
355 0.102629
360 0.123002
365 0.173483
370 0.110129
375 0.249597
380 0.158034
385 0.0589219
390 0.131674
395 0.17493
400 0.113092
405 0.0842666
410 0.0711734
415 0.15399
420 0.383019
425 0.175871
430 0.134847
435 0.0603318
440 0.135893
445 0.221295
450 0.208529
455 0.109218
460 0.290179
465 0.235076
470 0.126026
475 0.211051
480 0.158793
485 0.126078
490 0.195209
495 0.205122
500 0.11333
505 0.175786
510 0.177953
515 0.169221
520 0.10553
525 0.11984
530 0.178165
535 0.164446
540 0.0967683
545 0.201925
550 0.127109
555 0.234921
560 0.191766
565 0.18201
570 0.26759
575 0.326695
580 0.34679
585 12.1996
590 277.418
595 503.58
600 333.926
Ex : 603
200 0.129688
205 0.170607
210 0.180911
215 0.0889728
220 0.239475
225 0.0795363
230 0.0708005
235 0.124921
240 0.083362
245 0.085016
250 0.147485
255 0.196572
260 0.115617
265 0.081882
270 0.180407
275 0.232276
280 0.0883549
285 0.170974
290 0.172801
295 0.169761
300 0.101678
305 0.14563
310 0.144636
315 0.116256
320 0.185479
325 0.296838
330 0.246596
335 0.122417
340 0.0540367
345 0.169226
350 0.125468
355 0.0998801
360 0.114409
365 0.176203
370 0.122157
375 0.214233
380 0.137931
385 0.105163
390 0.171147
395 0.223605
400 0.159692
405 0.204157
410 0.125853
415 0.213068
420 0.292087
425 0.239087
430 0.204377
435 0.112755
440 0.100536
445 0.128883
450 0.106924
455 0.152685
460 0.12232
465 0.103437
470 0.12362
475 0.148772
480 0.153675
485 0.188318
490 0.201443
495 0.144934
500 0.186924
505 0.190843
510 0.275928
515 0.186481
520 0.347026
525 0.251812
530 0.206817
535 0.255674
540 0.146187
545 0.174054
550 0.180742
555 0.194553
560 0.222368
565 0.200887
570 0.169532
575 0.436174
580 0.307809
585 0.337754
590 10.2762
595 238.517
600 472.774
