File format V 1.0
ven. 6. janv. 11:53:37 2017
Operator : 
Comments : 

=============================================
SpectroFluorometer parameters
Mode : 3D measurement
Data : Fluorescence
Phospho. : Ordinary
Spectrum : Fluorescence

Scan speed : 2400 nm/mn
Response : 100 ms
PM Voltage : 700 V
Shutter : On

Lambda Ex. Start : 203
Lambda Ex. End : 603
Lambda Ex. Step : 5
Ex. Slit : 5 nm

Lambda Em. Start : 200
Lambda Em. End : 600
Lambda Em. Step : 5
Em. Slit : 5 nm

Repetition : 1
Decal lambda em : 10
=============================================
DATA
Ex : 203
200 6.88325
205 9.19519
210 10.0146
215 9.02776
220 8.312
225 10.4397
230 7.45638
235 8.76974
240 7.26499
245 8.72798
250 5.91896
255 9.70741
260 8.25792
265 10.9804
270 7.07752
275 11.5691
280 9.81261
285 9.27342
290 7.87611
295 10.6082
300 6.68128
305 9.00565
310 7.07237
315 6.70374
320 8.11209
325 11.6987
330 9.76122
335 8.62762
340 8.0626
345 9.878
350 7.16134
355 9.53075
360 6.48444
365 10.0498
370 9.13224
375 9.84699
380 11.5032
385 8.29013
390 8.94516
395 9.14301
400 7.64175
405 13.0671
410 9.96856
415 7.67014
420 9.59104
425 9.95813
430 9.94013
435 10.9117
440 7.6347
445 12.6062
450 10.0835
455 7.87819
460 10.8641
465 9.47377
470 8.43266
475 5.35881
480 11.8143
485 9.04063
490 8.32195
495 5.56696
500 10.8771
505 9.96134
510 11.9655
515 8.94122
520 8.34371
525 9.62252
530 7.27144
535 8.87289
540 9.16364
545 10.1652
550 9.35849
555 8.30229
560 10.0261
565 11.6026
570 10.9677
575 9.69944
580 11.361
585 11.1461
590 7.08084
595 7.61601
600 0.866673
Ex : 208
200 7.19307
205 10.4504
210 8.4215
215 8.88775
220 12.1038
225 8.69078
230 10.804
235 8.28018
240 7.20357
245 10.7679
250 10.6537
255 7.09392
260 6.2097
265 10.031
270 8.73689
275 7.68947
280 7.34476
285 8.88428
290 9.72099
295 5.59631
300 7.88233
305 7.25913
310 7.56029
315 7.31888
320 8.46307
325 6.73475
330 8.05395
335 8.54771
340 9.40255
345 8.89968
350 10.3774
355 8.17394
360 11.676
365 8.08372
370 7.00717
375 10.6106
380 6.45305
385 10.6429
390 7.15146
395 6.84356
400 7.23203
405 8.94116
410 8.60914
415 8.29602
420 7.58838
425 12.638
430 9.45253
435 10.2465
440 9.4005
445 9.83731
450 12.7899
455 7.81498
460 8.81357
465 7.83677
470 8.50761
475 8.37696
480 11.4528
485 7.45217
490 7.20058
495 9.84421
500 8.46834
505 7.39088
510 8.16011
515 11.9454
520 10.69
525 9.82532
530 8.54532
535 8.99604
540 7.95383
545 7.75012
550 7.01258
555 7.37807
560 11.7046
565 10.6794
570 7.11027
575 10.0553
580 6.48432
585 8.27292
590 8.59662
595 7.60707
600 0.865655
Ex : 213
200 12.5381
205 8.14421
210 7.73656
215 7.21109
220 7.14063
225 10.03
230 10.066
235 5.88532
240 6.38775
245 7.16875
250 10.1299
255 9.91428
260 12.2565
265 8.26049
270 8.07054
275 7.28912
280 10.0317
285 7.09788
290 8.76527
295 7.32945
300 6.75616
305 9.73084
310 6.9011
315 7.35837
320 11.641
325 9.37439
330 11.2535
335 9.79946
340 8.17679
345 9.22282
350 7.66973
355 10.8631
360 8.02761
365 7.75241
370 7.45755
375 9.57051
380 8.15623
385 11.3938
390 11.6505
395 8.41541
400 12.4367
405 7.78181
410 9.46127
415 7.97906
420 10.1156
425 10.7897
430 11.1775
435 10.7548
440 7.76469
445 12.4914
450 9.43276
455 10.7773
460 9.13408
465 14.2205
470 6.55055
475 8.13603
480 8.23703
485 9.07354
490 8.60844
495 6.44089
500 9.32827
505 9.33858
510 6.94843
515 6.69029
520 8.73716
525 11.3425
530 13.3761
535 10.5614
540 8.39373
545 9.70532
550 6.79162
555 8.69277
560 8.21758
565 8.48524
570 8.77582
575 9.95564
580 8.89606
585 10.7929
590 10.184
595 10.294
600 1.17141
Ex : 218
200 10.4271
205 7.31578
210 7.42568
215 5.56852
220 7.94705
225 8.73462
230 9.60732
235 8.7665
240 9.51912
245 8.20313
250 9.52599
255 5.48885
260 8.39662
265 10.6615
270 8.15517
275 10.3686
280 10.4348
285 8.56826
290 7.00212
295 5.7467
300 5.19985
305 9.62486
310 8.11293
315 6.67241
320 8.40609
325 7.4986
330 8.42973
335 7.978
340 10.2478
345 5.88803
350 7.77296
355 9.44662
360 7.51094
365 7.50356
370 8.81668
375 7.5368
380 8.45016
385 8.10122
390 5.63916
395 10.7679
400 8.18777
405 10.9048
410 11.8491
415 7.70612
420 10.2801
425 7.22342
430 12.7492
435 7.86117
440 9.54164
445 9.15469
450 7.45069
455 7.07661
460 13.4422
465 12.1939
470 7.23411
475 8.84731
480 9.24678
485 8.89174
490 6.73373
495 6.67852
500 6.50086
505 8.94401
510 7.23336
515 7.67729
520 7.45687
525 9.41244
530 6.21933
535 11.1621
540 8.3773
545 8.83888
550 5.87995
555 6.80894
560 5.96061
565 8.50643
570 8.95726
575 7.08607
580 10.0058
585 9.82774
590 7.84602
595 5.5858
600 0.635643
Ex : 223
200 9.1401
205 8.40274
210 8.11968
215 4.59778
220 9.282
225 8.26711
230 9.07773
235 9.60509
240 7.4745
245 7.6
250 10.0322
255 10.3556
260 7.26644
265 8.28816
270 7.03425
275 8.36924
280 6.84024
285 9.30121
290 8.33185
295 8.00301
300 7.71874
305 6.45506
310 7.85732
315 7.92135
320 6.71287
325 7.78346
330 7.96671
335 9.99853
340 7.08291
345 8.57163
350 7.38465
355 8.07976
360 6.35102
365 8.33563
370 8.81788
375 7.94959
380 10.6855
385 7.13547
390 6.26193
395 10.5607
400 11.3286
405 8.75192
410 9.08827
415 9.6183
420 6.8896
425 7.42202
430 8.87181
435 6.75253
440 9.56826
445 11.009
450 10.3875
455 10.8024
460 7.90187
465 13.3018
470 9.15625
475 8.50083
480 7.50102
485 7.086
490 8.05409
495 10.1304
500 8.33277
505 8.0978
510 11.2533
515 7.55027
520 7.66542
525 7.16434
530 9.05481
535 12.1713
540 9.45612
545 10.5669
550 7.68079
555 6.63641
560 7.28947
565 7.74612
570 8.96703
575 8.72997
580 10.9972
585 6.34386
590 5.7052
595 5.4025
600 0.614784
Ex : 228
200 10.3364
205 6.86234
210 6.71445
215 10.1387
220 5.58901
225 8.35747
230 5.39388
235 4.8253
240 5.10443
245 7.3737
250 7.09466
255 7.32641
260 8.31629
265 6.00269
270 4.81996
275 10.4673
280 7.55605
285 10.7469
290 7.99637
295 7.39517
300 5.08458
305 7.34046
310 8.02645
315 8.86589
320 7.24926
325 9.68267
330 6.61342
335 10.0249
340 9.00585
345 7.41932
350 7.17542
355 7.94275
360 7.46256
365 9.27659
370 7.42019
375 7.87332
380 8.53894
385 7.81319
390 8.58924
395 7.52959
400 6.00067
405 6.60448
410 8.76382
415 10.2105
420 11.6191
425 7.65104
430 9.58697
435 6.63675
440 7.48713
445 10.6668
450 7.80885
455 10.3259
460 9.78153
465 8.29753
470 7.73068
475 9.12181
480 5.51673
485 6.49322
490 4.8381
495 11.4739
500 8.30627
505 8.90082
510 6.72722
515 7.64838
520 7.92357
525 7.22299
530 7.78252
535 7.38178
540 6.88232
545 8.90065
550 8.22909
555 6.82038
560 8.93306
565 9.12653
570 7.57081
575 7.20931
580 10.3772
585 8.17461
590 7.05842
595 8.46535
600 14.8472
Ex : 233
200 9.97863
205 6.75336
210 6.62448
215 7.36544
220 8.44224
225 10.2231
230 7.16227
235 7.21833
240 7.35766
245 7.06732
250 6.90296
255 6.29969
260 9.60674
265 6.11747
270 5.06646
275 7.50606
280 7.02792
285 7.18955
290 8.13321
295 7.79845
300 6.26051
305 6.22828
310 7.50433
315 10.6817
320 7.16414
325 6.24569
330 7.34185
335 10.6456
340 7.61051
345 9.34456
350 10.1375
355 7.8596
360 6.08938
365 7.43287
370 7.21753
375 8.45572
380 8.84794
385 7.37142
390 6.97781
395 8.84866
400 6.66818
405 5.55408
410 8.83134
415 9.26106
420 6.16393
425 6.87666
430 7.38555
435 6.95059
440 8.50697
445 9.562
450 11.5684
455 6.82303
460 8.74836
465 8.16189
470 5.58525
475 9.09513
480 6.88544
485 10.1293
490 5.35863
495 8.02512
500 7.09441
505 5.8279
510 6.57618
515 6.90864
520 10.9909
525 6.84489
530 8.88136
535 6.04744
540 5.69004
545 6.4896
550 10.3668
555 5.55815
560 7.13639
565 9.61708
570 8.26528
575 6.76472
580 8.79487
585 8.15131
590 7.62806
595 7.57508
600 4.93855
Ex : 238
200 6.19173
205 7.36497
210 6.64882
215 6.51315
220 4.8134
225 5.75601
230 8.31459
235 9.63167
240 6.58837
245 5.90649
250 5.54087
255 5.15964
260 6.51319
265 6.56285
270 7.01628
275 5.88169
280 7.34749
285 5.32622
290 4.31205
295 7.42435
300 5.66026
305 7.2992
310 5.78039
315 7.41088
320 5.73561
325 4.48723
330 6.04577
335 9.36583
340 6.71401
345 6.73612
350 8.70275
355 8.07655
360 9.79524
365 6.66151
370 6.1068
375 6.67855
380 6.71374
385 6.58556
390 6.17962
395 7.3107
400 6.33977
405 8.62082
410 7.9953
415 6.7403
420 8.58844
425 8.0894
430 7.97788
435 6.88883
440 8.4939
445 7.10318
450 5.78131
455 8.21584
460 6.65747
465 7.07491
470 10.4408
475 6.60643
480 5.79274
485 8.44588
490 5.81684
495 7.18367
500 6.89579
505 6.60936
510 7.0384
515 8.07606
520 5.68491
525 5.48266
530 6.28225
535 7.23962
540 10.6787
545 7.0938
550 8.92078
555 7.24638
560 5.46311
565 4.60422
570 6.25779
575 6.77839
580 8.04471
585 6.7651
590 7.61873
595 6.80933
600 0.774876
Ex : 243
200 4.4223
205 6.64404
210 6.32869
215 7.81914
220 6.28901
225 6.62266
230 5.51776
235 5.36417
240 6.31453
245 5.15895
250 5.67039
255 6.28556
260 5.48904
265 5.80693
270 6.06032
275 6.89631
280 5.04101
285 4.77362
290 6.70153
295 2.95042
300 3.99134
305 5.84422
310 5.59946
315 7.33576
320 5.40358
325 7.02666
330 5.60544
335 8.6385
340 6.35831
345 6.02847
350 6.86222
355 5.06421
360 6.5455
365 8.56042
370 8.39492
375 7.15874
380 7.57194
385 7.56357
390 6.63502
395 7.12842
400 6.11344
405 7.31653
410 7.19384
415 8.72808
420 6.27636
425 7.934
430 7.15089
435 10.1902
440 6.11285
445 5.62569
450 6.92727
455 5.79972
460 9.74045
465 7.35452
470 4.62482
475 8.22538
480 6.53245
485 5.80608
490 5.65455
495 5.69799
500 6.99743
505 6.03916
510 6.2786
515 7.19294
520 6.0273
525 6.48677
530 3.98136
535 7.47337
540 6.91345
545 8.09005
550 8.04782
555 7.79459
560 6.25504
565 6.77988
570 5.8712
575 6.47597
580 6.78583
585 8.19943
590 7.42974
595 7.69286
600 5.74954
Ex : 248
200 5.27976
205 5.24399
210 6.75139
215 3.90367
220 5.16527
225 5.96604
230 5.48279
235 5.37354
240 3.73767
245 4.86954
250 4.65742
255 5.00058
260 3.93499
265 5.96285
270 5.695
275 5.51698
280 6.41404
285 4.75343
290 6.50639
295 5.9108
300 6.19883
305 4.87691
310 5.43178
315 6.21418
320 5.89171
325 5.71041
330 4.37733
335 5.18889
340 5.00794
345 3.7349
350 4.86938
355 6.66386
360 4.61623
365 4.29168
370 6.04356
375 6.86406
380 3.8668
385 5.22553
390 4.38854
395 8.74565
400 5.92273
405 6.83688
410 5.90725
415 5.39337
420 4.70435
425 4.66909
430 6.38892
435 5.11728
440 4.75895
445 6.2577
450 7.35464
455 6.67972
460 5.60436
465 5.12483
470 8.81368
475 5.97731
480 8.24962
485 8.00908
490 8.02006
495 6.09009
500 4.60062
505 5.15064
510 5.93547
515 4.86476
520 4.61315
525 6.33242
530 5.71557
535 4.24432
540 4.79352
545 5.75829
550 5.74706
555 4.24744
560 3.36822
565 6.48913
570 4.10387
575 5.82217
580 5.86394
585 5.45391
590 2.93551
595 7.21099
600 35.3825
Ex : 253
200 3.59548
205 3.76211
210 2.69515
215 2.49416
220 3.70237
225 4.41871
230 3.41761
235 5.90332
240 6.82748
245 4.67128
250 6.432
255 3.42709
260 4.85367
265 6.53821
270 3.87788
275 4.00871
280 4.71366
285 4.55025
290 3.98225
295 4.45027
300 3.56785
305 5.1369
310 4.70723
315 3.80745
320 3.95089
325 4.84128
330 4.5785
335 4.75011
340 4.07861
345 5.16281
350 5.75287
355 4.83636
360 5.63126
365 5.73649
370 3.98058
375 5.65528
380 5.46257
385 4.8913
390 6.57278
395 5.30274
400 3.93441
405 3.78402
410 3.61505
415 4.7744
420 5.20532
425 5.59518
430 4.93679
435 5.15599
440 5.96211
445 5.79274
450 4.75261
455 6.32948
460 4.21952
465 4.80666
470 5.20126
475 4.65422
480 4.00752
485 6.40218
490 5.33182
495 4.37873
500 4.71787
505 5.8652
510 3.95775
515 4.44168
520 3.39544
525 4.07003
530 5.6022
535 4.42632
540 3.72095
545 4.56895
550 4.2566
555 5.03236
560 4.78158
565 5.25439
570 6.35598
575 5.01955
580 4.2294
585 4.0601
590 4.06068
595 4.49112
600 15.7538
Ex : 258
200 3.22951
205 3.32568
210 3.41248
215 3.03799
220 3.97338
225 4.05739
230 3.20822
235 2.52643
240 3.24211
245 3.8627
250 2.10276
255 5.02298
260 5.69536
265 3.0434
270 3.45452
275 4.05609
280 4.50545
285 3.13723
290 4.00543
295 3.53069
300 3.73922
305 4.11349
310 3.60133
315 2.82823
320 2.90022
325 2.39601
330 4.03414
335 3.65332
340 3.27928
345 5.41083
350 4.34599
355 4.35406
360 3.63812
365 4.37822
370 3.55191
375 3.28218
380 4.1728
385 3.71134
390 7.24611
395 4.03867
400 5.20723
405 3.31524
410 4.13903
415 4.03605
420 4.41646
425 5.75067
430 4.89366
435 3.13979
440 3.99423
445 3.88447
450 3.57613
455 3.59622
460 3.38473
465 4.3036
470 4.41489
475 4.8692
480 4.3763
485 3.49914
490 3.65702
495 3.73579
500 2.82556
505 5.25116
510 4.66336
515 4.77392
520 3.32717
525 3.93248
530 3.13346
535 3.03919
540 3.23777
545 3.66187
550 2.72729
555 4.04365
560 3.20956
565 3.22017
570 3.87183
575 3.9783
580 3.63052
585 2.97268
590 3.42153
595 3.98641
600 12.5382
Ex : 263
200 2.78072
205 3.62963
210 3.96676
215 2.43149
220 1.57279
225 1.9325
230 3.77365
235 3.8051
240 3.20765
245 3.7158
250 2.8133
255 3.81049
260 2.90274
265 3.26825
270 3.41178
275 3.11163
280 3.13269
285 3.39059
290 2.86217
295 2.65615
300 3.22528
305 2.73456
310 3.326
315 3.20834
320 2.66091
325 2.47934
330 2.48571
335 3.60396
340 3.64164
345 2.6448
350 2.76105
355 2.8657
360 3.36287
365 3.43227
370 2.87339
375 2.93329
380 1.81987
385 2.7025
390 3.06042
395 2.8784
400 2.95014
405 3.32282
410 2.41236
415 3.50324
420 3.21289
425 4.03661
430 4.22132
435 2.89346
440 3.9417
445 3.13022
450 3.35358
455 3.53419
460 3.38621
465 3.35427
470 2.91556
475 3.87222
480 3.8891
485 3.02153
490 2.58491
495 3.25845
500 3.11285
505 2.86609
510 3.46683
515 3.59118
520 4.26079
525 4.70296
530 2.57066
535 3.39062
540 3.00058
545 2.61336
550 2.75519
555 2.16243
560 3.1277
565 3.06224
570 1.94884
575 3.3927
580 2.12767
585 2.35234
590 2.72586
595 2.0109
600 0.228833
Ex : 268
200 1.9987
205 2.53923
210 2.18037
215 1.95236
220 1.31447
225 1.8488
230 2.52227
235 2.03117
240 2.78041
245 1.95794
250 1.63366
255 1.70281
260 2.10508
265 2.15268
270 2.65539
275 2.29894
280 1.80057
285 3.36127
290 2.09202
295 1.61081
300 3.19918
305 1.92541
310 3.04872
315 2.9119
320 2.13239
325 2.44786
330 1.74028
335 3.53566
340 3.01516
345 2.40939
350 2.78604
355 2.64275
360 2.42031
365 2.27417
370 2.6647
375 2.74925
380 3.112
385 3.12983
390 2.20433
395 1.98457
400 2.66346
405 3.01888
410 2.25888
415 2.3305
420 2.53334
425 1.97482
430 3.54369
435 3.20919
440 3.51627
445 2.34566
450 2.54053
455 3.36523
460 2.93293
465 2.88159
470 2.48238
475 2.07872
480 2.73021
485 2.36823
490 2.01747
495 3.18436
500 2.85152
505 2.74918
510 2.2618
515 3.0511
520 2.75636
525 2.88876
530 3.12825
535 3.00773
540 2.7168
545 2.36375
550 2.69014
555 2.79494
560 2.33477
565 3.00735
570 2.17801
575 1.62911
580 1.99994
585 2.74151
590 1.77629
595 1.83028
600 0.208279
Ex : 273
200 1.94142
205 1.35438
210 1.11364
215 2.46317
220 1.90501
225 1.85236
230 1.61582
235 1.57081
240 1.7843
245 1.42298
250 1.62997
255 1.71662
260 1.39389
265 2.06758
270 2.14177
275 2.25673
280 2.45253
285 1.92355
290 1.73837
295 1.62789
300 2.31232
305 2.42308
310 1.8137
315 1.81292
320 1.65008
325 1.68636
330 1.51416
335 1.64164
340 1.56977
345 1.58934
350 1.2115
355 1.54032
360 2.1842
365 2.3068
370 2.48778
375 1.88969
380 2.50332
385 1.94754
390 2.55482
395 2.41648
400 3.05084
405 2.21579
410 2.12467
415 3.13365
420 2.93107
425 2.42972
430 2.53884
435 1.68755
440 1.71905
445 3.009
450 2.70749
455 2.83165
460 2.33298
465 2.1545
470 1.90901
475 1.4224
480 2.013
485 2.43395
490 2.47121
495 2.45728
500 2.31641
505 2.3002
510 1.90716
515 1.75447
520 2.127
525 2.10651
530 1.63541
535 2.18053
540 3.14584
545 2.54168
550 2.00387
555 2.10678
560 2.00097
565 1.54163
570 1.84551
575 1.40482
580 1.61955
585 1.63369
590 1.78987
595 1.91048
600 0.217405
Ex : 278
200 1.34652
205 1.27341
210 1.37656
215 1.4295
220 1.29797
225 1.50094
230 1.55942
235 1.33942
240 1.85306
245 1.10793
250 1.15716
255 1.45434
260 1.85748
265 1.51037
270 1.64256
275 1.87117
280 2.34639
285 1.45693
290 0.971152
295 1.60545
300 1.22439
305 1.38779
310 1.50192
315 1.61262
320 1.52234
325 1.70402
330 1.49234
335 1.8398
340 1.77938
345 2.31498
350 1.97781
355 2.24103
360 2.28808
365 1.77424
370 1.76258
375 1.7308
380 1.70191
385 2.42761
390 2.0288
395 1.89288
400 1.91402
405 2.02126
410 2.15051
415 2.28535
420 1.96322
425 1.96815
430 1.73251
435 1.63453
440 1.87778
445 1.94812
450 2.37619
455 2.27862
460 1.97149
465 1.86561
470 1.70469
475 1.88424
480 1.4654
485 1.89354
490 2.0077
495 1.98479
500 1.57671
505 1.31533
510 1.47016
515 1.70742
520 1.88712
525 1.62026
530 1.58061
535 1.3492
540 1.42985
545 1.91774
550 1.99522
555 1.64803
560 1.24822
565 1.34811
570 1.51307
575 1.399
580 1.53535
585 2.41019
590 1.71559
595 1.19469
600 2.92116
Ex : 283
200 0.941803
205 1.12351
210 0.999371
215 1.77544
220 1.60924
225 1.56055
230 1.17913
235 1.48724
240 1.16065
245 1.2075
250 0.851804
255 1.1948
260 1.24979
265 0.868107
270 1.09743
275 1.55863
280 1.34817
285 1.31088
290 1.01113
295 1.8141
300 1.5383
305 0.761223
310 1.4873
315 1.27811
320 0.829777
325 1.1885
330 1.71453
335 1.22996
340 1.46703
345 1.54904
350 1.52986
355 2.0529
360 1.11724
365 1.48633
370 1.63042
375 1.75199
380 1.4044
385 1.54018
390 1.79173
395 1.73109
400 1.78862
405 1.74555
410 1.57718
415 1.96911
420 1.9545
425 1.95861
430 1.89754
435 1.62965
440 1.75408
445 2.04215
450 1.80723
455 1.67653
460 1.99698
465 1.81085
470 1.44867
475 1.6847
480 1.51235
485 1.29182
490 1.5634
495 1.9976
500 1.83831
505 1.6761
510 1.92893
515 1.53177
520 1.29376
525 1.37408
530 1.3749
535 1.265
540 1.61438
545 1.1495
550 1.55443
555 1.43481
560 1.72459
565 1.98787
570 1.58656
575 1.25402
580 1.50799
585 1.36528
590 1.34335
595 1.15176
600 8.51202
Ex : 288
200 1.14058
205 1.06247
210 1.52859
215 0.987927
220 1.03624
225 1.04976
230 0.922431
235 1.11913
240 0.98287
245 0.785298
250 0.938599
255 1.089
260 1.21342
265 1.13354
270 1.69677
275 1.40193
280 1.32673
285 1.39596
290 0.941264
295 1.14659
300 0.861542
305 1.1192
310 1.23915
315 1.17146
320 1.09115
325 1.06655
330 1.22443
335 1.20827
340 1.10019
345 1.41235
350 1.28248
355 1.67303
360 1.0162
365 1.24935
370 1.19723
375 1.57481
380 1.26474
385 1.67662
390 1.70872
395 1.70398
400 1.61924
405 1.64866
410 2.09875
415 1.55761
420 1.48761
425 1.55971
430 1.23039
435 1.32884
440 1.61371
445 1.31897
450 1.19122
455 1.36684
460 1.31137
465 1.4772
470 1.11956
475 1.59754
480 1.12665
485 1.21669
490 1.0346
495 1.22708
500 1.23039
505 1.54974
510 1.17209
515 1.21304
520 1.22671
525 0.899274
530 0.861556
535 0.905272
540 1.10871
545 1.15619
550 1.20749
555 1.15702
560 0.914539
565 1.50112
570 2.03483
575 1.77858
580 1.41787
585 1.19267
590 1.16132
595 0.909757
600 0.103527
Ex : 293
200 0.841334
205 0.867932
210 0.946343
215 1.50504
220 0.974898
225 0.777401
230 1.11369
235 0.932742
240 1.32095
245 1.23715
250 0.951208
255 0.581812
260 0.923824
265 0.798542
270 0.952746
275 0.796333
280 0.743896
285 0.973991
290 1.19943
295 0.936236
300 0.824624
305 0.806567
310 0.953259
315 1.04984
320 1.08171
325 0.843868
330 0.735048
335 0.857208
340 1.16659
345 1.15519
350 1.10655
355 0.976174
360 1.12421
365 1.1133
370 1.283
375 1.16301
380 1.614
385 0.990162
390 1.40207
395 1.20525
400 1.36664
405 1.19472
410 1.47197
415 1.48105
420 1.49312
425 1.25034
430 1.72145
435 1.37989
440 1.81698
445 1.25508
450 1.19135
455 1.03702
460 1.42054
465 1.51225
470 1.25895
475 1.13183
480 1.58581
485 1.27653
490 1.36531
495 1.07378
500 1.1963
505 1.27225
510 1.09313
515 0.942428
520 0.99659
525 0.994653
530 0.930697
535 1.03283
540 1.00644
545 1.01604
550 0.818458
555 1.34215
560 1.06446
565 0.90384
570 1.15084
575 1.59401
580 1.92397
585 1.60237
590 0.99716
595 0.930021
600 2.14953
Ex : 298
200 0.867163
205 0.828587
210 0.823873
215 0.676049
220 0.627446
225 0.860737
230 0.79468
235 0.850597
240 0.664934
245 0.716291
250 0.848231
255 0.755307
260 0.769886
265 0.728543
270 0.781174
275 1.16592
280 0.810614
285 0.72681
290 1.01012
295 1.2594
300 1.21693
305 0.787714
310 0.678745
315 0.68946
320 0.719774
325 0.865174
330 1.24433
335 0.944613
340 1.12317
345 0.874253
350 0.827481
355 1.1441
360 1.45989
365 1.20075
370 1.18687
375 1.12382
380 1.22429
385 1.00915
390 1.32251
395 1.31925
400 1.1253
405 1.20814
410 1.46757
415 1.36946
420 1.38989
425 1.29904
430 1.90921
435 1.18967
440 1.2754
445 1.58438
450 1.40976
455 1.1315
460 1.25912
465 1.04545
470 1.18835
475 1.02497
480 1.08579
485 1.00239
490 0.839574
495 1.19196
500 0.901992
505 0.770133
510 0.927917
515 0.751134
520 0.711654
525 0.696012
530 0.833327
535 1.09813
540 0.67845
545 0.868402
550 0.727967
555 0.761777
560 0.808721
565 0.826324
570 0.94692
575 0.868316
580 0.906311
585 1.3131
590 1.65039
595 1.16884
600 1.50412
Ex : 303
200 0.835429
205 0.569132
210 0.753397
215 0.765384
220 0.632926
225 0.635235
230 0.740815
235 0.572425
240 0.607494
245 0.49895
250 0.826564
255 0.593124
260 0.79937
265 0.666981
270 0.921155
275 0.740705
280 0.793657
285 0.442818
290 1.04631
295 0.755035
300 0.984343
305 0.987303
310 0.536276
315 0.486798
320 0.573002
325 0.882925
330 0.797218
335 0.807463
340 0.974361
345 0.901974
350 0.741034
355 0.923853
360 1.07419
365 0.99731
370 0.914632
375 0.904611
380 1.22298
385 1.28279
390 0.906601
395 1.04192
400 1.29803
405 1.30552
410 1.58746
415 1.06651
420 1.29406
425 1.17734
430 1.18587
435 1.29409
440 1.35177
445 1.11103
450 1.21858
455 1.17218
460 0.846925
465 1.16783
470 0.972188
475 0.981591
480 0.982701
485 0.744733
490 0.928214
495 0.705817
500 0.675992
505 0.621468
510 0.628226
515 0.685015
520 1.02529
525 0.959439
530 0.805828
535 0.573355
540 0.787525
545 0.725246
550 1.00664
555 0.889343
560 0.661718
565 0.773882
570 0.687356
575 0.812696
580 0.604936
585 0.472336
590 0.651367
595 1.16201
600 0.455768
Ex : 308
200 0.503674
205 0.613407
210 0.573083
215 0.563778
220 0.37966
225 0.523045
230 0.457525
235 0.58102
240 0.527676
245 0.457935
250 0.424371
255 0.643075
260 0.482335
265 0.663744
270 0.446598
275 0.459861
280 0.663978
285 0.643994
290 0.553547
295 0.593994
300 1.03587
305 1.05999
310 0.740877
315 0.481068
320 0.827439
325 0.772865
330 0.483753
335 0.976785
340 0.801057
345 0.744181
350 0.933976
355 0.967464
360 0.820128
365 1.03921
370 0.807561
375 1.11817
380 1.09662
385 1.20317
390 1.17296
395 1.13997
400 1.32254
405 1.24245
410 1.38118
415 1.10005
420 1.2996
425 0.980024
430 1.10075
435 1.24788
440 1.33036
445 1.24594
450 1.0647
455 1.21936
460 1.06697
465 1.19367
470 0.832459
475 0.865421
480 0.762686
485 0.848135
490 0.768117
495 0.960181
500 1.04111
505 0.839879
510 0.85658
515 0.637553
520 0.684076
525 0.539527
530 0.739751
535 0.711995
540 0.677793
545 0.579032
550 0.706027
555 0.642719
560 0.653096
565 0.594015
570 0.927823
575 0.506877
580 0.435647
585 0.464161
590 0.707321
595 1.00231
600 0.683762
Ex : 313
200 0.583432
205 0.381089
210 0.508813
215 0.555833
220 0.403978
225 0.446311
230 0.375306
235 0.431124
240 0.490326
245 0.578962
250 0.449171
255 0.401974
260 0.625436
265 0.376914
270 0.414167
275 0.603072
280 0.387483
285 0.424609
290 0.675236
295 0.376207
300 0.672614
305 1.29724
310 1.24006
315 0.58027
320 0.609911
325 0.608171
330 0.760957
335 0.852514
340 1.14511
345 0.941607
350 0.848359
355 1.05971
360 1.03413
365 1.20403
370 1.10464
375 1.12629
380 1.46323
385 1.52925
390 1.45599
395 1.74799
400 1.63414
405 1.59589
410 1.68329
415 2.09037
420 1.91628
425 1.66203
430 1.57394
435 1.4529
440 1.49987
445 1.7764
450 1.58351
455 1.45592
460 1.36357
465 1.26449
470 1.2156
475 1.07844
480 0.952193
485 1.37972
490 1.18886
495 1.07488
500 1.2344
505 1.02249
510 0.689673
515 0.863736
520 0.877043
525 0.996873
530 0.939383
535 0.645474
540 0.662425
545 0.618692
550 0.985281
555 0.638427
560 0.451251
565 0.594864
570 0.437946
575 0.471725
580 0.746192
585 0.653027
590 0.605455
595 0.574888
600 0.249145
Ex : 318
200 0.432727
205 0.637787
210 0.547271
215 0.552194
220 0.47404
225 0.623049
230 0.523939
235 0.334191
240 0.416069
245 0.453192
250 0.430672
255 0.477885
260 0.585452
265 0.325263
270 0.582298
275 0.50378
280 0.416738
285 0.41744
290 0.677879
295 0.50008
300 0.574207
305 0.450507
310 0.905736
315 1.67805
320 0.959233
325 0.861823
330 1.1731
335 1.22725
340 1.41846
345 2.36873
350 3.20054
355 3.62097
360 4.55502
365 5.19129
370 6.03008
375 7.13557
380 8.2966
385 8.73157
390 9.90273
395 10.5783
400 11.273
405 11.9709
410 11.7754
415 11.7867
420 10.9508
425 10.7986
430 10.0111
435 9.94283
440 9.77235
445 9.74912
450 9.3068
455 8.27524
460 7.73082
465 7.28136
470 7.0223
475 6.25073
480 5.94449
485 4.90516
490 4.50663
495 4.48278
500 3.72877
505 2.97926
510 2.93169
515 2.51468
520 2.30484
525 2.17402
530 1.7789
535 1.68579
540 1.75359
545 1.44575
550 1.21354
555 1.14789
560 1.0843
565 0.941874
570 0.798779
575 0.717421
580 0.707909
585 0.482894
590 0.485159
595 0.713632
600 1.39591
Ex : 323
200 0.609619
205 0.368707
210 0.382725
215 0.355253
220 0.420527
225 0.503604
230 0.474124
235 0.566602
240 0.287531
245 0.685975
250 0.511469
255 0.306681
260 0.357478
265 0.311447
270 0.420944
275 0.623655
280 0.484046
285 0.536729
290 0.488169
295 0.454823
300 0.416042
305 0.255099
310 0.677542
315 6.63559
320 28.7837
325 11.8593
330 3.67114
335 3.61614
340 4.53881
345 6.43733
350 9.74107
355 13.6017
360 15.7516
365 18.3621
370 22.1362
375 24.6684
380 27.7168
385 31.2494
390 34.7782
395 37.1755
400 38.8576
405 39.7476
410 38.8539
415 39.2247
420 38.1503
425 38.1677
430 36.762
435 35.2917
440 34.4975
445 32.3703
450 31.1547
455 28.7912
460 27.2864
465 24.9118
470 22.1725
475 20.8653
480 18.8236
485 17.1817
490 15.2706
495 14.216
500 12.4515
505 11.1625
510 9.46051
515 7.5553
520 7.088
525 6.10012
530 5.58402
535 4.76275
540 4.17739
545 4.12325
550 3.46776
555 2.82097
560 2.48311
565 2.19196
570 1.59209
575 1.41279
580 1.13446
585 0.828688
590 0.963019
595 0.778707
600 0.531716
Ex : 328
200 0.477878
205 0.384144
210 0.407488
215 0.369295
220 0.348672
225 0.422382
230 0.357241
235 0.391268
240 0.37374
245 0.522423
250 0.348324
255 0.459083
260 0.437548
265 0.531477
270 0.457386
275 0.549356
280 0.410031
285 0.419779
290 0.474264
295 0.522839
300 0.528354
305 0.499194
310 0.435692
315 1.76601
320 61.3878
325 146.951
330 44.49
335 9.1981
340 6.64703
345 7.59122
350 9.84185
355 13.8563
360 18.6599
365 20.4338
370 23.5038
375 26.7067
380 29.3497
385 33.1513
390 36.1299
395 38.7687
400 40.6282
405 41.9956
410 42.0379
415 42.3276
420 42.4115
425 39.6897
430 38.8046
435 36.8118
440 35.341
445 34.7697
450 31.7708
455 30.5189
460 28.518
465 25.8014
470 24.3175
475 21.3069
480 19.9223
485 18.0551
490 16.0809
495 14.5853
500 12.7654
505 11.5118
510 10.1063
515 8.97064
520 7.55903
525 6.92516
530 6.08478
535 5.47917
540 4.94621
545 4.11715
550 3.71385
555 3.22282
560 2.83754
565 2.40639
570 1.96117
575 1.8486
580 1.45264
585 1.17362
590 1.02032
595 0.788407
600 0.0897177
Ex : 333
200 0.392749
205 0.381248
210 0.341626
215 0.452836
220 0.334423
225 0.381311
230 0.307389
235 0.399084
240 0.401053
245 0.345396
250 0.362931
255 0.327807
260 0.369139
265 0.36853
270 0.355295
275 0.28365
280 0.472051
285 0.409429
290 0.450233
295 0.372686
300 0.335774
305 0.28714
310 0.459474
315 0.405356
320 8.85562
325 166.349
330 288.472
335 74.8736
340 12.7072
345 7.00715
350 6.34934
355 7.55605
360 10.4865
365 15.103
370 16.5572
375 16.4349
380 17.6198
385 20.5177
390 23.912
395 24.4626
400 25.3277
405 26.269
410 26.9835
415 27.7405
420 26.5198
425 25.6377
430 24.1416
435 22.9974
440 23.081
445 22.1551
450 19.9851
455 18.4763
460 17.5349
465 16.3556
470 14.9497
475 14.025
480 12.5009
485 11.3642
490 10.9791
495 8.8879
500 8.70412
505 7.54715
510 6.54075
515 5.59117
520 5.25275
525 4.92904
530 4.42062
535 3.8625
540 3.63555
545 3.26656
550 2.62022
555 2.47897
560 2.12887
565 1.93608
570 1.6936
575 1.5665
580 1.19294
585 0.869068
590 1.03118
595 0.964556
600 0.358332
Ex : 338
200 0.316537
205 0.323509
210 0.311301
215 0.332585
220 0.301439
225 0.425589
230 0.400262
235 0.396269
240 0.390812
245 0.315474
250 0.278499
255 0.291569
260 0.296293
265 0.297503
270 0.204614
275 0.300416
280 0.353201
285 0.413397
290 0.351758
295 0.438393
300 0.385237
305 0.390352
310 0.422534
315 0.570491
320 0.557169
325 16.408
330 247.565
335 363.806
340 90.3594
345 13.9832
350 5.85398
355 5.14589
360 4.78876
365 6.55297
370 11.5698
375 12.042
380 11.108
385 12.272
390 15.0987
395 15.9216
400 15.5967
405 16.4594
410 17.6548
415 18.7896
420 18.1207
425 17.2192
430 16.178
435 15.5794
440 15.403
445 14.6967
450 13.5897
455 11.9808
460 11.5789
465 11.8923
470 10.3651
475 9.92152
480 9.03459
485 8.27443
490 7.69306
495 7.13219
500 6.51646
505 5.71425
510 5.0309
515 4.85879
520 4.44284
525 3.78064
530 3.28323
535 3.24397
540 2.89001
545 2.69703
550 2.37915
555 2.10379
560 2.08008
565 1.78235
570 1.55351
575 1.30357
580 1.03408
585 0.860524
590 0.930711
595 0.851227
600 0.594952
Ex : 343
200 0.403978
205 0.355026
210 0.443869
215 0.282866
220 0.233102
225 0.297038
230 0.392268
235 0.394013
240 0.342471
245 0.335034
250 0.262332
255 0.319106
260 0.403092
265 0.341367
270 0.283375
275 0.265062
280 0.387345
285 0.241672
290 0.275667
295 0.304879
300 0.303142
305 0.279644
310 0.409051
315 0.425453
320 0.460075
325 0.802143
330 18.8486
335 283.765
340 406.229
345 97.7964
350 14.0787
355 5.03844
360 3.74407
365 3.33518
370 4.89819
375 9.01865
380 10.7932
385 11.0797
390 12.5067
395 13.1753
400 12.7029
405 13.601
410 15.0149
415 16.1775
420 16.2038
425 14.4078
430 14.1464
435 13.8474
440 13.8432
445 12.9837
450 12.2438
455 10.905
460 10.1576
465 9.83483
470 9.73798
475 9.0708
480 8.76266
485 7.71238
490 7.0962
495 6.64758
500 6.07156
505 5.60216
510 5.0139
515 4.66723
520 4.31846
525 3.86821
530 3.51141
535 3.13634
540 2.98482
545 3.09624
550 2.28364
555 2.23079
560 2.30499
565 1.77571
570 1.66016
575 1.36014
580 1.25695
585 1.00117
590 0.823435
595 0.86149
600 0.192563
Ex : 348
200 0.233964
205 0.22296
210 0.252269
215 0.253351
220 0.345275
225 0.355172
230 0.346187
235 0.321435
240 0.308871
245 0.285574
250 0.258022
255 0.301899
260 0.368229
265 0.33506
270 0.367403
275 0.286049
280 0.318592
285 0.368564
290 0.412159
295 0.308813
300 0.354374
305 0.380773
310 0.362663
315 0.337331
320 0.339757
325 0.541407
330 0.683538
335 19.0146
340 286.496
345 427.36
350 110.067
355 15.2463
360 4.64519
365 3.32072
370 2.89045
375 3.81751
380 8.22424
385 13.9901
390 15.8678
395 15.9183
400 14.2292
405 14.9698
410 17.4134
415 19.1209
420 18.5128
425 16.4515
430 15.4521
435 16.3831
440 15.839
445 14.5338
450 13.8226
455 12.9586
460 11.7721
465 10.8431
470 10.1329
475 10.3709
480 8.8836
485 8.32416
490 7.53598
495 7.1778
500 6.65862
505 6.13823
510 5.77775
515 5.12964
520 4.82334
525 4.17147
530 3.63771
535 3.5789
540 3.20571
545 2.79418
550 2.79626
555 2.19541
560 1.93834
565 1.93503
570 1.73952
575 1.39537
580 1.27503
585 1.05015
590 0.929411
595 0.822577
600 0.957928
Ex : 353
200 0.178688
205 0.259138
210 0.236221
215 0.300592
220 0.225662
225 0.262202
230 0.39496
235 0.294862
240 0.304562
245 0.268011
250 0.33012
255 0.241525
260 0.31215
265 0.309026
270 0.344915
275 0.317789
280 0.218325
285 0.324813
290 0.339288
295 0.283118
300 0.336222
305 0.283972
310 0.401627
315 0.359718
320 0.395367
325 0.506205
330 0.649263
335 0.8321
340 19.9087
345 298.073
350 428.983
355 107.087
360 14.4238
365 4.0526
370 3.06165
375 2.86785
380 4.42739
385 10.164
390 17.7628
395 19.1692
400 16.7334
405 16.125
410 18.771
415 20.7688
420 20.2645
425 18.0387
430 16.9745
435 16.4789
440 16.5645
445 16.4281
450 14.7903
455 13.905
460 12.7974
465 11.8651
470 11.4375
475 10.3301
480 10.1649
485 9.51188
490 8.72193
495 7.68984
500 7.12141
505 6.69438
510 6.23655
515 5.66413
520 5.24777
525 4.51813
530 4.21654
535 3.97711
540 3.77697
545 3.11477
550 3.0597
555 2.65318
560 2.42356
565 2.2354
570 1.7336
575 1.49394
580 1.46412
585 1.28848
590 0.861533
595 0.684433
600 0.597385
Ex : 358
200 0.233883
205 0.249295
210 0.330721
215 0.235321
220 0.270736
225 0.271455
230 0.304489
235 0.303899
240 0.2393
245 0.223477
250 0.345164
255 0.251167
260 0.292392
265 0.288693
270 0.331042
275 0.382181
280 0.256714
285 0.303668
290 0.310365
295 0.316983
300 0.272137
305 0.296107
310 0.198597
315 0.298196
320 0.346273
325 0.315402
330 0.400196
335 0.589871
340 0.710334
345 18.5974
350 281.813
355 428.359
360 107.967
365 14.4163
370 4.27665
375 3.27517
380 3.96037
385 7.14869
390 12.2837
395 18.2917
400 18.0776
405 16.104
410 17.7734
415 19.2431
420 18.9312
425 17.5807
430 15.7503
435 15.7774
440 15.7949
445 15.5345
450 14.4988
455 13.1238
460 12.4361
465 11.3557
470 10.9078
475 10.8577
480 10.0588
485 9.44935
490 8.62915
495 8.49871
500 7.92079
505 7.36489
510 6.8408
515 6.17279
520 5.41944
525 5.1103
530 4.35485
535 4.13418
540 3.71327
545 3.3653
550 3.16882
555 2.94577
560 2.66825
565 2.34018
570 1.85649
575 1.41
580 1.36354
585 1.08844
590 0.950128
595 0.789781
600 0.461508
Ex : 363
200 0.304996
205 0.401746
210 0.297384
215 0.179105
220 0.20675
225 0.269983
230 0.254227
235 0.257235
240 0.192042
245 0.196964
250 0.192556
255 0.356587
260 0.222039
265 0.258284
270 0.249275
275 0.316583
280 0.229287
285 0.235709
290 0.261824
295 0.26084
300 0.212992
305 0.226287
310 0.412723
315 0.374011
320 0.283775
325 0.340367
330 0.288805
335 0.422417
340 0.507485
345 0.915097
350 16.8263
355 273.978
360 431.769
365 113.361
370 15.2021
375 4.43258
380 5.03049
385 8.55492
390 12.9574
395 14.7488
400 17.5238
405 19.4144
410 20.3564
415 21.5111
420 20.2528
425 17.9884
430 17.0824
435 17.2299
440 17.2225
445 16.7106
450 15.1131
455 14.3491
460 13.3282
465 12.5842
470 12.0216
475 11.5386
480 10.9824
485 10.4893
490 9.52871
495 9.15083
500 8.3599
505 7.51733
510 6.9823
515 6.44802
520 6.18128
525 5.29355
530 4.69521
535 4.23054
540 3.96875
545 3.59803
550 3.17624
555 2.87754
560 2.62119
565 2.36761
570 1.99273
575 1.57791
580 1.29785
585 1.12679
590 1.01158
595 0.762991
600 0.717309
Ex : 368
200 0.183691
205 0.201478
210 0.203534
215 0.14313
220 0.259909
225 0.240121
230 0.207787
235 0.247521
240 0.212517
245 0.300793
250 0.24463
255 0.184169
260 0.226661
265 0.293699
270 0.300998
275 0.260645
280 0.271119
285 0.261946
290 0.169218
295 0.201444
300 0.265542
305 0.172705
310 0.243323
315 0.27253
320 0.242255
325 0.320485
330 0.283873
335 0.347447
340 0.373182
345 0.527542
350 0.717411
355 13.6663
360 269.748
365 448.508
370 120.861
375 16.3216
380 6.41711
385 9.85393
390 16.0389
395 18.2456
400 17.4705
405 20.9791
410 26.603
415 28.0849
420 27.2519
425 22.7333
430 20.3932
435 20.2308
440 20.2972
445 20.2293
450 17.9972
455 16.0406
460 14.861
465 14.41
470 13.5468
475 13.1507
480 12.3575
485 11.8802
490 10.5567
495 10.1899
500 9.24493
505 8.61122
510 7.89097
515 7.20072
520 6.3769
525 5.97474
530 5.62568
535 5.16097
540 4.29379
545 4.03086
550 3.64418
555 3.30054
560 2.74738
565 2.50515
570 2.16093
575 1.92064
580 1.36303
585 1.19101
590 1.04084
595 1.0001
600 1.52927
Ex : 373
200 0.282823
205 0.199941
210 0.208239
215 0.204981
220 0.133251
225 0.225938
230 0.186651
235 0.181954
240 0.120034
245 0.232471
250 0.290454
255 0.219297
260 0.189811
265 0.204786
270 0.220974
275 0.203411
280 0.188487
285 0.204346
290 0.178736
295 0.291644
300 0.229813
305 0.30364
310 0.267179
315 0.388244
320 0.25293
325 0.266173
330 0.296667
335 0.370138
340 0.383899
345 0.430983
350 0.440579
355 0.755292
360 16.8391
365 276.456
370 443.821
375 118.659
380 16.8875
385 8.927
390 15.2393
395 18.9973
400 17.4794
405 17.0527
410 21.86
415 29.2296
420 28.0982
425 23.7284
430 19.9697
435 19.2338
440 19.7809
445 19.0376
450 17.7425
455 15.8787
460 14.078
465 13.9487
470 13.7379
475 13.4929
480 12.6183
485 11.7831
490 10.9655
495 10.6712
500 9.98363
505 8.97542
510 8.53651
515 7.44514
520 7.05093
525 6.19764
530 5.75021
535 5.23413
540 4.7503
545 4.12854
550 4.06381
555 3.53239
560 3.18272
565 2.68621
570 2.25178
575 2.08062
580 1.56238
585 1.31838
590 1.03894
595 0.8997
600 0.358915
Ex : 378
200 0.248367
205 0.191667
210 0.169321
215 0.258155
220 0.222999
225 0.229134
230 0.225178
235 0.238504
240 0.183083
245 0.20952
250 0.225393
255 0.237611
260 0.227644
265 0.272421
270 0.250617
275 0.237747
280 0.191881
285 0.218691
290 0.200459
295 0.230052
300 0.188641
305 0.233088
310 0.220312
315 0.185077
320 0.267053
325 0.325347
330 0.221761
335 0.358368
340 0.353412
345 0.301403
350 0.392202
355 0.462808
360 0.74218
365 15.7824
370 280.407
375 464.152
380 126.432
385 20.6655
390 12.1687
395 13.8965
400 13.0038
405 12.5988
410 15.266
415 19.6589
420 21.8574
425 19.9359
430 16.9738
435 15.4038
440 15.8187
445 15.4366
450 14.6008
455 13.1922
460 12.632
465 12.0098
470 12.3116
475 11.9903
480 11.4383
485 10.8983
490 10.6419
495 10.2716
500 9.43524
505 8.82075
510 8.48141
515 7.70974
520 7.337
525 6.66476
530 5.99374
535 5.40887
540 4.9194
545 4.54255
550 4.26647
555 3.67963
560 3.24365
565 2.9314
570 2.42753
575 1.95533
580 1.61796
585 1.26467
590 0.997898
595 0.888841
600 0.965009
Ex : 383
200 0.216747
205 0.201062
210 0.193177
215 0.150836
220 0.16352
225 0.185192
230 0.177763
235 0.217669
240 0.164056
245 0.14949
250 0.161342
255 0.205116
260 0.22159
265 0.16473
270 0.218355
275 0.202612
280 0.212915
285 0.184988
290 0.182525
295 0.218921
300 0.187501
305 0.201512
310 0.202145
315 0.171237
320 0.246446
325 0.249469
330 0.246901
335 0.260608
340 0.238824
345 0.347165
350 0.294276
355 0.348007
360 0.564169
365 0.619135
370 15.5159
375 294.987
380 501.329
385 137.637
390 25.8806
395 13.7729
400 11.9643
405 12.8453
410 15.9493
415 17.8919
420 17.7571
425 18.674
430 18.8292
435 16.9432
440 16.4103
445 15.4511
450 14.5858
455 13.2389
460 12.5153
465 12.7943
470 12.3281
475 12.141
480 11.8498
485 11.2737
490 10.7337
495 10.3029
500 9.69825
505 8.93118
510 8.5291
515 7.77718
520 7.37346
525 6.41896
530 5.78417
535 5.54986
540 5.09374
545 4.82962
550 4.22488
555 3.60916
560 3.22841
565 2.75064
570 2.37698
575 1.92204
580 1.62019
585 1.26211
590 0.956883
595 0.827501
600 0.714159
Ex : 388
200 0.196274
205 0.180009
210 0.275651
215 0.214574
220 0.189444
225 0.200863
230 0.160467
235 0.204554
240 0.124189
245 0.232307
250 0.198371
255 0.189585
260 0.191153
265 0.167377
270 0.183583
275 0.217753
280 0.256537
285 0.232732
290 0.248585
295 0.216189
300 0.192286
305 0.147955
310 0.17312
315 0.229239
320 0.244723
325 0.203131
330 0.20632
335 0.203351
340 0.266263
345 0.276802
350 0.326954
355 0.334456
360 0.401233
365 0.409825
370 0.869053
375 15.9648
380 297.599
385 513.087
390 149.285
395 30.9669
400 16.0008
405 15.8796
410 19.4705
415 22.0997
420 21.5959
425 19.4525
430 19.7997
435 21.3009
440 20.2471
445 19.4744
450 16.8739
455 14.814
460 13.9195
465 13.7016
470 13.9368
475 13.1243
480 12.6743
485 12.1006
490 11.305
495 11.1548
500 10.2276
505 9.31059
510 8.94618
515 8.25113
520 7.52089
525 6.92362
530 6.52068
535 5.69218
540 5.02571
545 4.5952
550 4.28418
555 3.70362
560 3.25491
565 2.90035
570 2.42576
575 2.14164
580 1.66302
585 1.27566
590 1.12527
595 0.779249
600 1.05514
Ex : 393
200 0.181795
205 0.294345
210 0.272809
215 0.193162
220 0.191213
225 0.154655
230 0.198664
235 0.212656
240 0.18135
245 0.209222
250 0.211498
255 0.138089
260 0.21677
265 0.225341
270 0.179835
275 0.165179
280 0.167532
285 0.14693
290 0.28038
295 0.131813
300 0.185552
305 0.242918
310 0.174852
315 0.259101
320 0.255304
325 0.247289
330 0.269399
335 0.221835
340 0.246042
345 0.185308
350 0.258674
355 0.319286
360 0.352906
365 0.402535
370 0.556279
375 0.967148
380 15.6372
385 300.37
390 522.459
395 153.789
400 31.4805
405 16.0041
410 17.8795
415 22.3359
420 22.7608
425 19.3468
430 16.6811
435 17.9035
440 20.4783
445 19.7335
450 17.5722
455 15.2803
460 13.814
465 12.712
470 13.1286
475 13.2032
480 12.4048
485 12.0557
490 11.385
495 10.6001
500 10.1844
505 9.5959
510 9.20344
515 8.36613
520 7.49441
525 6.85846
530 6.27244
535 5.67767
540 5.37597
545 4.77337
550 4.34221
555 4.00517
560 3.57056
565 3.00084
570 2.40677
575 2.11638
580 1.75963
585 1.5356
590 1.10145
595 0.950542
600 0.677408
Ex : 398
200 0.194848
205 0.157527
210 0.18078
215 0.191272
220 0.2123
225 0.138475
230 0.126064
235 0.130433
240 0.196323
245 0.205373
250 0.170523
255 0.174913
260 0.156372
265 0.194525
270 0.16594
275 0.179565
280 0.186441
285 0.18034
290 0.160441
295 0.1604
300 0.170783
305 0.152051
310 0.149455
315 0.244719
320 0.169652
325 0.211488
330 0.219154
335 0.225528
340 0.181337
345 0.233664
350 0.290252
355 0.324862
360 0.334299
365 0.353179
370 0.407635
375 0.567167
380 1.03596
385 17.4106
390 314.055
395 536.622
400 148.901
405 24.9821
410 12.535
415 14.0371
420 14.9379
425 12.8018
430 11.0094
435 10.5245
440 12.2948
445 15.1659
450 14.3325
455 12.2475
460 11.1313
465 10.9597
470 10.7943
475 10.8932
480 10.9488
485 10.2673
490 10.1683
495 10.1119
500 9.5942
505 9.13531
510 9.01445
515 8.24414
520 7.70367
525 6.97497
530 6.19197
535 5.91641
540 5.18745
545 4.82057
550 4.24257
555 3.83334
560 3.31905
565 2.9783
570 2.61297
575 2.06094
580 1.62315
585 1.44382
590 1.11789
595 0.8567
600 0.837515
Ex : 403
200 0.247129
205 0.175577
210 0.172705
215 0.136088
220 0.182076
225 0.211387
230 0.105534
235 0.186174
240 0.212241
245 0.169793
250 0.20572
255 0.185634
260 0.183526
265 0.19081
270 0.167907
275 0.245699
280 0.184544
285 0.206394
290 0.223371
295 0.21533
300 0.20856
305 0.179518
310 0.187371
315 0.173423
320 0.170526
325 0.209478
330 0.188264
335 0.185288
340 0.189334
345 0.220033
350 0.250453
355 0.235193
360 0.232311
365 0.336762
370 0.346452
375 0.354925
380 0.610438
385 1.04753
390 19.1178
395 324.381
400 533.854
405 146.727
410 22.0183
415 9.22116
420 8.05111
425 7.70177
430 7.05688
435 7.06357
440 7.66038
445 8.82564
450 11.2221
455 11.5428
460 10.1599
465 10.0706
470 10.2689
475 10.2257
480 10.1874
485 10.1094
490 9.77297
495 9.81885
500 9.3101
505 8.95952
510 8.75033
515 7.83748
520 7.37757
525 6.77085
530 6.1327
535 5.71319
540 5.28884
545 4.6355
550 4.278
555 3.89714
560 3.50506
565 3.04564
570 2.70127
575 2.19555
580 1.76689
585 1.32679
590 1.05931
595 0.935339
600 0.704396
Ex : 408
200 0.212987
205 0.1193
210 0.177228
215 0.200411
220 0.167028
225 0.154428
230 0.179747
235 0.189657
240 0.225995
245 0.146906
250 0.169562
255 0.231241
260 0.182439
265 0.177348
270 0.161652
275 0.232177
280 0.256824
285 0.149535
290 0.134981
295 0.129808
300 0.175468
305 0.146883
310 0.238394
315 0.19207
320 0.232569
325 0.228718
330 0.258266
335 0.188695
340 0.211462
345 0.189064
350 0.228567
355 0.262781
360 0.287101
365 0.306865
370 0.254776
375 0.304495
380 0.437973
385 0.568771
390 1.07357
395 17.2533
400 342.166
405 571.547
410 151.187
415 23.2796
420 8.71941
425 7.13256
430 6.7447
435 7.32466
440 8.01814
445 8.52695
450 8.59691
455 10.0927
460 11.8152
465 10.8813
470 10.5716
475 10.7105
480 10.3548
485 10.1999
490 10.2617
495 9.89134
500 9.76964
505 9.52751
510 9.04525
515 8.36305
520 7.76839
525 6.86235
530 6.27531
535 5.8817
540 5.38341
545 5.16163
550 4.4152
555 4.03646
560 3.64284
565 3.09496
570 2.52185
575 2.33676
580 1.70287
585 1.32931
590 1.10966
595 0.972588
600 0.653932
Ex : 413
200 0.174859
205 0.20592
210 0.234584
215 0.17182
220 0.22205
225 0.198656
230 0.186737
235 0.150629
240 0.114591
245 0.160956
250 0.206166
255 0.18341
260 0.148556
265 0.141633
270 0.163004
275 0.161849
280 0.17154
285 0.180395
290 0.157726
295 0.167903
300 0.221103
305 0.201556
310 0.148474
315 0.139826
320 0.162022
325 0.124816
330 0.207562
335 0.20698
340 0.199805
345 0.199063
350 0.194723
355 0.252088
360 0.238673
365 0.231498
370 0.226221
375 0.300232
380 0.321866
385 0.396363
390 0.590727
395 1.00831
400 20.1909
405 348.377
410 557.142
415 145.971
420 22.3377
425 7.80947
430 6.28935
435 6.54726
440 7.31465
445 7.39355
450 7.58008
455 7.7241
460 9.20325
465 11.6487
470 11.0363
475 11.0658
480 10.7379
485 10.24
490 10.3268
495 10.1018
500 9.80388
505 9.27808
510 8.59008
515 8.06264
520 7.37433
525 6.87666
530 6.37481
535 5.81689
540 5.60352
545 4.90217
550 4.39939
555 3.97567
560 3.5708
565 3.10694
570 2.53198
575 2.10621
580 1.63156
585 1.35259
590 1.11156
595 0.928656
600 1.25774
Ex : 418
200 0.236984
205 0.188342
210 0.192559
215 0.245975
220 0.184309
225 0.14379
230 0.193718
235 0.148858
240 0.223711
245 0.188132
250 0.14381
255 0.143026
260 0.205292
265 0.137139
270 0.174412
275 0.218732
280 0.198795
285 0.17676
290 0.191342
295 0.152349
300 0.135975
305 0.205678
310 0.17267
315 0.165367
320 0.1528
325 0.199644
330 0.181817
335 0.227051
340 0.215371
345 0.251491
350 0.20952
355 0.217793
360 0.249295
365 0.266313
370 0.259662
375 0.332614
380 0.325034
385 0.330762
390 0.405415
395 0.618379
400 1.04549
405 19.1201
410 342.994
415 569.208
420 152.191
425 21.246
430 5.98882
435 4.47368
440 4.85979
445 5.41395
450 5.15942
455 5.76013
460 6.00116
465 7.4383
470 9.95591
475 10.3277
480 9.84312
485 9.65764
490 9.12827
495 8.90721
500 8.76577
505 8.49442
510 7.821
515 7.44618
520 7.23102
525 6.48535
530 5.83006
535 5.40233
540 5.09464
545 4.56263
550 4.17241
555 3.99635
560 3.54027
565 2.90338
570 2.63058
575 2.15782
580 1.65628
585 1.39265
590 1.02415
595 0.942963
600 1.1573
Ex : 423
200 0.182477
205 0.17698
210 0.154898
215 0.136474
220 0.154436
225 0.134232
230 0.205196
235 0.147819
240 0.181602
245 0.171352
250 0.2107
255 0.174155
260 0.22334
265 0.198729
270 0.198555
275 0.199204
280 0.138081
285 0.164426
290 0.195994
295 0.197966
300 0.176684
305 0.179157
310 0.243544
315 0.194671
320 0.229127
325 0.168054
330 0.193879
335 0.218834
340 0.152919
345 0.225838
350 0.224533
355 0.208502
360 0.251195
365 0.236906
370 0.239768
375 0.297121
380 0.34624
385 0.280061
390 0.346968
395 0.470441
400 0.562933
405 1.10617
410 20.4676
415 366.35
420 577.761
425 146.9
430 19.2432
435 4.65415
440 3.13015
445 3.53838
450 3.92226
455 4.12413
460 4.61703
465 5.22986
470 6.42131
475 8.70413
480 9.98948
485 9.04829
490 8.49164
495 8.54128
500 8.17586
505 7.8721
510 7.33829
515 7.06538
520 6.75645
525 6.23986
530 5.72561
535 5.1765
540 4.91263
545 4.4574
550 4.1315
555 3.47492
560 3.10231
565 3.00926
570 2.43717
575 1.97632
580 1.49026
585 1.27337
590 1.20624
595 0.878729
600 0.348601
Ex : 428
200 0.173045
205 0.171269
210 0.163812
215 0.18659
220 0.199847
225 0.126425
230 0.170396
235 0.175628
240 0.174142
245 0.199274
250 0.166511
255 0.170205
260 0.206701
265 0.17893
270 0.141821
275 0.161349
280 0.192753
285 0.213185
290 0.166486
295 0.17676
300 0.170455
305 0.158061
310 0.210553
315 0.15506
320 0.186606
325 0.154219
330 0.173921
335 0.24361
340 0.229274
345 0.222842
350 0.219454
355 0.217302
360 0.230695
365 0.202922
370 0.182056
375 0.250703
380 0.238669
385 0.264201
390 0.338481
395 0.324761
400 0.445033
405 0.612319
410 0.914427
415 22.2276
420 375.362
425 598.572
430 156.133
435 19.9274
440 4.32096
445 2.66125
450 3.10555
455 3.46357
460 3.82454
465 4.39456
470 5.0359
475 5.74171
480 7.7187
485 9.63653
490 8.67174
495 8.33656
500 7.77936
505 7.25952
510 6.77004
515 6.33862
520 5.92501
525 5.66968
530 5.30343
535 4.78527
540 4.50749
545 4.04004
550 3.63048
555 3.52573
560 3.24646
565 2.86257
570 2.46187
575 1.9224
580 1.43499
585 1.13434
590 0.972505
595 0.87903
600 0.690833
Ex : 433
200 0.226877
205 0.158392
210 0.198155
215 0.264721
220 0.138397
225 0.163749
230 0.135413
235 0.101313
240 0.245441
245 0.155708
250 0.187584
255 0.156658
260 0.199931
265 0.151323
270 0.168681
275 0.189895
280 0.194076
285 0.188935
290 0.170356
295 0.138094
300 0.196111
305 0.161175
310 0.198029
315 0.189051
320 0.144038
325 0.230233
330 0.207169
335 0.198147
340 0.193091
345 0.211181
350 0.227663
355 0.245713
360 0.195874
365 0.249536
370 0.192864
375 0.227312
380 0.253097
385 0.332844
390 0.342469
395 0.384266
400 0.372445
405 0.45288
410 0.634664
415 1.00549
420 24.3825
425 400.814
430 607.409
435 153.549
440 19.5716
445 4.17377
450 2.59832
455 3.0658
460 3.73854
465 4.01786
470 4.34347
475 5.0401
480 5.57936
485 6.79481
490 9.0231
495 8.42428
500 7.52742
505 7.09065
510 6.82727
515 6.17157
520 5.78916
525 5.31395
530 5.05647
535 4.40864
540 4.27866
545 3.91465
550 3.63204
555 3.33668
560 2.7832
565 2.49426
570 2.18974
575 1.77453
580 1.47714
585 1.12894
590 0.949976
595 0.806434
600 0.561816
Ex : 438
200 0.195988
205 0.212437
210 0.169611
215 0.175938
220 0.176452
225 0.195172
230 0.225654
235 0.167597
240 0.154276
245 0.186285
250 0.265715
255 0.189652
260 0.192148
265 0.192366
270 0.18137
275 0.201424
280 0.191739
285 0.232517
290 0.159801
295 0.210032
300 0.224957
305 0.203483
310 0.153511
315 0.144642
320 0.246726
325 0.193121
330 0.166526
335 0.190769
340 0.185276
345 0.215517
350 0.224638
355 0.166187
360 0.233617
365 0.213282
370 0.249872
375 0.227536
380 0.204161
385 0.30848
390 0.315003
395 0.320054
400 0.320455
405 0.448821
410 0.409492
415 0.657811
420 0.903593
425 23.7822
430 406.708
435 654.822
440 164.65
445 20.999
450 4.42309
455 2.88276
460 3.24564
465 4.00851
470 4.11982
475 4.25175
480 4.89165
485 5.00467
490 5.92543
495 7.77198
500 8.10285
505 6.94631
510 6.58422
515 5.90262
520 5.07674
525 4.82251
530 4.70522
535 4.13477
540 3.7881
545 3.62139
550 3.2211
555 2.9883
560 2.62917
565 2.39398
570 1.97809
575 1.68663
580 1.33664
585 1.0692
590 0.943324
595 0.925606
600 0.693149
Ex : 443
200 0.218077
205 0.210741
210 0.17488
215 0.194776
220 0.143794
225 0.154243
230 0.197906
235 0.11338
240 0.148053
245 0.214931
250 0.252635
255 0.197436
260 0.227745
265 0.178361
270 0.231623
275 0.201194
280 0.186927
285 0.173478
290 0.169479
295 0.218169
300 0.173616
305 0.159725
310 0.181365
315 0.236871
320 0.233789
325 0.14621
330 0.166176
335 0.206295
340 0.161158
345 0.213176
350 0.218557
355 0.191721
360 0.203931
365 0.189825
370 0.188184
375 0.266161
380 0.257798
385 0.233999
390 0.215115
395 0.338806
400 0.376748
405 0.322068
410 0.333201
415 0.51824
420 0.60965
425 1.05196
430 28.4322
435 448.365
440 667.628
445 165.565
450 21.1411
455 4.60646
460 3.06738
465 3.44846
470 3.87883
475 4.05431
480 4.18942
485 4.57424
490 4.73221
495 5.30295
500 6.45263
505 7.37866
510 6.03301
515 5.41159
520 4.94633
525 4.2928
530 4.05305
535 3.87659
540 3.7501
545 3.29564
550 2.83985
555 2.67117
560 2.29986
565 2.17915
570 1.88721
575 1.47762
580 1.29675
585 1.02974
590 1.01138
595 0.704596
600 0.420796
Ex : 448
200 0.192957
205 0.214916
210 0.218622
215 0.172676
220 0.172255
225 0.182878
230 0.176728
235 0.192637
240 0.195037
245 0.188804
250 0.177726
255 0.226864
260 0.18021
265 0.150122
270 0.18139
275 0.231735
280 0.182313
285 0.216764
290 0.172559
295 0.171064
300 0.216984
305 0.233384
310 0.20804
315 0.238614
320 0.247071
325 0.207757
330 0.208586
335 0.260177
340 0.210991
345 0.190909
350 0.213885
355 0.211018
360 0.188186
365 0.201176
370 0.261442
375 0.196449
380 0.250584
385 0.254182
390 0.274683
395 0.23078
400 0.342367
405 0.263214
410 0.355341
415 0.418667
420 0.482615
425 0.629367
430 0.983411
435 27.8503
440 466.015
445 704.514
450 174.843
455 22.3764
460 5.07918
465 3.08554
470 3.23408
475 3.66564
480 3.96641
485 3.95195
490 4.11646
495 4.19185
500 4.23177
505 5.28024
510 6.36526
515 5.83124
520 4.70524
525 4.46968
530 4.02743
535 3.47238
540 3.16694
545 2.88111
550 2.53074
555 2.32306
560 2.07001
565 1.73039
570 1.55507
575 1.37645
580 1.21556
585 0.860724
590 0.74086
595 0.665583
600 0.465133
Ex : 453
200 0.172908
205 0.177467
210 0.259438
215 0.165966
220 0.141047
225 0.173316
230 0.151819
235 0.166458
240 0.190683
245 0.170518
250 0.133281
255 0.17894
260 0.188566
265 0.183106
270 0.277102
275 0.323301
280 0.194518
285 0.148997
290 0.180886
295 0.149137
300 0.195757
305 0.231888
310 0.162078
315 0.170985
320 0.214635
325 0.220339
330 0.198486
335 0.169657
340 0.186346
345 0.208315
350 0.204486
355 0.203758
360 0.2016
365 0.21138
370 0.181062
375 0.237359
380 0.190902
385 0.23294
390 0.281252
395 0.187023
400 0.305216
405 0.218216
410 0.276819
415 0.330656
420 0.46278
425 0.515573
430 0.601303
435 1.00189
440 29.4524
445 503.716
450 732.325
455 171.223
460 21.7828
465 4.88673
470 2.96636
475 2.99231
480 3.46731
485 3.59605
490 3.49525
495 3.49556
500 3.52322
505 3.46772
510 4.02693
515 5.40714
520 4.96884
525 3.88461
530 3.4507
535 3.47633
540 2.7442
545 2.62472
550 2.30504
555 2.23508
560 1.86229
565 1.67301
570 1.4276
575 1.22718
580 0.999502
585 0.885917
590 0.778077
595 0.601615
600 0.430871
Ex : 458
200 0.27084
205 0.187817
210 0.143121
215 0.173885
220 0.18105
225 0.20759
230 0.253805
235 0.149891
240 0.225787
245 0.158367
250 0.124966
255 0.212995
260 0.164625
265 0.179515
270 0.16889
275 0.182036
280 0.192472
285 0.175093
290 0.157847
295 0.208431
300 0.184083
305 0.190798
310 0.190214
315 0.203474
320 0.197739
325 0.162238
330 0.238546
335 0.209688
340 0.212705
345 0.21403
350 0.192317
355 0.215883
360 0.258359
365 0.209428
370 0.205179
375 0.264338
380 0.197219
385 0.270039
390 0.302093
395 0.290665
400 0.211243
405 0.272274
410 0.327042
415 0.317831
420 0.337911
425 0.352665
430 0.537766
435 0.712472
440 0.985928
445 32.2374
450 519.883
455 764.567
460 184.169
465 23.5951
470 5.13025
475 2.87531
480 2.85299
485 3.22027
490 3.23909
495 3.15302
500 2.86207
505 2.97897
510 2.88668
515 3.03132
520 4.16114
525 4.81404
530 3.5703
535 3.14465
540 3.0674
545 2.51979
550 2.07984
555 1.76688
560 1.81385
565 1.43487
570 1.3505
575 1.09676
580 0.962363
585 0.79964
590 0.606923
595 0.553379
600 0.636226
Ex : 463
200 0.229588
205 0.173882
210 0.16907
215 0.192914
220 0.202952
225 0.151603
230 0.154422
235 0.21256
240 0.170074
245 0.199878
250 0.186567
255 0.185979
260 0.148438
265 0.171802
270 0.163892
275 0.179964
280 0.210839
285 0.193293
290 0.198567
295 0.196005
300 0.220113
305 0.207201
310 0.176323
315 0.183254
320 0.21728
325 0.199416
330 0.178592
335 0.181439
340 0.182481
345 0.211409
350 0.191739
355 0.282598
360 0.221643
365 0.209971
370 0.227466
375 0.268474
380 0.243198
385 0.185434
390 0.220277
395 0.276752
400 0.280995
405 0.244576
410 0.279429
415 0.253184
420 0.270635
425 0.321503
430 0.40425
435 0.436502
440 0.697227
445 1.10896
450 32.0405
455 539.141
460 814.241
465 194.792
470 24.6538
475 4.83677
480 2.45409
485 2.41625
490 2.78764
495 2.75199
500 2.53229
505 2.42064
510 2.2323
515 2.36777
520 2.37954
525 3.04458
530 4.27082
535 3.57484
540 2.67728
545 2.427
550 2.23928
555 1.81816
560 1.58089
565 1.42001
570 1.23497
575 1.09966
580 0.835769
585 0.788352
590 0.684923
595 0.569054
600 0.834068
Ex : 468
200 0.132993
205 0.188639
210 0.198895
215 0.212312
220 0.16426
225 0.153534
230 0.186888
235 0.17986
240 0.10657
245 0.169463
250 0.18525
255 0.222884
260 0.237711
265 0.198903
270 0.166211
275 0.224199
280 0.228362
285 0.210938
290 0.19789
295 0.158741
300 0.172192
305 0.134988
310 0.128457
315 0.198526
320 0.161708
325 0.179257
330 0.190784
335 0.175965
340 0.241634
345 0.170635
350 0.191378
355 0.228943
360 0.240351
365 0.183926
370 0.206033
375 0.211839
380 0.252271
385 0.185734
390 0.226078
395 0.174483
400 0.226674
405 0.280378
410 0.290343
415 0.266384
420 0.29948
425 0.322141
430 0.286784
435 0.384253
440 0.571778
445 0.605617
450 1.00613
455 34.7595
460 533.91
465 840.21
470 202.438
475 25.2584
480 4.93374
485 2.51693
490 2.08492
495 2.31757
500 2.23517
505 2.152
510 2.02401
515 2.05738
520 2.04352
525 2.08231
530 2.37686
535 3.39788
540 3.58378
545 2.53298
550 2.24428
555 2.02739
560 1.59466
565 1.3436
570 1.15142
575 0.918562
580 0.794185
585 0.74772
590 0.591389
595 0.496205
600 0.198455
Ex : 473
200 0.220255
205 0.155636
210 0.153527
215 0.153598
220 0.162874
225 0.188116
230 0.151201
235 0.196788
240 0.209029
245 0.187156
250 0.190762
255 0.117879
260 0.189307
265 0.200129
270 0.195158
275 0.210391
280 0.204778
285 0.196542
290 0.209262
295 0.167828
300 0.166406
305 0.278542
310 0.219152
315 0.18132
320 0.204185
325 0.194258
330 0.252768
335 0.210197
340 0.212292
345 0.180646
350 0.177362
355 0.26737
360 0.222442
365 0.159019
370 0.239274
375 0.24987
380 0.267882
385 0.229978
390 0.218425
395 0.212265
400 0.219154
405 0.227889
410 0.284432
415 0.266217
420 0.269911
425 0.265304
430 0.363586
435 0.309778
440 0.383286
445 0.675435
450 0.776693
455 1.19977
460 41.2416
465 603.529
470 829.339
475 190.613
480 23.7808
485 4.55007
490 2.17137
495 1.86464
500 2.11084
505 2.24227
510 2.02397
515 1.82696
520 1.82561
525 1.87234
530 1.86929
535 2.07937
540 2.91926
545 3.34497
550 2.43477
555 1.92707
560 1.84336
565 1.50564
570 1.24906
575 0.902598
580 0.776942
585 0.726896
590 0.57296
595 0.566058
600 0.817296
Ex : 478
200 0.214491
205 0.199256
210 0.215127
215 0.263956
220 0.261142
225 0.238049
230 0.34395
235 0.220322
240 0.16756
245 0.159673
250 0.236716
255 0.244674
260 0.181335
265 0.246304
270 0.291044
275 0.239714
280 0.203949
285 0.17224
290 0.272985
295 0.194897
300 0.195078
305 0.228945
310 0.22245
315 0.244499
320 0.253349
325 0.227706
330 0.237236
335 0.25986
340 0.24132
345 0.210077
350 0.201779
355 0.245022
360 0.201378
365 0.26404
370 0.269133
375 0.266967
380 0.220222
385 0.235076
390 0.267914
395 0.278432
400 0.272885
405 0.330501
410 0.321673
415 0.28074
420 0.353124
425 0.302969
430 0.292658
435 0.332253
440 0.404329
445 0.47224
450 0.619424
455 0.869025
460 1.35131
465 42.4344
470 596.392
475 825.46
480 198.355
485 24.5755
490 4.52902
495 2.08413
500 1.63223
505 1.80695
510 1.95869
515 1.85924
520 1.79615
525 1.75467
530 1.73045
535 1.81529
540 1.67648
545 2.21415
550 3.11194
555 2.68914
560 1.80846
565 1.69832
570 1.33884
575 1.03479
580 0.886226
585 0.756799
590 0.618175
595 0.562137
600 0.93446
Ex : 483
200 0.162465
205 0.147432
210 0.208163
215 0.22244
220 0.255042
225 0.213884
230 0.202908
235 0.175998
240 0.208571
245 0.196959
250 0.203919
255 0.166373
260 0.17806
265 0.217983
270 0.222089
275 0.219044
280 0.211763
285 0.220112
290 0.272228
295 0.247314
300 0.141429
305 0.182937
310 0.250245
315 0.252031
320 0.214938
325 0.246963
330 0.23527
335 0.218187
340 0.235894
345 0.247554
350 0.200486
355 0.25144
360 0.218658
365 0.234143
370 0.242105
375 0.288089
380 0.250974
385 0.273113
390 0.262917
395 0.323426
400 0.304859
405 0.305693
410 0.308627
415 0.350822
420 0.288296
425 0.277444
430 0.296801
435 0.288259
440 0.311167
445 0.3587
450 0.449778
455 0.593574
460 0.784964
465 1.42234
470 34.336
475 590.434
480 876.262
485 208.025
490 25.4588
495 4.37275
500 1.99068
505 1.49582
510 1.71629
515 1.89258
520 1.80396
525 1.71009
530 1.74273
535 1.73307
540 1.56855
545 1.47297
550 1.72173
555 2.57648
560 2.84189
565 1.81315
570 1.43833
575 1.30429
580 1.02891
585 0.753531
590 0.667073
595 0.544417
600 0.429633
Ex : 488
200 0.179865
205 0.222869
210 0.290195
215 0.199825
220 0.22128
225 0.183693
230 0.221212
235 0.196326
240 0.220393
245 0.240502
250 0.214798
255 0.199264
260 0.407992
265 0.272294
270 0.251877
275 0.246041
280 0.268244
285 0.23134
290 0.210717
295 0.239238
300 0.285938
305 0.257461
310 0.232188
315 0.191929
320 0.246935
325 0.256031
330 0.235073
335 0.220234
340 0.240325
345 0.245456
350 0.245183
355 0.296079
360 0.305016
365 0.251255
370 0.317731
375 0.341371
380 0.291364
385 0.211993
390 0.355056
395 0.286672
400 0.29583
405 0.328324
410 0.314573
415 0.286854
420 0.341544
425 0.305042
430 0.255434
435 0.373301
440 0.403312
445 0.445759
450 0.436369
455 0.473249
460 0.661724
465 0.999673
470 1.38886
475 44.4081
480 683.359
485 913.41
490 208.379
495 25.8633
500 4.34663
505 1.91692
510 1.53727
515 1.72915
520 1.85748
525 1.78897
530 1.69186
535 1.44268
540 1.51456
545 1.54234
550 1.37818
555 1.50165
560 2.08226
565 2.45832
570 1.97313
575 1.28481
580 1.07339
585 0.809777
590 0.725801
595 0.546843
600 0.683945
Ex : 493
200 0.210043
205 0.312479
210 0.253029
215 0.29773
220 0.173198
225 0.209093
230 0.275873
235 0.26344
240 0.258428
245 0.212662
250 0.28801
255 0.27814
260 0.218593
265 0.254111
270 0.229865
275 0.26585
280 0.272196
285 0.260565
290 0.189707
295 0.224432
300 0.238703
305 0.230005
310 0.272554
315 0.21804
320 0.183469
325 0.250821
330 0.204326
335 0.267376
340 0.241458
345 0.246378
350 0.233177
355 0.254888
360 0.295843
365 0.345787
370 0.301649
375 0.241148
380 0.276126
385 0.258987
390 0.216952
395 0.234834
400 0.216189
405 0.281143
410 0.274609
415 0.293323
420 0.223082
425 0.281076
430 0.308847
435 0.280728
440 0.318396
445 0.352245
450 0.385874
455 0.402343
460 0.510301
465 0.61826
470 0.870265
475 1.22673
480 36.8435
485 615.737
490 909.546
495 206.163
500 25.3051
505 4.27082
510 1.94464
515 1.61613
520 1.5676
525 1.80958
530 1.79891
535 1.64084
540 1.5029
545 1.47319
550 1.42327
555 1.28779
560 1.24761
565 1.45763
570 2.10273
575 1.70511
580 1.00473
585 0.861532
590 0.81461
595 0.645672
600 0.626928
Ex : 498
200 0.302029
205 0.213425
210 0.194111
215 0.212171
220 0.249252
225 0.280669
230 0.260519
235 0.232412
240 0.251284
245 0.281783
250 0.293868
255 0.203706
260 0.237108
265 0.303489
270 0.228241
275 0.218536
280 0.250758
285 0.259504
290 0.241897
295 0.367884
300 0.287124
305 0.304598
310 0.267519
315 0.17766
320 0.236962
325 0.225245
330 0.220611
335 0.252673
340 0.25111
345 0.277893
350 0.247155
355 0.239198
360 0.285618
365 0.219632
370 0.273751
375 0.236122
380 0.282954
385 0.2992
390 0.305467
395 0.320065
400 0.308824
405 0.334757
410 0.333465
415 0.284527
420 0.337634
425 0.340267
430 0.328904
435 0.390761
440 0.347821
445 0.299503
450 0.412909
455 0.406334
460 0.472401
465 0.612776
470 0.684829
475 0.740992
480 1.25322
485 44.0932
490 646.911
495 870.682
500 200.992
505 24.7133
510 4.30718
515 1.9202
520 1.59054
525 1.643
530 1.83115
535 1.77091
540 1.62949
545 1.41427
550 1.43486
555 1.31311
560 1.32005
565 1.19532
570 1.27768
575 1.59841
580 1.67274
585 1.06174
590 0.696692
595 0.613081
600 0.400691
Ex : 503
200 0.370449
205 0.271789
210 0.210141
215 0.24314
220 0.227602
225 0.272565
230 0.263307
235 0.279119
240 0.220557
245 0.229037
250 0.272073
255 0.322595
260 0.289004
265 0.236566
270 0.291005
275 0.305509
280 0.26597
285 0.312245
290 0.255189
295 0.271661
300 0.307888
305 0.276538
310 0.286623
315 0.293589
320 0.346706
325 0.29294
330 0.294562
335 0.261581
340 0.332817
345 0.248807
350 0.281392
355 0.257274
360 0.346064
365 0.293125
370 0.316185
375 0.347109
380 0.303808
385 0.291378
390 0.35916
395 0.241621
400 0.338913
405 0.348008
410 0.336082
415 0.363595
420 0.350755
425 0.374682
430 0.344804
435 0.310737
440 0.346614
445 0.373095
450 0.391791
455 0.441021
460 0.526963
465 0.439159
470 0.53899
475 0.638612
480 0.904509
485 1.2282
490 41.0668
495 648.613
500 917.712
505 209.768
510 25.8803
515 4.62862
520 2.10047
525 1.61419
530 1.52334
535 1.65272
540 1.6676
545 1.65141
550 1.55027
555 1.20811
560 1.24336
565 1.13045
570 1.06143
575 1.00518
580 1.05149
585 1.37108
590 0.991318
595 0.832061
600 0.925253
Ex : 508
200 0.300826
205 0.303333
210 0.254894
215 0.322996
220 0.318501
225 0.28642
230 0.232997
235 0.269651
240 0.274379
245 0.284607
250 0.268708
255 0.212527
260 0.405221
265 0.356989
270 0.313038
275 0.2525
280 0.272078
285 0.196377
290 0.297193
295 0.245947
300 0.351012
305 0.356907
310 0.296284
315 0.283606
320 0.284829
325 0.220998
330 0.341615
335 0.201854
340 0.357341
345 0.31578
350 0.317922
355 0.285858
360 0.24242
365 0.23165
370 0.388867
375 0.323309
380 0.255778
385 0.356129
390 0.29314
395 0.338627
400 0.331311
405 0.363666
410 0.307469
415 0.309731
420 0.303221
425 0.317332
430 0.341089
435 0.399919
440 0.303884
445 0.436892
450 0.39861
455 0.409501
460 0.514711
465 0.472245
470 0.434016
475 0.620356
480 0.687873
485 1.00867
490 1.41573
495 44.3057
500 664.258
505 908.921
510 214.387
515 26.4008
520 4.47684
525 2.09152
530 1.56145
535 1.50621
540 1.52199
545 1.585
550 1.57885
555 1.36306
560 1.10711
565 1.3173
570 0.971088
575 0.924988
580 0.77101
585 0.880709
590 1.21705
595 1.00777
600 0.689072
Ex : 513
200 0.184676
205 0.341268
210 0.243637
215 0.307275
220 0.360697
225 0.350721
230 0.225624
235 0.317872
240 0.279649
245 0.307353
250 0.225931
255 0.200262
260 0.348737
265 0.247273
270 0.285846
275 0.327423
280 0.26965
285 0.370072
290 0.288011
295 0.223646
300 0.261818
305 0.294809
310 0.297156
315 0.364604
320 0.300393
325 0.266549
330 0.346485
335 0.298282
340 0.389149
345 0.346831
350 0.275782
355 0.318618
360 0.250531
365 0.267512
370 0.307047
375 0.26023
380 0.295707
385 0.335165
390 0.319296
395 0.355162
400 0.356403
405 0.288783
410 0.336589
415 0.417601
420 0.369329
425 0.314325
430 0.396879
435 0.369759
440 0.329164
445 0.324183
450 0.411617
455 0.406861
460 0.420369
465 0.423073
470 0.445155
475 0.477351
480 0.573449
485 0.750462
490 0.881923
495 1.34506
500 39.7083
505 632.09
510 903.651
515 217.089
520 26.7602
525 4.49322
530 2.05393
535 1.74321
540 1.43541
545 1.46157
550 1.56518
555 1.54933
560 1.35693
565 1.13945
570 0.968278
575 0.931645
580 0.742948
585 0.780337
590 0.787595
595 1.01296
600 0.749474
Ex : 518
200 0.261605
205 0.297324
210 0.259427
215 0.245417
220 0.316243
225 0.328343
230 0.27597
235 0.292846
240 0.262931
245 0.289908
250 0.228649
255 0.326592
260 0.259209
265 0.263266
270 0.356001
275 0.251726
280 0.25634
285 0.283628
290 0.300913
295 0.270757
300 0.264905
305 0.2916
310 0.236138
315 0.299111
320 0.269824
325 0.257958
330 0.278622
335 0.357967
340 0.329226
345 0.295105
350 0.328983
355 0.339651
360 0.298994
365 0.283633
370 0.266012
375 0.231823
380 0.279508
385 0.347892
390 0.335302
395 0.388887
400 0.329815
405 0.37639
410 0.295738
415 0.4196
420 0.249564
425 0.309231
430 0.384573
435 0.440756
440 0.501999
445 0.360884
450 0.39557
455 0.34741
460 0.396115
465 0.422493
470 0.385561
475 0.41449
480 0.528666
485 0.600962
490 0.71523
495 0.850153
500 1.31408
505 39.3885
510 607.493
515 902.144
520 217.608
525 26.6759
530 4.64132
535 1.91683
540 1.77132
545 1.40404
550 1.35133
555 1.27729
560 1.33632
565 1.18168
570 0.97147
575 0.883393
580 0.804155
585 0.635796
590 0.686179
595 0.617071
600 0.178294
Ex : 523
200 0.247141
205 0.229888
210 0.271728
215 0.269305
220 0.272095
225 0.238893
230 0.274445
235 0.253449
240 0.263535
245 0.285107
250 0.374533
255 0.316714
260 0.285744
265 0.365323
270 0.349976
275 0.26504
280 0.287833
285 0.241985
290 0.270516
295 0.28288
300 0.293217
305 0.257819
310 0.257364
315 0.310876
320 0.220118
325 0.19831
330 0.22645
335 0.285469
340 0.359444
345 0.224226
350 0.293219
355 0.308337
360 0.284222
365 0.303152
370 0.254525
375 0.277465
380 0.394117
385 0.273478
390 0.274129
395 0.359276
400 0.338101
405 0.320002
410 0.370005
415 0.372257
420 0.383267
425 0.338909
430 0.366013
435 0.377712
440 0.466777
445 0.376159
450 0.345989
455 0.420105
460 0.462017
465 0.468547
470 0.485822
475 0.517173
480 0.385405
485 0.646186
490 0.567024
495 0.874253
500 0.864503
505 1.40214
510 36.3446
515 580.365
520 881.423
525 226.339
530 27.898
535 4.75665
540 2.11885
545 1.56222
550 1.34302
555 1.40081
560 1.4338
565 1.22298
570 1.13598
575 0.994307
580 0.867241
585 0.652406
590 0.69054
595 0.612238
600 0.840089
Ex : 528
200 0.336989
205 0.282647
210 0.243568
215 0.295113
220 0.273702
225 0.256812
230 0.231769
235 0.337204
240 0.343454
245 0.270575
250 0.285113
255 0.270578
260 0.278214
265 0.28437
270 0.337581
275 0.360319
280 0.280807
285 0.339626
290 0.226351
295 0.288407
300 0.318082
305 0.301484
310 0.24844
315 0.264269
320 0.23512
325 0.274583
330 0.221433
335 0.238378
340 0.304804
345 0.32564
350 0.28934
355 0.310226
360 0.292609
365 0.253611
370 0.266686
375 0.342924
380 0.427519
385 0.283908
390 0.279217
395 0.22844
400 0.279464
405 0.328051
410 0.37997
415 0.395318
420 0.317052
425 0.341945
430 0.325785
435 0.327838
440 0.384673
445 0.330471
450 0.314144
455 0.382726
460 0.385284
465 0.401202
470 0.429976
475 0.478031
480 0.462081
485 0.397726
490 0.539335
495 0.614116
500 0.744929
505 0.922844
510 1.38142
515 34.6558
520 579.33
525 864.914
530 213.471
535 26.1864
540 4.47211
545 1.89997
550 1.42933
555 1.40345
560 1.21611
565 1.39242
570 1.13892
575 0.859941
580 0.853845
585 0.691873
590 0.69058
595 0.711714
600 0.0809904
Ex : 533
200 0.320918
205 0.33366
210 0.258864
215 0.23132
220 0.208392
225 0.245944
230 0.24662
235 0.324761
240 0.292981
245 0.258633
250 0.31668
255 0.307275
260 0.326814
265 0.319226
270 0.271308
275 0.333502
280 0.265933
285 0.227715
290 0.302073
295 0.281669
300 0.333689
305 0.390668
310 0.323834
315 0.357339
320 0.319977
325 0.387087
330 0.272691
335 0.333232
340 0.335958
345 0.321839
350 0.322771
355 0.307607
360 0.321087
365 0.349235
370 0.282515
375 0.334506
380 0.473449
385 0.34585
390 0.391128
395 0.372026
400 0.375713
405 0.308912
410 0.372391
415 0.263587
420 0.388417
425 0.352108
430 0.341713
435 0.292006
440 0.355444
445 0.366315
450 0.363371
455 0.386105
460 0.343787
465 0.335621
470 0.450356
475 0.44599
480 0.4089
485 0.462174
490 0.598713
495 0.53349
500 0.558081
505 0.653057
510 0.871547
515 1.27908
520 33.8318
525 562.223
530 856.575
535 219.111
540 26.9761
545 4.48425
550 2.05329
555 1.40983
560 1.05187
565 1.20702
570 1.21549
575 0.918994
580 0.843062
585 0.787472
590 0.723603
595 0.525103
600 1.01266
Ex : 538
200 0.4398
205 0.338445
210 0.319787
215 0.318327
220 0.262996
225 0.242593
230 0.246152
235 0.336297
240 0.298676
245 0.321613
250 0.321075
255 0.288833
260 0.30904
265 0.381332
270 0.339774
275 0.321259
280 0.353211
285 0.335438
290 0.340901
295 0.221894
300 0.284561
305 0.258803
310 0.371033
315 0.3216
320 0.377128
325 0.270962
330 0.323745
335 0.327161
340 0.404109
345 0.217406
350 0.289895
355 0.42887
360 0.364498
365 0.408484
370 0.410774
375 0.319178
380 0.28292
385 0.322463
390 0.360884
395 0.351309
400 0.402188
405 0.389073
410 0.341836
415 0.395472
420 0.309605
425 0.416349
430 0.472947
435 0.394045
440 0.441848
445 0.34466
450 0.338095
455 0.411656
460 0.450747
465 0.451948
470 0.448535
475 0.410701
480 0.439183
485 0.537384
490 0.475635
495 0.621433
500 0.544713
505 0.604924
510 0.729666
515 0.963453
520 1.33764
525 28.9178
530 533.595
535 855.928
540 227.425
545 27.9407
550 4.65314
555 1.79282
560 1.35958
565 1.05061
570 1.10385
575 0.966991
580 0.804349
585 0.648729
590 0.611984
595 0.601105
600 0.182273
Ex : 543
200 0.262286
205 0.400794
210 0.358451
215 0.349098
220 0.3486
225 0.350498
230 0.300982
235 0.329572
240 0.308242
245 0.351044
250 0.266642
255 0.250694
260 0.33593
265 0.240595
270 0.229052
275 0.269509
280 0.270655
285 0.298283
290 0.370102
295 0.351823
300 0.330342
305 0.302091
310 0.308231
315 0.337221
320 0.291988
325 0.442022
330 0.34165
335 0.342782
340 0.306025
345 0.262654
350 0.256581
355 0.375432
360 0.328918
365 0.363729
370 0.353802
375 0.344438
380 0.427196
385 0.356205
390 0.294546
395 0.385747
400 0.365409
405 0.28982
410 0.355588
415 0.401814
420 0.324115
425 0.391101
430 0.48129
435 0.437003
440 0.413238
445 0.301295
450 0.310047
455 0.377976
460 0.365356
465 0.424348
470 0.420859
475 0.456549
480 0.444243
485 0.414506
490 0.40182
495 0.399821
500 0.451705
505 0.512821
510 0.583524
515 0.715548
520 0.872227
525 1.32697
530 25.2417
535 496.944
540 840.095
545 231.215
550 28.5622
555 4.56251
560 1.55573
565 1.23005
570 0.862236
575 0.866027
580 0.746628
585 0.69407
590 0.763447
595 0.6408
600 0.294472
Ex : 548
200 0.401195
205 0.262257
210 0.308188
215 0.427755
220 0.3669
225 0.275565
230 0.239308
235 0.320399
240 0.339335
245 0.368674
250 0.305587
255 0.247107
260 0.420968
265 0.383524
270 0.308325
275 0.245158
280 0.272126
285 0.45908
290 0.300957
295 0.354259
300 0.343574
305 0.247936
310 0.299797
315 0.275381
320 0.469129
325 0.447832
330 0.423399
335 0.334577
340 0.333104
345 0.304978
350 0.350791
355 0.38487
360 0.398006
365 0.500061
370 0.475865
375 0.348021
380 0.315413
385 0.31749
390 0.399535
395 0.383126
400 0.341266
405 0.453914
410 0.371861
415 0.335735
420 0.417065
425 0.367934
430 0.359689
435 0.404815
440 0.384158
445 0.551391
450 0.384331
455 0.321804
460 0.497685
465 0.487306
470 0.383262
475 0.402869
480 0.42389
485 0.481121
490 0.396937
495 0.374168
500 0.468569
505 0.63623
510 0.620272
515 0.567047
520 0.674243
525 0.802614
530 1.31108
535 30.9864
540 534.899
545 829.569
550 225.173
555 27.4826
560 4.21745
565 1.43642
570 1.05835
575 0.827509
580 0.739394
585 0.711088
590 0.662138
595 0.737111
600 0.313071
Ex : 553
200 0.360244
205 0.329241
210 0.261051
215 0.372369
220 0.381191
225 0.398063
230 0.272746
235 0.333959
240 0.240608
245 0.268087
250 0.344921
255 0.314649
260 0.368625
265 0.449164
270 0.276173
275 0.365012
280 0.362503
285 0.311076
290 0.272397
295 0.317404
300 0.304006
305 0.302027
310 0.323802
315 0.46686
320 0.227207
325 0.315603
330 0.225496
335 0.391784
340 0.311042
345 0.339051
350 0.307875
355 0.346311
360 0.310469
365 0.33383
370 0.388203
375 0.32997
380 0.312965
385 0.307314
390 0.384386
395 0.420891
400 0.355464
405 0.373591
410 0.347631
415 0.358268
420 0.332901
425 0.367745
430 0.383215
435 0.549448
440 0.359203
445 0.344535
450 0.433033
455 0.405363
460 0.473435
465 0.499776
470 0.445137
475 0.377965
480 0.383722
485 0.423504
490 0.480438
495 0.45541
500 0.312269
505 0.331022
510 0.497843
515 0.567865
520 0.529127
525 0.729195
530 0.903719
535 1.27293
540 24.1101
545 487.316
550 824.948
555 229.504
560 28.1251
565 4.28944
570 1.38492
575 0.974817
580 0.76718
585 0.632294
590 0.760198
595 0.505145
600 0.432723
Ex : 558
200 0.361777
205 0.376988
210 0.287402
215 0.388504
220 0.483245
225 0.450952
230 0.338605
235 0.248706
240 0.39752
245 0.291089
250 0.285205
255 0.317954
260 0.275949
265 0.317368
270 0.368293
275 0.31683
280 0.398556
285 0.438347
290 0.402049
295 0.362215
300 0.345995
305 0.306687
310 0.304121
315 0.411297
320 0.351143
325 0.39072
330 0.359376
335 0.320407
340 0.324684
345 0.322561
350 0.436961
355 0.369208
360 0.432277
365 0.35533
370 0.31103
375 0.392817
380 0.379922
385 0.365897
390 0.408809
395 0.420304
400 0.435904
405 0.407055
410 0.411865
415 0.45943
420 0.341568
425 0.315065
430 0.409774
435 0.310897
440 0.380643
445 0.44524
450 0.374189
455 0.341223
460 0.465933
465 0.409616
470 0.414528
475 0.362132
480 0.437365
485 0.409074
490 0.417713
495 0.553636
500 0.492708
505 0.429574
510 0.477824
515 0.429018
520 0.532359
525 0.556387
530 0.669623
535 0.76827
540 1.31777
545 22.7981
550 453.074
555 802.911
560 226.463
565 27.746
570 4.17968
575 1.26587
580 0.940952
585 0.80707
590 0.669566
595 0.569614
600 0.962032
Ex : 563
200 0.411738
205 0.313785
210 0.311566
215 0.279073
220 0.313509
225 0.31893
230 0.392359
235 0.368473
240 0.385319
245 0.392135
250 0.307929
255 0.332797
260 0.287116
265 0.329476
270 0.408284
275 0.409848
280 0.350286
285 0.407968
290 0.316661
295 0.291115
300 0.400628
305 0.39291
310 0.373192
315 0.337193
320 0.354747
325 0.325128
330 0.251336
335 0.32364
340 0.409083
345 0.350281
350 0.399533
355 0.330784
360 0.32243
365 0.485047
370 0.428557
375 0.383384
380 0.375666
385 0.388495
390 0.263555
395 0.361689
400 0.344996
405 0.440167
410 0.291595
415 0.363388
420 0.384355
425 0.3762
430 0.383185
435 0.389685
440 0.391777
445 0.501387
450 0.523992
455 0.352807
460 0.464328
465 0.495194
470 0.478431
475 0.429606
480 0.418128
485 0.569581
490 0.444462
495 0.409192
500 0.434101
505 0.420062
510 0.424985
515 0.438629
520 0.597152
525 0.502311
530 0.552091
535 0.689844
540 1.01995
545 1.17617
550 22.7762
555 442.779
560 766.235
565 225.106
570 27.2587
575 3.96978
580 1.13843
585 0.957701
590 0.808092
595 0.653388
600 1.04577
Ex : 568
200 0.48161
205 0.59444
210 0.390967
215 0.363009
220 0.460891
225 0.297226
230 0.305602
235 0.327429
240 0.428072
245 0.348112
250 0.471881
255 0.417807
260 0.331522
265 0.294137
270 0.347805
275 0.308935
280 0.259536
285 0.278823
290 0.397857
295 0.301533
300 0.304289
305 0.382884
310 0.364397
315 0.30698
320 0.298226
325 0.336543
330 0.33633
335 0.415862
340 0.462344
345 0.357289
350 0.382065
355 0.297618
360 0.427457
365 0.509169
370 0.459509
375 0.555313
380 0.382142
385 0.413075
390 0.37754
395 0.398812
400 0.41595
405 0.32605
410 0.381862
415 0.498547
420 0.391617
425 0.376333
430 0.44261
435 0.46644
440 0.420832
445 0.366128
450 0.483789
455 0.461195
460 0.421189
465 0.462431
470 0.474711
475 0.491807
480 0.453634
485 0.42523
490 0.410584
495 0.353486
500 0.355168
505 0.565073
510 0.512557
515 0.524897
520 0.561109
525 0.599673
530 0.77238
535 0.744274
540 0.67675
545 0.840778
550 1.15288
555 17.1275
560 399.458
565 740.884
570 219.577
575 26.6915
580 3.94448
585 1.1031
590 0.806013
595 0.626257
600 0.922488
Ex : 573
200 0.471787
205 0.502458
210 0.423764
215 0.33786
220 0.282121
225 0.324959
230 0.334795
235 0.490051
240 0.347825
245 0.317519
250 0.314191
255 0.396885
260 0.317035
265 0.344428
270 0.485657
275 0.478363
280 0.316174
285 0.406885
290 0.378574
295 0.247875
300 0.391514
305 0.35311
310 0.39078
315 0.381046
320 0.607114
325 0.293533
330 0.33501
335 0.419981
340 0.467505
345 0.499533
350 0.400077
355 0.367874
360 0.297534
365 0.377044
370 0.393176
375 0.432537
380 0.585747
385 0.418762
390 0.394448
395 0.442344
400 0.415727
405 0.418101
410 0.505029
415 0.36204
420 0.482653
425 0.465723
430 0.426717
435 0.447745
440 0.520607
445 0.372878
450 0.473484
455 0.367485
460 0.46629
465 0.351735
470 0.412719
475 0.411696
480 0.505743
485 0.447309
490 0.453096
495 0.452736
500 0.371278
505 0.475007
510 0.402981
515 0.4665
520 0.477647
525 0.453603
530 0.50834
535 0.582082
540 0.58673
545 0.710902
550 0.747312
555 1.01553
560 15.0861
565 340.267
570 675.892
575 212.298
580 25.904
585 3.62885
590 0.995941
595 0.70614
600 0.906681
Ex : 578
200 0.337771
205 0.345778
210 0.360838
215 0.354864
220 0.305215
225 0.281178
230 0.363417
235 0.378323
240 0.310868
245 0.310246
250 0.352471
255 0.299343
260 0.408608
265 0.368191
270 0.327141
275 0.403255
280 0.339021
285 0.429534
290 0.327727
295 0.317257
300 0.32146
305 0.417013
310 0.351658
315 0.32309
320 0.383246
325 0.370303
330 0.319595
335 0.367313
340 0.359912
345 0.370656
350 0.319072
355 0.247436
360 0.3688
365 0.428213
370 0.461759
375 0.369058
380 0.365189
385 0.364804
390 0.409452
395 0.448903
400 0.403903
405 0.336778
410 0.349314
415 0.51273
420 0.389563
425 0.37777
430 0.46871
435 0.435238
440 0.440187
445 0.428902
450 0.346631
455 0.42129
460 0.316309
465 0.368911
470 0.363739
475 0.412969
480 0.489065
485 0.522621
490 0.447389
495 0.392872
500 0.457826
505 0.467613
510 0.369048
515 0.480404
520 0.487438
525 0.353875
530 0.511437
535 0.531088
540 0.612114
545 0.566683
550 0.717355
555 0.767916
560 0.96177
565 13.721
570 306.8
575 590.758
580 181.588
585 22.1818
590 3.18603
595 0.945571
600 0.326869
Ex : 583
200 0.298338
205 0.327736
210 0.309435
215 0.437783
220 0.458008
225 0.430814
230 0.386062
235 0.322519
240 0.294687
245 0.30415
250 0.325406
255 0.294266
260 0.437781
265 0.458765
270 0.399918
275 0.283178
280 0.334578
285 0.337728
290 0.412684
295 0.318765
300 0.387222
305 0.398242
310 0.322219
315 0.460767
320 0.441725
325 0.308565
330 0.40521
335 0.409188
340 0.458906
345 0.431416
350 0.378046
355 0.417629
360 0.309568
365 0.322327
370 0.436513
375 0.386401
380 0.520608
385 0.375592
390 0.408104
395 0.350883
400 0.39911
405 0.531713
410 0.484568
415 0.39223
420 0.416131
425 0.396635
430 0.441503
435 0.338766
440 0.290492
445 0.276056
450 0.393229
455 0.43796
460 0.500399
465 0.404176
470 0.311552
475 0.482418
480 0.350754
485 0.406536
490 0.432202
495 0.402876
500 0.440353
505 0.586689
510 0.470493
515 0.416278
520 0.425873
525 0.525719
530 0.450169
535 0.415642
540 0.43026
545 0.466328
550 0.61275
555 0.735027
560 0.871296
565 0.995179
570 11.6667
575 277.975
580 515.653
585 152.747
590 18.7883
595 2.89253
600 0.48741
Ex : 588
200 0.384091
205 0.443323
210 0.370532
215 0.38453
220 0.391578
225 0.359155
230 0.346006
235 0.372921
240 0.310026
245 0.372285
250 0.491811
255 0.310779
260 0.236151
265 0.342041
270 0.354585
275 0.296883
280 0.438674
285 0.381129
290 0.366408
295 0.48472
300 0.42702
305 0.416701
310 0.414049
315 0.343093
320 0.399567
325 0.314918
330 0.346899
335 0.408455
340 0.455787
345 0.529463
350 0.394782
355 0.453281
360 0.3365
365 0.485059
370 0.350077
375 0.332986
380 0.371743
385 0.395537
390 0.329834
395 0.458105
400 0.346327
405 0.375319
410 0.533379
415 0.449152
420 0.387947
425 0.386114
430 0.38203
435 0.415107
440 0.383282
445 0.499494
450 0.476356
455 0.412181
460 0.463602
465 0.446607
470 0.492828
475 0.363402
480 0.414559
485 0.55005
490 0.410589
495 0.478165
500 0.418942
505 0.512341
510 0.508224
515 0.467345
520 0.499111
525 0.453289
530 0.4015
535 0.47803
540 0.452314
545 0.573246
550 0.647596
555 0.715277
560 0.619128
565 0.737856
570 0.773845
575 10.0632
580 228.346
585 440.857
590 137.445
595 16.7635
600 2.05098
Ex : 593
200 0.347189
205 0.481135
210 0.307437
215 0.344061
220 0.40256
225 0.478065
230 0.33957
235 0.343852
240 0.269814
245 0.424155
250 0.486927
255 0.301433
260 0.304675
265 0.392551
270 0.267739
275 0.406428
280 0.41162
285 0.393024
290 0.396713
295 0.39561
300 0.472147
305 0.391314
310 0.358095
315 0.445717
320 0.420984
325 0.319303
330 0.368558
335 0.385167
340 0.396354
345 0.373466
350 0.415035
355 0.352523
360 0.49626
365 0.473951
370 0.569382
375 0.352499
380 0.359717
385 0.317383
390 0.422277
395 0.41841
400 0.324942
405 0.540249
410 0.406914
415 0.404663
420 0.417064
425 0.341714
430 0.445635
435 0.301729
440 0.445007
445 0.293893
450 0.491746
455 0.352178
460 0.419059
465 0.378764
470 0.499472
475 0.527863
480 0.444509
485 0.295354
490 0.484434
495 0.508381
500 0.399941
505 0.511164
510 0.42975
515 0.398821
520 0.538848
525 0.463634
530 0.513546
535 0.504813
540 0.45328
545 0.502152
550 0.625896
555 0.475775
560 0.527841
565 0.507206
570 0.691142
575 0.937216
580 8.70242
585 200.718
590 380.361
595 114.237
600 19.0488
Ex : 598
200 0.487969
205 0.457524
210 0.360854
215 0.330062
220 0.327195
225 0.505248
230 0.413533
235 0.444967
240 0.361815
245 0.4246
250 0.519874
255 0.519271
260 0.389979
265 0.528506
270 0.369132
275 0.599004
280 0.411763
285 0.347984
290 0.383689
295 0.383506
300 0.456049
305 0.51841
310 0.301493
315 0.414209
320 0.32282
325 0.304224
330 0.364966
335 0.370008
340 0.36264
345 0.343483
350 0.391889
355 0.513469
360 0.30695
365 0.393611
370 0.440051
375 0.390105
380 0.302919
385 0.319353
390 0.490442
395 0.43593
400 0.398137
405 0.37654
410 0.52497
415 0.355938
420 0.294463
425 0.578033
430 0.582918
435 0.427488
440 0.515538
445 0.406616
450 0.366842
455 0.377275
460 0.408363
465 0.479798
470 0.38153
475 0.412725
480 0.529081
485 0.505703
490 0.464089
495 0.456147
500 0.368532
505 0.42699
510 0.45186
515 0.519791
520 0.621296
525 0.6476
530 0.425643
535 0.449968
540 0.595888
545 0.438554
550 0.506597
555 0.520553
560 0.575816
565 0.654271
570 0.699807
575 0.708881
580 0.816482
585 8.6238
590 182.704
595 333.384
600 213.706
Ex : 603
200 0.329911
205 0.31993
210 0.266263
215 0.309502
220 0.383978
225 0.399646
230 0.445728
235 0.418978
240 0.402979
245 0.382963
250 0.39097
255 0.431488
260 0.347504
265 0.305834
270 0.23142
275 0.497876
280 0.430919
285 0.482646
290 0.488924
295 0.599639
300 0.315737
305 0.577758
310 0.396359
315 0.499344
320 0.510916
325 0.415556
330 0.465016
335 0.357767
340 0.442656
345 0.463233
350 0.490719
355 0.495173
360 0.380261
365 0.466698
370 0.511533
375 0.44728
380 0.355398
385 0.378223
390 0.486588
395 0.523781
400 0.455923
405 0.49079
410 0.375019
415 0.37857
420 0.394952
425 0.352802
430 0.300796
435 0.382253
440 0.442728
445 0.438084
450 0.458856
455 0.56498
460 0.618749
465 0.478673
470 0.45781
475 0.463581
480 0.592826
485 0.444547
490 0.49182
495 0.44614
500 0.442393
505 0.474904
510 0.409451
515 0.392012
520 0.336841
525 0.389735
530 0.463639
535 0.430912
540 0.577044
545 0.492018
550 0.506162
555 0.4006
560 0.472844
565 0.487178
570 0.496385
575 0.769485
580 0.720465
585 0.762748
590 7.43281
595 159.944
600 330.964
