File format V 1.0
jeu. 5. janv. 19:26:02 2017
Operator : 
Comments : 

=============================================
SpectroFluorometer parameters
Mode : 3D measurement
Data : Fluorescence
Phospho. : Ordinary
Spectrum : Fluorescence

Scan speed : 2400 nm/mn
Response : 100 ms
PM Voltage : 700 V
Shutter : On

Lambda Ex. Start : 203
Lambda Ex. End : 603
Lambda Ex. Step : 5
Ex. Slit : 5 nm

Lambda Em. Start : 200
Lambda Em. End : 600
Lambda Em. Step : 5
Em. Slit : 5 nm

Repetition : 1
Decal lambda em : 10
=============================================
DATA
Ex : 203
200 8.73333
205 5.86273
210 5.34759
215 4.33277
220 2.88532
225 4.59973
230 6.8812
235 9.08773
240 4.30338
245 5.26478
250 6.81244
255 4.95871
260 10.8644
265 3.40703
270 5.20644
275 3.61724
280 4.89803
285 4.18085
290 6.85224
295 5.17593
300 4.2312
305 6.37757
310 5.58691
315 5.09752
320 8.80405
325 4.56223
330 4.87847
335 5.46461
340 4.08738
345 4.63612
350 3.85215
355 3.45951
360 9.5928
365 6.37864
370 6.24336
375 5.84943
380 6.1739
385 3.79709
390 4.81728
395 4.64624
400 5.10412
405 7.39088
410 4.70957
415 4.44745
420 14.8706
425 8.46499
430 8.25503
435 4.94816
440 8.63974
445 5.00822
450 6.01152
455 5.84433
460 7.30065
465 5.49527
470 4.25203
475 9.28923
480 3.7562
485 4.08762
490 4.91103
495 8.48453
500 5.14332
505 5.06582
510 3.18585
515 6.68257
520 5.08129
525 6.13817
530 6.61137
535 4.19759
540 5.68474
545 6.5198
550 5.48542
555 4.74767
560 3.61244
565 7.46154
570 7.40067
575 5.15146
580 4.79948
585 5.18721
590 4.00363
595 10.4008
600 13.295
Ex : 208
200 6.47541
205 4.02568
210 5.16516
215 7.95698
220 5.40589
225 6.18633
230 6.90741
235 3.99377
240 3.89275
245 3.26925
250 4.40452
255 6.77678
260 6.06418
265 8.72956
270 8.61887
275 5.41676
280 6.42478
285 9.17277
290 6.6996
295 10.5657
300 4.21753
305 4.57928
310 4.67227
315 4.34535
320 6.39115
325 5.3144
330 5.07583
335 6.07885
340 5.02764
345 5.65234
350 5.03731
355 7.07877
360 5.32469
365 7.36066
370 3.74943
375 4.12327
380 3.34071
385 3.67556
390 3.97891
395 8.7872
400 4.47263
405 6.22379
410 4.10128
415 6.18448
420 4.6209
425 8.1249
430 5.64932
435 6.11929
440 7.71706
445 4.61523
450 9.0445
455 6.81977
460 2.62111
465 4.40279
470 6.86513
475 6.0262
480 4.45818
485 5.53424
490 5.90602
495 4.69895
500 4.38778
505 3.84947
510 5.6986
515 7.40578
520 3.69886
525 4.67276
530 6.37767
535 9.13126
540 4.6416
545 5.05531
550 6.49696
555 8.25565
560 3.21036
565 10.6674
570 5.47843
575 2.70831
580 5.38466
585 4.38788
590 3.66177
595 9.53721
600 8.17493
Ex : 213
200 4.77487
205 4.028
210 3.46593
215 4.37248
220 5.4551
225 6.87343
230 7.70924
235 3.69942
240 4.8999
245 4.63934
250 3.72239
255 8.19731
260 4.94709
265 7.11454
270 7.52506
275 5.36236
280 3.77305
285 5.10601
290 5.78995
295 5.12534
300 3.84609
305 5.56463
310 4.3188
315 5.59893
320 5.13708
325 4.3411
330 5.17678
335 6.09551
340 8.26846
345 6.78002
350 3.94504
355 5.42454
360 8.98866
365 7.68978
370 3.98154
375 5.85942
380 6.72171
385 5.72867
390 6.51724
395 6.56526
400 3.38591
405 6.50685
410 4.60367
415 7.28509
420 5.70055
425 5.85387
430 4.51754
435 6.00208
440 6.77887
445 5.12469
450 8.58507
455 6.34987
460 5.02416
465 5.14795
470 5.45275
475 5.79262
480 9.56267
485 6.31213
490 5.97851
495 4.48517
500 5.66464
505 2.52522
510 8.75947
515 6.79361
520 4.80911
525 9.23504
530 6.15047
535 6.865
540 8.86009
545 6.61924
550 3.82204
555 2.23252
560 5.19363
565 5.70537
570 6.04376
575 3.96476
580 4.35704
585 4.27535
590 5.61039
595 4.48028
600 0.509839
Ex : 218
200 3.20321
205 3.98597
210 4.38582
215 4.53853
220 2.72438
225 4.23682
230 6.64617
235 4.06791
240 7.58779
245 4.3873
250 2.51146
255 4.93588
260 5.55215
265 7.22358
270 7.59301
275 5.19052
280 2.67693
285 3.42966
290 9.66171
295 6.84338
300 4.07793
305 4.34972
310 10.0963
315 5.0068
320 3.94454
325 8.2331
330 4.92222
335 8.48115
340 5.36028
345 3.03
350 6.39389
355 6.53063
360 2.9509
365 3.77875
370 2.90846
375 4.44018
380 3.75945
385 5.97389
390 3.76624
395 4.91346
400 5.77001
405 5.85996
410 6.38412
415 3.71314
420 7.66972
425 5.70159
430 3.87138
435 8.3062
440 4.57865
445 6.71954
450 6.64539
455 5.14192
460 5.35161
465 6.20225
470 6.0435
475 6.64443
480 6.14973
485 4.93549
490 6.3093
495 6.34154
500 4.63282
505 6.43977
510 5.83813
515 4.20917
520 8.51629
525 4.38319
530 4.46145
535 3.32786
540 9.6886
545 3.92452
550 8.27307
555 5.46985
560 5.51484
565 4.35592
570 6.19559
575 2.91539
580 3.57116
585 5.07304
590 5.28402
595 4.293
600 1.59628
Ex : 223
200 7.02094
205 5.56781
210 4.20845
215 4.03849
220 5.07154
225 5.25512
230 3.9307
235 5.35129
240 6.07468
245 4.73132
250 6.45265
255 5.03384
260 3.71483
265 3.59187
270 3.81988
275 3.30319
280 4.44875
285 9.46888
290 4.67392
295 5.04998
300 9.02178
305 4.92896
310 4.53482
315 5.18507
320 3.39718
325 4.39336
330 5.3396
335 3.08222
340 4.02147
345 5.22343
350 5.91163
355 4.93824
360 10.7557
365 4.94885
370 3.64811
375 2.22428
380 5.67162
385 4.44911
390 7.24523
395 6.52878
400 5.82352
405 3.64529
410 8.41035
415 7.26891
420 10.4269
425 9.19081
430 6.24729
435 4.58117
440 3.42118
445 4.13903
450 6.25039
455 4.91481
460 7.93955
465 6.85372
470 6.91518
475 8.4706
480 6.28618
485 5.41977
490 8.85163
495 6.40416
500 8.7046
505 4.38611
510 4.83009
515 6.24051
520 4.16433
525 3.64159
530 4.74528
535 7.15505
540 5.61043
545 8.83471
550 4.78462
555 2.36639
560 4.99721
565 7.13845
570 4.59591
575 7.84691
580 5.23319
585 7.76571
590 5.73717
595 5.46099
600 0.62144
Ex : 228
200 8.48663
205 5.71108
210 2.86102
215 5.55096
220 4.74553
225 2.32579
230 3.46409
235 4.98053
240 3.85505
245 4.53257
250 5.05701
255 4.43806
260 6.38321
265 4.19064
270 5.90889
275 3.3
280 4.76962
285 4.24552
290 4.70378
295 4.72199
300 4.95918
305 5.35074
310 3.92691
315 5.21977
320 6.45252
325 5.43206
330 3.15214
335 5.21374
340 7.1302
345 5.61952
350 4.7751
355 4.82366
360 4.26509
365 5.09361
370 5.66054
375 3.18428
380 5.48265
385 6.65194
390 4.64367
395 4.49456
400 4.19095
405 5.10079
410 2.45185
415 5.60045
420 5.48644
425 7.52995
430 7.55756
435 6.18643
440 3.70159
445 5.05014
450 8.17137
455 5.88008
460 3.52419
465 7.08165
470 6.65393
475 5.32564
480 5.09909
485 4.20831
490 5.80085
495 4.67602
500 4.37525
505 5.57342
510 5.45096
515 4.36781
520 4.66171
525 4.77972
530 4.29778
535 3.9865
540 5.11999
545 3.89023
550 4.6974
555 3.31193
560 4.40982
565 6.10832
570 5.18975
575 4.25261
580 4.10931
585 5.03044
590 4.41895
595 4.24094
600 0.482603
Ex : 233
200 3.1381
205 3.7478
210 5.51691
215 5.64528
220 3.01204
225 5.80839
230 4.86208
235 3.21622
240 3.94843
245 5.77088
250 5.78244
255 4.63939
260 2.09303
265 2.17486
270 5.12575
275 8.71325
280 4.7735
285 5.01544
290 2.68199
295 2.55345
300 4.64393
305 3.53991
310 2.7787
315 4.90135
320 6.63582
325 2.89565
330 5.08957
335 6.59939
340 3.6659
345 5.96265
350 6.83914
355 6.22331
360 4.25748
365 4.04953
370 7.20894
375 3.50026
380 5.53486
385 4.02336
390 6.26969
395 2.96172
400 4.02465
405 7.29575
410 4.32679
415 3.48178
420 4.64999
425 5.59713
430 4.38755
435 6.18142
440 6.99463
445 5.43085
450 3.71542
455 3.34464
460 2.91144
465 4.78892
470 4.93296
475 5.58745
480 6.7717
485 4.42461
490 6.36178
495 5.01894
500 5.50856
505 3.86507
510 4.98757
515 4.26077
520 4.46847
525 2.50245
530 5.57631
535 4.62866
540 3.61528
545 4.07609
550 3.60736
555 5.9297
560 4.74089
565 7.04598
570 5.51783
575 4.66847
580 5.3094
585 8.39559
590 3.14244
595 5.34787
600 10.5784
Ex : 238
200 4.58182
205 2.84538
210 5.29273
215 3.55885
220 3.4434
225 3.97374
230 3.45411
235 2.42041
240 3.29022
245 2.58025
250 3.99205
255 5.64107
260 3.55885
265 2.49249
270 1.93107
275 3.93811
280 3.99296
285 6.25709
290 5.36932
295 4.0088
300 3.64267
305 3.09257
310 5.99287
315 5.17233
320 2.12225
325 5.91977
330 4.98785
335 4.05307
340 5.8429
345 7.95754
350 2.43863
355 3.76049
360 5.73179
365 2.50298
370 3.16406
375 4.34587
380 4.9381
385 3.79203
390 4.38765
395 3.62639
400 4.11685
405 3.69761
410 3.4962
415 5.09173
420 4.09726
425 3.42027
430 4.66874
435 3.24156
440 4.37022
445 3.05918
450 4.39988
455 2.59998
460 7.4256
465 5.02402
470 6.37635
475 4.07692
480 4.2469
485 4.35894
490 4.59021
495 7.4056
500 4.57553
505 3.49983
510 3.97065
515 4.06884
520 2.87851
525 4.53115
530 3.19756
535 3.50724
540 3.39005
545 4.28582
550 6.38902
555 4.93351
560 3.32307
565 5.38938
570 2.34439
575 5.90698
580 9.1031
585 5.0641
590 2.99645
595 4.24332
600 1.07368
Ex : 243
200 3.1581
205 4.4366
210 4.50514
215 4.41196
220 4.54037
225 5.21213
230 7.84724
235 3.39718
240 5.06783
245 2.28202
250 3.99804
255 3.03695
260 3.418
265 3.24944
270 5.24907
275 2.44477
280 4.39704
285 4.80222
290 3.63074
295 2.38896
300 2.83466
305 5.33483
310 3.69849
315 2.40308
320 1.99904
325 2.23551
330 3.41495
335 4.53126
340 4.11796
345 3.14807
350 4.81621
355 5.07272
360 2.85803
365 4.53993
370 4.1414
375 4.02299
380 3.10309
385 4.53894
390 6.47263
395 3.82136
400 3.77311
405 3.54786
410 3.70335
415 4.65279
420 3.92717
425 6.03737
430 4.65042
435 3.31987
440 4.60625
445 5.07524
450 4.46679
455 2.79794
460 2.82041
465 3.1453
470 4.97735
475 3.59113
480 3.68726
485 4.96606
490 3.05344
495 5.62599
500 4.83444
505 6.91254
510 4.20183
515 4.59799
520 3.27833
525 4.77712
530 3.23874
535 4.45952
540 3.08186
545 2.40192
550 5.3009
555 4.09453
560 2.74574
565 2.36561
570 4.36566
575 2.59642
580 3.53542
585 4.92299
590 3.28565
595 3.80237
600 0.432696
Ex : 248
200 1.5798
205 1.7018
210 2.718
215 1.97708
220 2.05475
225 1.98919
230 2.67978
235 1.9709
240 2.45003
245 2.77163
250 5.96995
255 3.31199
260 2.75625
265 3.0704
270 5.00488
275 2.70278
280 2.16028
285 2.15628
290 1.97912
295 1.02632
300 1.45217
305 2.69389
310 3.57387
315 2.83477
320 4.1206
325 4.28264
330 2.76155
335 2.71463
340 3.26392
345 2.95001
350 3.41646
355 2.71355
360 3.3318
365 3.01644
370 3.31301
375 3.02447
380 3.3502
385 4.45307
390 2.60114
395 6.47481
400 2.9001
405 4.75809
410 3.41106
415 3.89445
420 3.14168
425 4.75308
430 3.19949
435 2.94214
440 2.6941
445 2.05612
450 3.30538
455 2.77537
460 2.71413
465 2.06132
470 2.66875
475 3.29538
480 2.15648
485 3.50305
490 3.46036
495 2.20991
500 2.83251
505 2.42594
510 3.01731
515 6.53801
520 3.79891
525 3.82738
530 3.59354
535 4.69747
540 3.977
545 4.26856
550 2.29792
555 2.41534
560 2.83003
565 1.96046
570 1.85323
575 2.62432
580 1.83292
585 3.85869
590 5.52208
595 2.52273
600 0.287077
Ex : 253
200 3.57527
205 3.65046
210 1.78324
215 2.44672
220 2.2699
225 2.09243
230 3.42379
235 2.57558
240 2.93461
245 1.86488
250 3.07366
255 1.66439
260 2.68216
265 1.71714
270 2.24431
275 2.67093
280 3.33018
285 1.13927
290 2.29412
295 1.97439
300 2.90091
305 1.02246
310 0.787193
315 2.38643
320 1.68411
325 2.2254
330 3.47981
335 2.83305
340 2.75413
345 1.61694
350 2.37772
355 2.86327
360 3.4765
365 3.33206
370 3.53346
375 4.103
380 2.27816
385 4.1295
390 4.65572
395 3.57777
400 6.2521
405 3.69883
410 4.01944
415 2.60749
420 3.93587
425 2.46567
430 2.47487
435 3.62321
440 1.89336
445 1.91155
450 2.40465
455 3.29588
460 4.02943
465 3.62252
470 3.14631
475 2.67674
480 2.12314
485 3.7889
490 4.61628
495 1.91305
500 3.09724
505 3.46041
510 2.92083
515 2.75751
520 3.10683
525 2.87788
530 1.93855
535 1.69842
540 2.23702
545 2.63486
550 3.5818
555 2.20701
560 2.89253
565 3.41118
570 2.58282
575 3.67892
580 3.0894
585 2.65809
590 2.32352
595 5.17095
600 0.588434
Ex : 258
200 1.47588
205 2.29254
210 1.5689
215 2.09211
220 2.49441
225 1.4916
230 1.24261
235 1.50404
240 1.57318
245 1.95337
250 3.24849
255 2.7381
260 1.20742
265 2.65537
270 1.11469
275 1.04286
280 1.98913
285 2.858
290 3.10855
295 2.61131
300 1.19898
305 1.34803
310 2.37091
315 1.75279
320 2.97358
325 1.16471
330 1.73927
335 2.14031
340 2.38123
345 2.24907
350 1.84331
355 1.39769
360 2.2772
365 2.10002
370 1.59561
375 2.14899
380 1.90618
385 2.82002
390 1.58992
395 3.69835
400 2.20527
405 1.61879
410 2.19675
415 4.2928
420 3.67241
425 1.7559
430 3.19546
435 2.79875
440 1.58674
445 3.44187
450 3.24302
455 1.33132
460 2.39377
465 1.84831
470 1.89768
475 1.74307
480 2.90863
485 2.34773
490 1.37884
495 1.4852
500 3.01311
505 2.53082
510 3.40964
515 3.10713
520 2.19339
525 1.64877
530 1.80087
535 2.30895
540 1.86766
545 2.49351
550 3.32801
555 1.78187
560 1.55908
565 2.67835
570 1.62411
575 1.54472
580 2.4872
585 2.88363
590 1.66141
595 2.08377
600 0.237126
Ex : 263
200 1.82716
205 1.31799
210 1.63008
215 1.55919
220 2.43267
225 1.58025
230 2.48365
235 2.2549
240 1.665
245 2.4738
250 1.34772
255 1.65792
260 1.48588
265 2.43366
270 1.94954
275 1.40867
280 1.45715
285 1.31879
290 1.90392
295 0.999601
300 1.33573
305 1.37705
310 0.550053
315 0.83522
320 1.91282
325 1.11466
330 2.14362
335 1.22197
340 1.89471
345 3.24816
350 1.29067
355 2.05992
360 1.46146
365 1.35104
370 1.78509
375 1.66777
380 2.97677
385 1.48399
390 1.35449
395 1.86882
400 1.83384
405 2.07939
410 2.40775
415 2.12905
420 1.59051
425 1.57876
430 1.56096
435 1.73623
440 1.89752
445 2.2508
450 1.54251
455 1.55217
460 1.94282
465 2.7405
470 1.80836
475 3.28837
480 1.40633
485 1.98413
490 1.7459
495 1.25432
500 1.60551
505 2.30195
510 1.71612
515 1.77649
520 2.07927
525 1.86564
530 2.56894
535 1.20905
540 2.05795
545 1.10813
550 1.77277
555 2.0768
560 2.20018
565 1.2765
570 1.89502
575 1.30051
580 1.67238
585 1.66834
590 1.36069
595 1.00885
600 0.114803
Ex : 268
200 0.798913
205 1.1498
210 1.23008
215 0.828434
220 1.1405
225 1.15566
230 1.01528
235 1.40644
240 1.1676
245 1.01907
250 2.08973
255 1.20086
260 1.43093
265 1.60215
270 2.47745
275 1.64077
280 1.51725
285 1.36891
290 0.746984
295 1.6165
300 1.37038
305 1.47245
310 0.837028
315 2.26804
320 1.40633
325 1.30553
330 1.20837
335 1.77831
340 1.46767
345 0.826798
350 1.42945
355 1.02295
360 0.801916
365 1.27444
370 1.26771
375 1.36143
380 2.24366
385 1.75448
390 1.96244
395 1.71048
400 2.98571
405 1.74433
410 2.64349
415 2.59811
420 1.25012
425 1.76837
430 1.18347
435 0.972386
440 1.53147
445 0.85967
450 1.89793
455 2.89756
460 1.2446
465 1.96011
470 1.83444
475 1.42605
480 1.6654
485 1.13859
490 1.01577
495 1.31478
500 1.4611
505 1.60165
510 1.01384
515 1.88173
520 1.07112
525 1.37543
530 1.28328
535 1.86328
540 1.3284
545 0.695775
550 1.42606
555 1.10387
560 0.789966
565 1.46154
570 1.07302
575 0.738332
580 1.71663
585 0.923169
590 1.28146
595 1.14646
600 0.130462
Ex : 273
200 0.704595
205 1.36576
210 1.30954
215 1.11949
220 1.08184
225 1.19814
230 1.44354
235 1.36144
240 1.00682
245 0.926437
250 1.05768
255 0.610831
260 0.431604
265 1.26777
270 1.32719
275 1.32184
280 1.54233
285 0.76994
290 0.759131
295 1.35239
300 0.815845
305 0.759716
310 0.833606
315 0.753099
320 0.929421
325 1.01151
330 1.53762
335 1.55384
340 0.997417
345 1.37894
350 1.10898
355 1.2607
360 1.97861
365 1.11825
370 1.32358
375 1.10702
380 1.17331
385 1.56216
390 0.958542
395 1.61264
400 1.55193
405 1.57968
410 1.33727
415 1.50899
420 1.36897
425 1.48804
430 1.66868
435 1.63529
440 0.896247
445 1.40443
450 1.20148
455 1.31601
460 0.915249
465 1.09814
470 1.52161
475 1.49612
480 1.14937
485 0.676989
490 1.30028
495 1.14348
500 0.884423
505 1.34764
510 1.18359
515 1.01991
520 0.95894
525 1.06958
530 0.908797
535 0.811391
540 1.66933
545 1.19675
550 0.848507
555 1.10236
560 0.693398
565 1.56082
570 0.999545
575 1.30937
580 1.09276
585 1.12931
590 0.763185
595 1.49458
600 0.170078
Ex : 278
200 0.349865
205 0.764301
210 0.641258
215 1.03431
220 0.494757
225 0.726358
230 0.634216
235 0.923415
240 0.568829
245 0.53775
250 0.470211
255 0.717762
260 0.628468
265 0.837165
270 0.743649
275 0.876957
280 1.01672
285 0.693485
290 0.57215
295 0.872431
300 1.36389
305 0.791763
310 0.502363
315 0.537464
320 0.682875
325 0.584685
330 0.836937
335 0.866655
340 1.1406
345 1.59029
350 0.929229
355 0.709494
360 1.16896
365 1.37709
370 0.776166
375 1.18361
380 1.14693
385 1.04471
390 0.891493
395 1.09822
400 1.43477
405 1.29867
410 0.797081
415 1.63574
420 1.04975
425 0.836975
430 0.815788
435 0.563504
440 0.875145
445 0.902886
450 1.07437
455 1.4373
460 1.37392
465 1.20902
470 1.36694
475 1.26954
480 1.27426
485 0.839576
490 1.49354
495 1.0348
500 0.911514
505 1.10986
510 0.873583
515 1.4328
520 0.68868
525 0.987726
530 0.870614
535 0.439735
540 0.658045
545 0.983852
550 0.943987
555 1.04295
560 1.01706
565 1.05758
570 0.755084
575 0.806726
580 0.566782
585 0.978019
590 0.964347
595 0.999204
600 0.113706
Ex : 283
200 0.329851
205 0.711427
210 0.575677
215 0.926412
220 0.81749
225 0.581207
230 0.430968
235 0.447702
240 0.588881
245 0.808177
250 0.748588
255 0.459023
260 0.387538
265 0.299391
270 0.672296
275 0.610628
280 0.689498
285 0.812236
290 0.526146
295 0.571634
300 0.395453
305 0.727965
310 1.55493
315 0.936357
320 0.561614
325 0.753105
330 0.899121
335 0.379089
340 0.69909
345 1.62452
350 0.866046
355 0.87604
360 0.848783
365 0.871933
370 0.792134
375 1.17187
380 0.881734
385 1.49247
390 0.735799
395 0.873111
400 0.949928
405 0.737383
410 0.822745
415 0.991671
420 0.790338
425 0.657725
430 1.1092
435 0.831867
440 0.851769
445 0.787519
450 0.612284
455 0.789214
460 1.67617
465 1.19435
470 0.888337
475 0.699489
480 0.615
485 0.69969
490 0.601732
495 1.10976
500 0.826341
505 0.984857
510 0.795092
515 1.07699
520 0.493201
525 0.951587
530 0.611812
535 1.17303
540 0.939187
545 1.24571
550 0.917861
555 0.665109
560 1.02495
565 1.10469
570 0.857819
575 0.799334
580 0.844169
585 0.69999
590 0.543986
595 0.419692
600 1.37706
Ex : 288
200 0.767209
205 0.486651
210 0.566269
215 0.259449
220 0.34563
225 0.334733
230 0.771733
235 1.13585
240 0.77188
245 0.773822
250 1.03976
255 0.565324
260 0.567806
265 0.650589
270 0.557368
275 0.59993
280 0.410099
285 0.680223
290 0.610909
295 0.516269
300 0.487935
305 0.529359
310 0.44649
315 0.593246
320 0.461928
325 0.622828
330 0.653978
335 0.825767
340 0.460311
345 0.629457
350 0.427446
355 0.648149
360 0.421628
365 0.459254
370 0.589422
375 1.31551
380 0.66349
385 0.509982
390 0.972158
395 1.37253
400 1.0919
405 1.15291
410 0.891832
415 0.750657
420 0.596181
425 1.0259
430 0.76603
435 0.744281
440 0.655312
445 0.767301
450 0.498944
455 0.975006
460 0.671126
465 0.8054
470 1.02675
475 0.655272
480 0.638515
485 0.670834
490 1.3198
495 0.49682
500 0.484933
505 0.492415
510 0.511113
515 0.589662
520 0.452841
525 0.534661
530 0.910496
535 0.756054
540 0.503532
545 0.899249
550 0.91235
555 0.653591
560 0.657215
565 0.588985
570 0.759319
575 0.611381
580 0.613037
585 0.441734
590 0.624772
595 0.709717
600 0.945352
Ex : 293
200 0.40412
205 0.422166
210 0.56713
215 0.529937
220 0.441805
225 0.281274
230 0.519972
235 0.415163
240 0.463498
245 0.442368
250 0.420857
255 0.451188
260 0.265908
265 0.39183
270 0.421404
275 0.422266
280 0.324961
285 0.470161
290 0.669211
295 0.783879
300 0.80699
305 0.369244
310 0.572603
315 0.598308
320 0.374099
325 0.596743
330 0.921607
335 0.480008
340 0.488972
345 0.522716
350 0.563082
355 0.391341
360 0.446057
365 0.606595
370 0.656836
375 0.801273
380 0.440077
385 0.615489
390 0.68797
395 0.867283
400 0.655871
405 0.640308
410 0.615323
415 0.610957
420 0.750929
425 0.583618
430 0.92675
435 0.71392
440 0.662118
445 0.511631
450 0.611921
455 0.476346
460 0.708794
465 0.626741
470 0.592089
475 0.664499
480 0.704985
485 0.836426
490 0.632017
495 0.599741
500 0.337673
505 0.266375
510 0.450471
515 0.551269
520 0.65907
525 0.454397
530 1.08753
535 0.593449
540 0.418499
545 0.543442
550 0.368732
555 0.334224
560 0.605692
565 0.475201
570 0.388581
575 0.605529
580 0.90485
585 0.652782
590 0.634117
595 0.507396
600 0.0577398
Ex : 298
200 0.536885
205 0.305057
210 0.658807
215 0.207529
220 0.261781
225 0.218933
230 0.391405
235 0.382122
240 0.466782
245 0.332822
250 0.626496
255 0.913434
260 0.282592
265 0.284005
270 0.55424
275 0.492958
280 0.416435
285 0.562274
290 0.563429
295 0.6519
300 0.276062
305 0.672638
310 0.283848
315 0.476432
320 0.432319
325 0.38709
330 0.630715
335 0.681166
340 0.446528
345 0.5891
350 0.498662
355 0.632108
360 0.53027
365 0.592643
370 0.639358
375 0.452675
380 0.696692
385 1.06016
390 0.568244
395 0.539827
400 0.438635
405 0.834992
410 0.834888
415 0.566808
420 0.545326
425 0.751326
430 0.491675
435 0.465603
440 0.559914
445 0.914652
450 1.04489
455 0.524434
460 0.415145
465 0.637771
470 0.482193
475 0.335674
480 0.290054
485 0.467764
490 0.651046
495 0.310899
500 0.371938
505 0.560928
510 0.619961
515 0.706598
520 0.407333
525 0.449098
530 0.247301
535 0.379511
540 0.318145
545 0.467451
550 0.555499
555 0.450545
560 0.283961
565 0.416308
570 0.355477
575 0.319078
580 0.562072
585 0.506242
590 0.462999
595 0.698461
600 0.0794822
Ex : 303
200 0.244744
205 0.435112
210 0.277496
215 0.480921
220 0.227836
225 0.258368
230 0.342641
235 0.386612
240 0.311133
245 0.3629
250 0.254853
255 0.373537
260 0.415534
265 0.339343
270 0.452369
275 0.408599
280 0.368103
285 0.255058
290 0.504194
295 0.426062
300 0.619538
305 0.517691
310 0.35537
315 0.479782
320 0.648237
325 0.309115
330 0.642083
335 0.486722
340 0.552397
345 0.331925
350 0.44043
355 0.352234
360 0.83939
365 0.644846
370 0.490752
375 0.650102
380 0.417842
385 0.628712
390 0.911013
395 0.431226
400 0.355658
405 0.586787
410 0.838698
415 0.542834
420 0.622554
425 0.665163
430 0.546555
435 0.544322
440 0.421242
445 0.48023
450 0.453069
455 0.681275
460 0.513527
465 0.460155
470 0.407343
475 0.479461
480 0.666743
485 0.451763
490 0.346102
495 0.55807
500 0.553072
505 0.475743
510 0.644232
515 0.311768
520 0.315931
525 0.289052
530 0.422259
535 0.433158
540 0.27511
545 0.335563
550 0.350169
555 0.618205
560 0.393022
565 0.527197
570 0.366946
575 0.391705
580 0.282649
585 0.298952
590 0.224324
595 0.617155
600 0.0702299
Ex : 308
200 0.398326
205 0.23636
210 0.151346
215 0.458775
220 0.28416
225 0.411962
230 0.323095
235 0.340653
240 0.50338
245 0.348862
250 0.315862
255 0.311617
260 0.536641
265 0.295188
270 0.240091
275 0.259845
280 0.300863
285 0.35045
290 0.227067
295 0.272611
300 0.412599
305 0.382139
310 0.245657
315 0.271986
320 0.337297
325 0.473536
330 0.468305
335 0.419783
340 0.479089
345 0.727749
350 0.584574
355 0.627702
360 0.597207
365 0.409569
370 0.645587
375 0.492245
380 0.473691
385 0.841056
390 0.68051
395 0.37821
400 0.871116
405 0.580176
410 0.596755
415 0.611026
420 0.660127
425 0.437012
430 0.568347
435 0.4796
440 0.534034
445 0.407506
450 0.466121
455 0.885864
460 0.709976
465 0.48274
470 0.330476
475 0.472477
480 0.42524
485 0.411265
490 0.373557
495 0.356056
500 0.237936
505 0.245904
510 0.418471
515 0.413203
520 0.423883
525 0.570336
530 0.42063
535 0.300448
540 0.297364
545 0.527581
550 0.315858
555 0.332063
560 0.422518
565 0.302961
570 0.346173
575 0.485434
580 0.405327
585 0.407777
590 0.314224
595 0.360122
600 0.0409805
Ex : 313
200 0.214976
205 0.458622
210 0.205498
215 0.590859
220 0.314512
225 0.40137
230 0.293963
235 0.198383
240 0.450762
245 0.244846
250 0.30577
255 0.266192
260 0.471217
265 0.566646
270 0.350965
275 0.226193
280 0.176278
285 0.208637
290 0.207198
295 0.288897
300 0.554188
305 0.520699
310 0.583414
315 0.282326
320 0.450907
325 0.413078
330 0.483667
335 0.515023
340 0.498603
345 0.353041
350 0.49348
355 0.501869
360 0.510017
365 0.619705
370 0.651998
375 0.637006
380 0.708486
385 0.855409
390 0.766997
395 0.6528
400 0.830214
405 0.858142
410 0.82631
415 0.926427
420 0.945612
425 0.832757
430 0.575044
435 0.831584
440 0.686973
445 0.636556
450 0.562338
455 0.634651
460 0.650382
465 0.376723
470 0.475969
475 0.622396
480 0.418842
485 0.482996
490 0.594214
495 0.377777
500 0.490961
505 0.480836
510 0.495386
515 0.405508
520 0.207943
525 0.36342
530 0.500391
535 0.274611
540 0.361579
545 0.467175
550 0.341111
555 0.504523
560 0.268813
565 0.290934
570 0.176779
575 0.318972
580 0.352741
585 0.282398
590 0.306547
595 0.219112
600 0.0249341
Ex : 318
200 0.157795
205 0.143244
210 0.185296
215 0.19871
220 0.376663
225 0.175553
230 0.348391
235 0.198801
240 0.206588
245 0.13659
250 0.256491
255 0.173364
260 0.258609
265 0.305062
270 0.25554
275 0.164809
280 0.172145
285 0.31894
290 0.378249
295 0.21441
300 0.23991
305 0.349079
310 0.50388
315 0.907352
320 0.474725
325 0.313369
330 0.567869
335 0.773584
340 0.686231
345 1.09939
350 1.495
355 1.87328
360 2.7168
365 3.6809
370 4.0512
375 4.75865
380 5.82651
385 5.98559
390 6.45499
395 7.20001
400 7.27356
405 7.14
410 7.42604
415 7.66745
420 7.36097
425 6.75047
430 6.51188
435 6.06785
440 5.5297
445 5.55074
450 5.38756
455 4.8608
460 4.54238
465 3.9906
470 3.73851
475 3.33529
480 3.13515
485 2.84759
490 2.43062
495 2.16285
500 1.94924
505 1.63657
510 1.45428
515 1.26061
520 1.20974
525 1.01859
530 0.934243
535 0.760756
540 0.72638
545 0.475807
550 0.499659
555 0.547599
560 0.308482
565 0.583221
570 0.461315
575 0.314789
580 0.230927
585 0.217397
590 0.193562
595 0.215059
600 0.0848958
Ex : 323
200 0.217381
205 0.22386
210 0.193123
215 0.354782
220 0.225887
225 0.166844
230 0.158302
235 0.198981
240 0.276242
245 0.171598
250 0.228235
255 0.290568
260 0.167592
265 0.267781
270 0.221934
275 0.246003
280 0.234739
285 0.200628
290 0.178233
295 0.195505
300 0.221986
305 0.435071
310 0.315264
315 6.89819
320 33.1489
325 14.581
330 3.18254
335 2.73647
340 3.66743
345 5.19188
350 7.76704
355 11.4489
360 12.8666
365 16.4758
370 18.8429
375 21.2394
380 24.459
385 26.7206
390 28.6548
395 29.9576
400 31.6414
405 32.6329
410 32.9931
415 32.4189
420 30.7883
425 31.654
430 29.5605
435 27.4051
440 26.4878
445 25.1492
450 23.2507
455 22.3637
460 21.0049
465 19.5155
470 17.6472
475 16.6871
480 15.1455
485 13.9168
490 12.074
495 10.294
500 9.27239
505 8.10787
510 7.02275
515 6.16149
520 5.22654
525 4.47722
530 3.53019
535 3.14904
540 2.5605
545 2.08459
550 1.91868
555 1.63866
560 1.57245
565 1.34669
570 0.995099
575 0.729607
580 0.508729
585 0.470801
590 0.339035
595 0.295192
600 0.642297
Ex : 328
200 0.18425
205 0.26905
210 0.193597
215 0.212181
220 0.163799
225 0.386447
230 0.244498
235 0.219455
240 0.185266
245 0.206087
250 0.362119
255 0.16236
260 0.316496
265 0.187497
270 0.258976
275 0.243282
280 0.229956
285 0.239202
290 0.2518
295 0.242718
300 0.389727
305 0.319067
310 0.270397
315 1.63135
320 74.2144
325 191.864
330 57.724
335 9.92411
340 5.92955
345 7.05774
350 8.90952
355 12.5637
360 17.7759
365 19.5102
370 21.1957
375 24.4628
380 27.221
385 31.1284
390 34.9317
395 35.95
400 37.0263
405 37.0556
410 38.7874
415 37.7729
420 35.396
425 34.1513
430 33.3435
435 31.7641
440 29.9313
445 28.7181
450 26.1385
455 24.933
460 23.5265
465 21.0777
470 19.6307
475 18.3308
480 16.4817
485 14.9776
490 13.8587
495 12.3215
500 10.7069
505 9.49877
510 8.44444
515 7.46262
520 6.44883
525 5.21536
530 4.85138
535 3.8522
540 3.53063
545 3.148
550 2.73952
555 2.0241
560 1.92531
565 1.41021
570 1.2519
575 1.05994
580 0.706233
585 0.77124
590 0.488684
595 0.464033
600 0.0528052
Ex : 333
200 0.130553
205 0.17581
210 0.1894
215 0.382134
220 0.248972
225 0.156287
230 0.202272
235 0.246435
240 0.189092
245 0.226658
250 0.163978
255 0.212201
260 0.165482
265 0.189175
270 0.0972236
275 0.183186
280 0.194925
285 0.184069
290 0.248116
295 0.196845
300 0.302327
305 0.224504
310 0.186755
315 0.275932
320 11.2026
325 218.416
330 381.966
335 101.039
340 15.401
345 6.31646
350 5.92637
355 6.61312
360 10.0409
365 14.7085
370 15.6797
375 14.9709
380 16.4856
385 18.867
390 20.7131
395 21.7011
400 22.4505
405 22.724
410 23.3732
415 23.6983
420 22.4832
425 20.1979
430 19.5157
435 18.2636
440 17.725
445 16.4245
450 15.1687
455 14.456
460 13.9688
465 12.2446
470 11.423
475 9.92879
480 9.12469
485 8.17735
490 7.82438
495 6.82416
500 6.34709
505 5.60663
510 4.47262
515 4.24811
520 3.84393
525 3.11049
530 2.79725
535 2.35595
540 2.35356
545 1.7623
550 1.36147
555 1.25461
560 1.15692
565 1.04514
570 0.778672
575 0.738724
580 0.535974
585 0.561254
590 0.643939
595 0.406771
600 0.278736
Ex : 338
200 0.138619
205 0.105551
210 0.160028
215 0.137568
220 0.099791
225 0.243273
230 0.189505
235 0.115628
240 0.158725
245 0.2006
250 0.119415
255 0.187981
260 0.0978508
265 0.143774
270 0.1328
275 0.182545
280 0.213068
285 0.207544
290 0.111256
295 0.220231
300 0.203663
305 0.230015
310 0.281099
315 0.313272
320 0.558495
325 21.2405
330 335.739
335 500.196
340 125.05
345 17.4085
350 5.80034
355 3.95081
360 3.72713
365 5.90314
370 10.0865
375 10.5606
380 10.0834
385 11.4006
390 12.3297
395 13.3267
400 13.2631
405 13.0141
410 13.8022
415 14.408
420 13.6071
425 12.1845
430 11.2121
435 10.7363
440 10.4178
445 10.415
450 9.43429
455 7.94214
460 7.76087
465 7.47748
470 6.86908
475 6.12781
480 5.64486
485 4.97518
490 4.57724
495 3.94642
500 3.8496
505 3.2945
510 2.9541
515 2.62427
520 2.05097
525 1.98475
530 1.80866
535 1.71931
540 1.54686
545 1.26913
550 1.35943
555 1.03899
560 0.92207
565 0.871046
570 0.654364
575 0.686782
580 0.517528
585 0.611461
590 0.314384
595 0.329542
600 0.0375007
Ex : 343
200 0.125282
205 0.15054
210 0.160871
215 0.246142
220 0.146296
225 0.207147
230 0.265635
235 0.143699
240 0.169618
245 0.176413
250 0.135573
255 0.17947
260 0.256329
265 0.198415
270 0.128392
275 0.202619
280 0.208092
285 0.126301
290 0.194901
295 0.227276
300 0.151268
305 0.226172
310 0.179097
315 0.214744
320 0.349427
325 0.567485
330 24.4015
335 389.941
340 573.463
345 138.809
350 19.0577
355 5.00979
360 3.11545
365 2.45632
370 3.37343
375 7.56434
380 9.41521
385 9.8644
390 10.2022
395 10.642
400 10.046
405 10.2023
410 11.8093
415 12.148
420 11.3207
425 9.70128
430 9.41885
435 9.077
440 8.64299
445 8.18857
450 7.54707
455 6.74625
460 6.22549
465 5.87537
470 5.71858
475 4.87956
480 4.46317
485 4.54218
490 3.7774
495 3.46205
500 3.0248
505 2.82852
510 2.47152
515 2.16201
520 1.93049
525 1.7709
530 1.74904
535 1.26973
540 1.32139
545 1.05201
550 1.17989
555 0.854407
560 0.925391
565 0.766723
570 0.825825
575 0.595757
580 0.414951
585 0.361955
590 0.349065
595 0.411097
600 0.101039
Ex : 348
200 0.100369
205 0.192412
210 0.13799
215 0.119753
220 0.152624
225 0.160874
230 0.160004
235 0.180389
240 0.180575
245 0.169645
250 0.101309
255 0.161879
260 0.134978
265 0.214301
270 0.214297
275 0.17125
280 0.126191
285 0.226284
290 0.162708
295 0.0945175
300 0.150103
305 0.21001
310 0.241525
315 0.218464
320 0.33527
325 0.428411
330 0.60641
335 24.5769
340 397.578
345 606.315
350 157.439
355 20.3197
360 4.64003
365 2.68051
370 1.83785
375 2.42287
380 7.09228
385 11.9165
390 13.17
395 13.0085
400 11.7168
405 12.0034
410 13.1628
415 14.232
420 13.0942
425 11.605
430 10.8308
435 10.403
440 10.2344
445 9.28509
450 8.30376
455 7.56079
460 7.05864
465 6.30469
470 5.90489
475 5.43009
480 4.92642
485 4.48615
490 4.15978
495 3.76062
500 3.38831
505 2.86325
510 2.51736
515 2.52443
520 2.13537
525 1.99323
530 1.58325
535 1.51151
540 1.20091
545 0.989877
550 1.05218
555 0.893419
560 0.911273
565 0.798248
570 0.750607
575 0.542939
580 0.430386
585 0.345559
590 0.426285
595 0.447907
600 1.41018
Ex : 353
200 0.116655
205 0.160751
210 0.17336
215 0.152567
220 0.120428
225 0.103725
230 0.245015
235 0.163351
240 0.11305
245 0.101387
250 0.109679
255 0.16546
260 0.139547
265 0.137689
270 0.170751
275 0.120669
280 0.146504
285 0.180467
290 0.146403
295 0.168668
300 0.23985
305 0.203067
310 0.266423
315 0.189712
320 0.231187
325 0.202985
330 0.437549
335 0.682269
340 25.5399
345 416.213
350 609.831
355 150.685
360 19.4948
365 4.44556
370 2.4539
375 2.00372
380 3.50258
385 8.26443
390 16.1973
395 16.4773
400 14.0403
405 12.6617
410 13.6588
415 16.4186
420 15.3457
425 13.4364
430 11.2975
435 11.0416
440 11.0011
445 10.304
450 8.97379
455 8.17514
460 7.20545
465 6.51505
470 6.35483
475 5.78334
480 5.17677
485 4.78579
490 4.35563
495 4.11066
500 3.54657
505 3.19901
510 3.11101
515 2.69285
520 2.28201
525 2.00634
530 1.89675
535 1.60121
540 1.49059
545 1.1758
550 1.13989
555 0.944399
560 0.94021
565 0.700835
570 0.74262
575 0.558297
580 0.583107
585 0.557087
590 0.29316
595 0.308262
600 0.035079
Ex : 358
200 0.131168
205 0.128703
210 0.114511
215 0.0925548
220 0.227357
225 0.141846
230 0.087532
235 0.12317
240 0.110493
245 0.106496
250 0.110209
255 0.144382
260 0.166922
265 0.182321
270 0.120967
275 0.0819178
280 0.095226
285 0.151504
290 0.133356
295 0.192552
300 0.224237
305 0.162613
310 0.121697
315 0.19717
320 0.154574
325 0.167938
330 0.205686
335 0.371051
340 0.794086
345 25.0488
350 399.938
355 623.828
360 157.994
365 20.062
370 4.08712
375 2.71327
380 3.1812
385 6.39462
390 11.2022
395 16.1049
400 14.9424
405 13.139
410 13.8125
415 15.0856
420 14.1134
425 11.8146
430 10.8195
435 10.4046
440 10.749
445 9.92636
450 9.05781
455 7.68195
460 7.38081
465 6.72168
470 6.53612
475 5.84233
480 5.57277
485 4.90874
490 4.61884
495 4.07994
500 3.65762
505 3.49007
510 3.05803
515 2.76607
520 2.20366
525 2.14463
530 1.85378
535 1.64719
540 1.61231
545 1.25426
550 1.17529
555 1.02108
560 0.977731
565 1.08627
570 0.593793
575 0.56489
580 0.487115
585 0.330378
590 0.321831
595 0.284067
600 0.131317
Ex : 363
200 0.122715
205 0.113916
210 0.107944
215 0.17047
220 0.171097
225 0.104764
230 0.127606
235 0.115511
240 0.18495
245 0.0874669
250 0.120067
255 0.149544
260 0.0712316
265 0.144737
270 0.216426
275 0.170518
280 0.128075
285 0.116293
290 0.166789
295 0.186009
300 0.142955
305 0.112255
310 0.127356
315 0.214993
320 0.14522
325 0.194234
330 0.200028
335 0.29323
340 0.380052
345 0.694552
350 22.9585
355 393.346
360 627.877
365 162.721
370 20.5335
375 4.45298
380 4.88768
385 8.09725
390 11.2456
395 12.9373
400 15.2287
405 16.1978
410 17.1496
415 16.9016
420 15.1516
425 12.958
430 11.2772
435 11.6258
440 11.3395
445 10.6419
450 8.89453
455 8.49691
460 7.88376
465 7.55528
470 6.70151
475 6.39324
480 5.70562
485 5.13503
490 5.00846
495 4.53622
500 3.87322
505 3.61579
510 3.4355
515 2.7222
520 2.43244
525 2.46219
530 2.01886
535 1.68006
540 1.76755
545 1.51577
550 1.21477
555 1.0327
560 0.862997
565 0.794821
570 0.696764
575 0.743651
580 0.452751
585 0.429004
590 0.352173
595 0.312444
600 0.240406
Ex : 368
200 0.0970306
205 0.156796
210 0.170688
215 0.11831
220 0.125322
225 0.144875
230 0.124023
235 0.128117
240 0.244336
245 0.143584
250 0.0728449
255 0.076291
260 0.0896505
265 0.214703
270 0.0900588
275 0.0659199
280 0.159371
285 0.126185
290 0.117143
295 0.0988039
300 0.141217
305 0.250081
310 0.147203
315 0.142276
320 0.122263
325 0.158685
330 0.266339
335 0.204238
340 0.262633
345 0.375425
350 0.70507
355 18.9108
360 380.986
365 640.985
370 171.558
375 22.1055
380 6.64365
385 9.61012
390 14.5122
395 15.2306
400 15.1002
405 17.8101
410 21.7038
415 22.4705
420 20.0657
425 16.3094
430 14.1697
435 14.092
440 13.5835
445 12.9053
450 11.1211
455 9.70719
460 9.02696
465 8.19421
470 7.9135
475 7.22832
480 6.68019
485 6.50678
490 5.37556
495 4.80406
500 4.31653
505 4.06148
510 3.55267
515 3.13654
520 2.86305
525 2.68799
530 2.26324
535 1.98014
540 1.82633
545 1.63415
550 1.50331
555 1.2175
560 1.0031
565 0.850782
570 0.684695
575 0.685325
580 0.477909
585 0.473265
590 0.379242
595 0.302132
600 0.500367
Ex : 373
200 0.0803451
205 0.128285
210 0.14088
215 0.0723793
220 0.0841356
225 0.0924277
230 0.170236
235 0.144476
240 0.0716369
245 0.118904
250 0.0929508
255 0.13399
260 0.117369
265 0.0978365
270 0.118673
275 0.0701462
280 0.127674
285 0.125514
290 0.10889
295 0.141622
300 0.143622
305 0.0962213
310 0.159585
315 0.180347
320 0.188841
325 0.136594
330 0.163731
335 0.207317
340 0.234735
345 0.338402
350 0.392543
355 0.708364
360 22.9374
365 393.93
370 644.552
375 172.381
380 23.1371
385 9.09305
390 14.0762
395 17.1164
400 15.2324
405 14.2284
410 18.1441
415 23.5736
420 21.6055
425 17.6136
430 14.3101
435 12.6457
440 13.5832
445 13.1574
450 11.1833
455 9.86437
460 9.04434
465 8.26444
470 7.80537
475 7.4729
480 6.59868
485 6.02501
490 5.45648
495 4.88603
500 4.28373
505 4.03804
510 3.58628
515 3.32299
520 2.69913
525 2.24651
530 2.28188
535 2.01215
540 1.56532
545 1.61285
550 1.30605
555 1.10463
560 1.04248
565 0.814246
570 0.806874
575 0.711517
580 0.49807
585 0.482948
590 0.2891
595 0.268107
600 0.741805
Ex : 378
200 0.16332
205 0.100016
210 0.195417
215 0.12628
220 0.140694
225 0.148646
230 0.1381
235 0.101437
240 0.0892029
245 0.103244
250 0.134627
255 0.0719237
260 0.109107
265 0.0982517
270 0.120906
275 0.0662979
280 0.0663305
285 0.0694152
290 0.112516
295 0.144865
300 0.142112
305 0.0589754
310 0.0756068
315 0.1697
320 0.140895
325 0.163143
330 0.150685
335 0.175158
340 0.17035
345 0.135257
350 0.27151
355 0.360041
360 0.946674
365 21.4783
370 397.135
375 659.391
380 179.249
385 26.1905
390 12.1781
395 12.4266
400 11.6403
405 10.3795
410 11.9383
415 15.0883
420 17.1796
425 14.799
430 12.008
435 10.7484
440 10.3793
445 10.0639
450 8.82592
455 7.68604
460 7.38103
465 7.03272
470 6.75334
475 6.01111
480 6.15415
485 5.5273
490 4.82627
495 4.37339
500 4.04592
505 3.75074
510 3.65951
515 3.10953
520 2.76342
525 2.57187
530 2.09228
535 1.95997
540 1.81287
545 1.62215
550 1.48251
555 1.29202
560 1.10814
565 1.02802
570 0.81601
575 0.671479
580 0.519204
585 0.412261
590 0.353463
595 0.331467
600 0.184807
Ex : 383
200 0.0824062
205 0.0872101
210 0.0787539
215 0.0641766
220 0.0937476
225 0.123974
230 0.0807967
235 0.0589482
240 0.0900472
245 0.0922764
250 0.0875255
255 0.0796859
260 0.0979303
265 0.12263
270 0.165439
275 0.0956133
280 0.129035
285 0.128094
290 0.0848612
295 0.0962434
300 0.114044
305 0.114225
310 0.104438
315 0.11301
320 0.139653
325 0.210124
330 0.13194
335 0.146452
340 0.231526
345 0.228704
350 0.236405
355 0.30373
360 0.428097
365 0.68727
370 19.8657
375 395.869
380 689.778
385 191.617
390 31.904
395 13.2858
400 10.5775
405 11.0093
410 12.6907
415 13.4988
420 13.4734
425 13.8142
430 13.2561
435 11.8668
440 11.0026
445 10.0189
450 8.93671
455 7.94969
460 7.15576
465 7.00956
470 6.65382
475 6.31537
480 5.83028
485 5.15383
490 4.45703
495 4.41115
500 4.27022
505 3.91358
510 3.50107
515 3.27352
520 2.73346
525 2.48607
530 2.30493
535 2.00205
540 1.85433
545 1.58159
550 1.25441
555 1.35507
560 1.28442
565 0.965778
570 0.909544
575 0.624533
580 0.461803
585 0.455914
590 0.332127
595 0.214734
600 0.366357
Ex : 388
200 0.0527508
205 0.0821883
210 0.0756573
215 0.0743951
220 0.0664825
225 0.105492
230 0.122658
235 0.132318
240 0.0563514
245 0.137833
250 0.0967037
255 0.0689684
260 0.123753
265 0.0660736
270 0.0660868
275 0.103436
280 0.102982
285 0.0853747
290 0.0917908
295 0.0886542
300 0.117613
305 0.0808424
310 0.0826005
315 0.0868718
320 0.12611
325 0.105747
330 0.12718
335 0.137126
340 0.168659
345 0.263816
350 0.201579
355 0.230132
360 0.286317
365 0.417396
370 0.717794
375 22.3783
380 410.324
385 700.001
390 196.983
395 35.5951
400 14.9456
405 13.875
410 15.4193
415 16.9361
420 16.0253
425 13.6734
430 14.4334
435 15.1696
440 14.1732
445 12.5173
450 10.7234
455 9.29865
460 8.20907
465 7.77277
470 7.39514
475 6.96704
480 6.38019
485 5.67568
490 4.96804
495 5.09037
500 4.70286
505 4.10885
510 3.73102
515 3.25022
520 2.70877
525 2.68659
530 2.29191
535 2.03539
540 1.98892
545 1.66217
550 1.60716
555 1.22366
560 1.10225
565 0.874944
570 0.812242
575 0.710957
580 0.550233
585 0.399287
590 0.295504
595 0.221595
600 0.442853
Ex : 393
200 0.117939
205 0.0530378
210 0.0504297
215 0.0720859
220 0.0762369
225 0.0777273
230 0.0713807
235 0.0744447
240 0.113957
245 0.0904423
250 0.0956908
255 0.0627906
260 0.0762758
265 0.0999417
270 0.143734
275 0.0924546
280 0.0541023
285 0.0480649
290 0.0864717
295 0.121236
300 0.122272
305 0.0987259
310 0.139417
315 0.0726339
320 0.0672948
325 0.185282
330 0.151109
335 0.144676
340 0.185762
345 0.195062
350 0.11659
355 0.187286
360 0.209488
365 0.257343
370 0.38788
375 0.828853
380 20.3398
385 406.29
390 705.93
395 202.242
400 35.924
405 14.6568
410 14.5626
415 17.6996
420 17.887
425 14.6341
430 12.2742
435 12.6729
440 15.1064
445 13.8118
450 11.7509
455 9.50119
460 8.05351
465 7.41531
470 7.3375
475 6.70105
480 6.13654
485 5.47443
490 4.8231
495 4.51236
500 4.20447
505 3.96109
510 3.45121
515 3.17219
520 3.02066
525 2.63301
530 2.30474
535 2.07513
540 1.87768
545 1.79691
550 1.52874
555 1.34184
560 1.12298
565 0.934534
570 0.772581
575 0.643362
580 0.571185
585 0.406832
590 0.246924
595 0.292309
600 0.109496
Ex : 398
200 0.142603
205 0.0825008
210 0.0777642
215 0.134215
220 0.0998693
225 0.0797509
230 0.106734
235 0.11914
240 0.105189
245 0.0685963
250 0.0784201
255 0.0541562
260 0.119312
265 0.106934
270 0.0685065
275 0.0639488
280 0.0792457
285 0.0880023
290 0.0686937
295 0.077219
300 0.0947828
305 0.0957026
310 0.0869215
315 0.108278
320 0.136226
325 0.0896586
330 0.127754
335 0.114274
340 0.121578
345 0.136415
350 0.175729
355 0.165731
360 0.2017
365 0.247366
370 0.332741
375 0.43023
380 1.00425
385 21.4807
390 420.697
395 732.054
400 200.88
405 30.08
410 10.9336
415 11.2314
420 11.1579
425 9.28219
430 7.60376
435 7.14032
440 8.43742
445 10.1459
450 9.4366
455 7.52254
460 6.35361
465 5.6528
470 5.24665
475 5.10008
480 4.83068
485 4.63376
490 4.21384
495 3.88321
500 3.73447
505 3.33909
510 3.18454
515 2.78455
520 2.48531
525 2.37559
530 2.05748
535 1.95462
540 1.86175
545 1.51732
550 1.51506
555 1.13397
560 1.03324
565 0.895925
570 0.732094
575 0.638093
580 0.520113
585 0.396956
590 0.328956
595 0.20699
600 0.0447268
Ex : 403
200 0.0758202
205 0.0889144
210 0.0792417
215 0.0800854
220 0.0489616
225 0.0774456
230 0.127361
235 0.15201
240 0.120133
245 0.0847417
250 0.110735
255 0.131845
260 0.114109
265 0.0634532
270 0.132987
275 0.073442
280 0.0577605
285 0.120774
290 0.0963416
295 0.129544
300 0.0970586
305 0.0823411
310 0.0837287
315 0.0901382
320 0.0999086
325 0.0977944
330 0.125009
335 0.187152
340 0.130596
345 0.158173
350 0.137211
355 0.178519
360 0.151182
365 0.196894
370 0.244319
375 0.232233
380 0.482118
385 1.07878
390 23.6816
395 433.982
400 726.503
405 198.782
410 26.8541
415 7.45949
420 5.38484
425 5.03
430 4.0318
435 3.86372
440 4.3173
445 5.07419
450 6.69099
455 6.92387
460 5.51962
465 4.87894
470 4.49653
475 4.11616
480 3.76505
485 3.65794
490 3.61603
495 3.57409
500 3.25005
505 2.97972
510 2.894
515 2.56259
520 2.46023
525 2.0661
530 2.13105
535 1.78793
540 1.66591
545 1.42744
550 1.11631
555 1.24773
560 1.11322
565 0.984568
570 0.715376
575 0.577111
580 0.530429
585 0.353503
590 0.333922
595 0.288911
600 0.032877
Ex : 408
200 0.140684
205 0.0706865
210 0.135428
215 0.0797942
220 0.0699053
225 0.0624995
230 0.09477
235 0.0607969
240 0.0324779
245 0.0927779
250 0.102019
255 0.128228
260 0.090763
265 0.0834986
270 0.0549684
275 0.0906383
280 0.0963359
285 0.0983054
290 0.0970068
295 0.0947565
300 0.107635
305 0.0782309
310 0.0796509
315 0.0665314
320 0.0753459
325 0.0668627
330 0.0777394
335 0.108272
340 0.141675
345 0.170704
350 0.11212
355 0.105815
360 0.129094
365 0.163867
370 0.158434
375 0.245908
380 0.351037
385 0.502339
390 1.10898
395 22.3876
400 441.484
405 732.412
410 193.561
415 25.8778
420 6.21018
425 3.95589
430 3.6618
435 3.67503
440 3.65862
445 3.80747
450 3.89931
455 5.3419
460 6.42277
465 5.28031
470 4.77397
475 4.37233
480 3.93635
485 3.65309
490 3.54078
495 3.51197
500 3.19162
505 3.05877
510 2.79508
515 2.58717
520 2.24117
525 2.26262
530 1.9379
535 1.68073
540 1.58227
545 1.50744
550 1.3042
555 1.03375
560 1.00159
565 0.887285
570 0.707297
575 0.685019
580 0.610252
585 0.378926
590 0.277651
595 0.265455
600 0.43082
Ex : 413
200 0.0779809
205 0.0851187
210 0.0670338
215 0.0585107
220 0.0719851
225 0.0617402
230 0.0639425
235 0.0758834
240 0.132748
245 0.0871408
250 0.085659
255 0.0858854
260 0.0585154
265 0.132296
270 0.0727581
275 0.0946968
280 0.0949085
285 0.110974
290 0.0689717
295 0.0701516
300 0.0946521
305 0.112517
310 0.0984491
315 0.120734
320 0.123097
325 0.120582
330 0.142188
335 0.115162
340 0.113187
345 0.0941788
350 0.122234
355 0.10753
360 0.0980667
365 0.18894
370 0.22718
375 0.173812
380 0.202098
385 0.302262
390 0.420575
395 0.920285
400 24.6285
405 447.48
410 727.188
415 188.473
420 24.7856
425 5.60838
430 3.42391
435 3.46729
440 3.56757
445 3.48208
450 3.45951
455 3.34346
460 4.27631
465 5.95819
470 5.33004
475 4.25071
480 4.10838
485 3.25277
490 3.28472
495 3.04915
500 2.89413
505 2.83035
510 2.43756
515 2.46901
520 2.29416
525 2.1957
530 1.89859
535 1.6831
540 1.5316
545 1.38885
550 1.25964
555 1.02106
560 1.04091
565 0.849332
570 0.746614
575 0.57632
580 0.430495
585 0.388512
590 0.321795
595 0.248664
600 0.389892
Ex : 418
200 0.0963177
205 0.0712233
210 0.123195
215 0.174136
220 0.1648
225 0.121993
230 0.0619026
235 0.0594557
240 0.124889
245 0.0798278
250 0.138726
255 0.0830017
260 0.121365
265 0.103055
270 0.0719629
275 0.112386
280 0.0954001
285 0.12583
290 0.109954
295 0.0529027
300 0.0802818
305 0.0697333
310 0.0985771
315 0.0865197
320 0.0964618
325 0.108906
330 0.14199
335 0.0819121
340 0.0921178
345 0.165113
350 0.150889
355 0.149211
360 0.0956438
365 0.153253
370 0.141708
375 0.148325
380 0.177495
385 0.273319
390 0.34132
395 0.517081
400 0.932512
405 24.1237
410 451.112
415 747.195
420 200.143
425 25.3683
430 5.01262
435 2.61685
440 2.68433
445 2.64952
450 2.30162
455 2.20847
460 2.33066
465 3.1005
470 5.09051
475 5.11323
480 3.84721
485 3.30714
490 2.88542
495 2.60335
500 2.5515
505 2.4022
510 2.4769
515 2.28507
520 1.91882
525 1.84703
530 1.7782
535 1.66218
540 1.40314
545 1.30551
550 1.14089
555 1.21208
560 0.983989
565 0.801996
570 0.686429
575 0.524308
580 0.396833
585 0.390139
590 0.360858
595 0.322056
600 0.243624
Ex : 423
200 0.061134
205 0.0884348
210 0.0968628
215 0.0952741
220 0.0954546
225 0.130008
230 0.0741083
235 0.0791321
240 0.0692432
245 0.0695116
250 0.0506818
255 0.0587703
260 0.106562
265 0.0815082
270 0.0922222
275 0.0940539
280 0.0615718
285 0.0644935
290 0.106606
295 0.0814147
300 0.0902723
305 0.0772269
310 0.0839535
315 0.0861734
320 0.10795
325 0.0773708
330 0.0903915
335 0.127336
340 0.109645
345 0.11029
350 0.118314
355 0.117554
360 0.108201
365 0.122019
370 0.113446
375 0.104342
380 0.177197
385 0.193099
390 0.289944
395 0.266039
400 0.468
405 0.86066
410 24.8722
415 471.744
420 743.826
425 189.055
430 23.6028
435 4.22189
440 1.885
445 2.02297
450 2.03487
455 1.59605
460 1.56768
465 1.81474
470 2.2991
475 3.94752
480 4.70188
485 3.76081
490 2.99813
495 2.68
500 2.38041
505 2.15609
510 1.98784
515 2.12674
520 1.80789
525 1.71466
530 1.51613
535 1.53039
540 1.36044
545 1.21467
550 1.16932
555 0.867571
560 0.933445
565 0.801112
570 0.738795
575 0.539802
580 0.431948
585 0.379904
590 0.332445
595 0.252281
600 0.166818
Ex : 428
200 0.0691581
205 0.117297
210 0.0764101
215 0.123347
220 0.0898033
225 0.0607268
230 0.0902135
235 0.101451
240 0.096528
245 0.077252
250 0.118842
255 0.0757011
260 0.0890882
265 0.0682624
270 0.0914831
275 0.0658557
280 0.126931
285 0.0740905
290 0.0698485
295 0.0610142
300 0.0855472
305 0.0871771
310 0.147508
315 0.0716747
320 0.0726139
325 0.0771776
330 0.120314
335 0.0986697
340 0.1339
345 0.0595616
350 0.097942
355 0.163056
360 0.109166
365 0.122212
370 0.110365
375 0.0905292
380 0.202704
385 0.189679
390 0.217092
395 0.211991
400 0.338345
405 0.564754
410 0.840429
415 27.2366
420 472.625
425 753.596
430 197.631
435 24.4536
440 4.1139
445 1.64464
450 1.77875
455 1.6793
460 1.52574
465 1.3608
470 1.57677
475 1.88024
480 3.14357
485 4.34345
490 3.58301
495 2.74917
500 2.63806
505 2.16888
510 1.85601
515 1.66169
520 1.6654
525 1.60843
530 1.51023
535 1.36753
540 1.39862
545 1.22376
550 1.06357
555 0.855592
560 0.907663
565 0.718065
570 0.674868
575 0.562621
580 0.481632
585 0.389566
590 0.288245
595 0.27516
600 0.152427
Ex : 433
200 0.0628226
205 0.097298
210 0.0678259
215 0.06177
220 0.0435488
225 0.0822736
230 0.0804375
235 0.074452
240 0.0522646
245 0.114926
250 0.099078
255 0.0926026
260 0.0893686
265 0.0663442
270 0.0951576
275 0.133066
280 0.0920959
285 0.0488652
290 0.0986646
295 0.0844653
300 0.077103
305 0.153131
310 0.128522
315 0.114243
320 0.0839911
325 0.0909635
330 0.100111
335 0.10215
340 0.106473
345 0.100301
350 0.0912213
355 0.0989441
360 0.119689
365 0.0864588
370 0.144586
375 0.117734
380 0.151527
385 0.156346
390 0.152876
395 0.168655
400 0.257149
405 0.320187
410 0.572548
415 0.87314
420 29.1612
425 508.085
430 767.708
435 192.266
440 23.6267
445 3.98968
450 1.59761
455 1.50904
460 1.6534
465 1.67541
470 1.3149
475 1.4924
480 1.6721
485 2.39243
490 3.94434
495 3.81899
500 2.79337
505 2.66822
510 2.1849
515 1.72298
520 1.61916
525 1.49644
530 1.31794
535 1.30764
540 1.18029
545 1.13762
550 1.0133
555 0.966162
560 0.837965
565 0.722036
570 0.619675
575 0.525972
580 0.466949
585 0.372521
590 0.35248
595 0.273157
600 0.0310842
Ex : 438
200 0.0976785
205 0.0831301
210 0.0885464
215 0.0856386
220 0.0771962
225 0.0780171
230 0.121512
235 0.12002
240 0.11722
245 0.0812866
250 0.0959455
255 0.120623
260 0.106714
265 0.117686
270 0.060633
275 0.141751
280 0.105628
285 0.0605047
290 0.038168
295 0.059388
300 0.0591068
305 0.133468
310 0.0974497
315 0.0574241
320 0.0882573
325 0.136392
330 0.12228
335 0.133493
340 0.0991286
345 0.139838
350 0.0800285
355 0.181519
360 0.142798
365 0.106469
370 0.15428
375 0.110616
380 0.190537
385 0.145779
390 0.152917
395 0.156861
400 0.193358
405 0.285822
410 0.324837
415 0.460857
420 0.840527
425 28.3856
430 505.496
435 814.711
440 204.299
445 25.0308
450 4.17998
455 1.68447
460 1.71126
465 1.68263
470 1.46675
475 1.41668
480 1.48206
485 1.59038
490 2.07286
495 3.47758
500 3.69051
505 2.54966
510 2.47567
515 1.98103
520 1.68946
525 1.53745
530 1.28152
535 1.28436
540 1.1305
545 1.03227
550 0.935844
555 0.844739
560 0.725846
565 0.728037
570 0.604464
575 0.513651
580 0.384766
585 0.328405
590 0.269756
595 0.234373
600 0.167524
Ex : 443
200 0.139302
205 0.056163
210 0.112466
215 0.125584
220 0.0968689
225 0.0871119
230 0.0885731
235 0.0784785
240 0.0984862
245 0.112207
250 0.118506
255 0.0803191
260 0.14149
265 0.0986609
270 0.0915517
275 0.107718
280 0.0714806
285 0.0691736
290 0.0855068
295 0.087129
300 0.0546101
305 0.102197
310 0.106562
315 0.0493063
320 0.10576
325 0.1355
330 0.106928
335 0.0809411
340 0.130325
345 0.0961467
350 0.0885476
355 0.10898
360 0.223104
365 0.156323
370 0.12685
375 0.181891
380 0.106472
385 0.137327
390 0.113841
395 0.162579
400 0.212701
405 0.240642
410 0.284364
415 0.390136
420 0.421317
425 0.852524
430 31.9179
435 538.983
440 836.738
445 208.758
450 25.6945
455 4.19039
460 1.7217
465 1.55927
470 1.74261
475 1.59711
480 1.39113
485 1.31323
490 1.52455
495 1.66868
500 2.88607
505 3.72289
510 2.58533
515 1.98803
520 1.90594
525 1.45268
530 1.37618
535 1.16002
540 1.22121
545 0.945311
550 0.973655
555 0.907282
560 0.877322
565 0.741345
570 0.564932
575 0.59571
580 0.39414
585 0.313814
590 0.376914
595 0.24362
600 0.151379
Ex : 448
200 0.0989211
205 0.149815
210 0.126393
215 0.0901633
220 0.0798138
225 0.0673117
230 0.125697
235 0.0914142
240 0.0916563
245 0.10503
250 0.0627521
255 0.0940362
260 0.0969266
265 0.064707
270 0.0944914
275 0.101331
280 0.109051
285 0.100789
290 0.0892713
295 0.0882759
300 0.0990212
305 0.0856266
310 0.0962823
315 0.0796287
320 0.0811794
325 0.0661253
330 0.113456
335 0.0653974
340 0.111777
345 0.11675
350 0.101367
355 0.10083
360 0.103908
365 0.123389
370 0.0766669
375 0.0655942
380 0.165362
385 0.161174
390 0.181243
395 0.141633
400 0.176718
405 0.183283
410 0.207654
415 0.21335
420 0.383969
425 0.576935
430 0.985037
435 32.9879
440 579.261
445 888.952
450 220.913
455 26.9511
460 4.5929
465 1.84607
470 1.61551
475 1.77196
480 1.4612
485 1.29038
490 1.28901
495 1.37927
500 1.48861
505 2.2443
510 3.39952
515 2.77689
520 1.85128
525 1.75733
530 1.66175
535 1.26342
540 1.12857
545 1.05832
550 0.970804
555 0.837659
560 0.685341
565 0.762341
570 0.638917
575 0.559816
580 0.465505
585 0.351496
590 0.322575
595 0.270009
600 0.214487
Ex : 453
200 0.063082
205 0.0768874
210 0.0841553
215 0.0585977
220 0.0600379
225 0.0947857
230 0.0724175
235 0.0587293
240 0.0985265
245 0.106301
250 0.0776173
255 0.0787463
260 0.0736793
265 0.0999539
270 0.0987182
275 0.051461
280 0.0852667
285 0.107113
290 0.0861621
295 0.090424
300 0.131851
305 0.0768494
310 0.0537014
315 0.100186
320 0.129027
325 0.101614
330 0.0814455
335 0.0766647
340 0.133052
345 0.151275
350 0.106636
355 0.0762692
360 0.122875
365 0.10605
370 0.0848812
375 0.096462
380 0.145527
385 0.0997798
390 0.133557
395 0.126769
400 0.164921
405 0.170173
410 0.189101
415 0.18443
420 0.261184
425 0.348932
430 0.494556
435 0.900849
440 34.6171
445 627.682
450 931.95
455 219.716
460 27.0652
465 4.67366
470 1.93894
475 1.6441
480 1.64166
485 1.63978
490 1.31318
495 1.18823
500 1.25062
505 1.22406
510 1.70918
515 3.07503
520 3.33237
525 2.08702
530 1.67453
535 1.53389
540 1.16343
545 1.03814
550 1.02812
555 0.894462
560 0.840535
565 0.709636
570 0.634908
575 0.495179
580 0.448156
585 0.330213
590 0.309507
595 0.278598
600 0.196644
Ex : 458
200 0.0782218
205 0.0811654
210 0.0787902
215 0.118565
220 0.072407
225 0.0632077
230 0.0739458
235 0.0963227
240 0.116277
245 0.108742
250 0.0823051
255 0.0839317
260 0.0900961
265 0.0760133
270 0.0605958
275 0.0867636
280 0.11763
285 0.0752382
290 0.0878299
295 0.0834763
300 0.12192
305 0.0927309
310 0.0652238
315 0.0552108
320 0.103
325 0.0987632
330 0.107048
335 0.051032
340 0.104267
345 0.11054
350 0.106271
355 0.159782
360 0.094224
365 0.146393
370 0.0948697
375 0.0962413
380 0.142481
385 0.113317
390 0.143991
395 0.166143
400 0.144186
405 0.116359
410 0.176644
415 0.194673
420 0.251469
425 0.239416
430 0.336429
435 0.579903
440 0.965566
445 38.9705
450 655.044
455 985.648
460 240.409
465 29.5295
470 4.86997
475 1.82165
480 1.41458
485 1.64481
490 1.77592
495 1.32832
500 1.16302
505 1.16775
510 1.10826
515 1.42643
520 2.33814
525 3.00208
530 2.33602
535 1.66205
540 1.42223
545 1.20655
550 1.02848
555 0.821725
560 0.885069
565 0.804686
570 0.682904
575 0.502512
580 0.43914
585 0.329892
590 0.41624
595 0.271412
600 0.299345
Ex : 463
200 0.0531467
205 0.0798658
210 0.0678973
215 0.095804
220 0.0616482
225 0.106025
230 0.065469
235 0.0632374
240 0.105362
245 0.111939
250 0.0835489
255 0.0950828
260 0.0989029
265 0.112574
270 0.100642
275 0.098035
280 0.0831385
285 0.103938
290 0.120875
295 0.0825543
300 0.126652
305 0.173029
310 0.113084
315 0.126604
320 0.0593152
325 0.063258
330 0.114609
335 0.0869518
340 0.0720049
345 0.0676667
350 0.0864984
355 0.10221
360 0.120765
365 0.143453
370 0.0863273
375 0.10887
380 0.0947311
385 0.137185
390 0.098862
395 0.0824118
400 0.115932
405 0.10563
410 0.154614
415 0.183556
420 0.191169
425 0.204401
430 0.249487
435 0.374994
440 0.478795
445 1.00018
450 38.6188
455 688.453
460 1061.82
465 258.386
470 31.5707
475 5.11146
480 1.85464
485 1.41497
490 1.45833
495 1.40836
500 1.26997
505 1.00427
510 1.08508
515 1.14599
520 1.33757
525 1.81634
530 2.93369
535 2.49572
540 1.65222
545 1.39597
550 1.33704
555 0.999183
560 0.773059
565 0.705363
570 0.555581
575 0.469209
580 0.398997
585 0.450327
590 0.382405
595 0.369385
600 0.144082
Ex : 468
200 0.0758563
205 0.0739581
210 0.0926455
215 0.0746204
220 0.119717
225 0.106801
230 0.0895389
235 0.063662
240 0.0558416
245 0.079563
250 0.0705261
255 0.0929739
260 0.101642
265 0.0744388
270 0.0700879
275 0.109827
280 0.0765629
285 0.0914149
290 0.0867225
295 0.080182
300 0.0668598
305 0.0745622
310 0.0767433
315 0.0861435
320 0.101207
325 0.125931
330 0.109341
335 0.135364
340 0.115081
345 0.115254
350 0.153343
355 0.0963762
360 0.100584
365 0.11164
370 0.0910697
375 0.0868002
380 0.0768795
385 0.0869209
390 0.134082
395 0.109207
400 0.121972
405 0.130905
410 0.172879
415 0.136571
420 0.141686
425 0.166841
430 0.259309
435 0.328222
440 0.372839
445 0.56459
450 1.09412
455 43.1184
460 707.081
465 1123.39
470 270.969
475 32.7676
480 5.19052
485 1.83534
490 1.38112
495 1.53995
500 1.36898
505 1.30968
510 1.07256
515 1.08164
520 1.05854
525 1.1586
530 1.47195
535 2.6884
540 2.63314
545 1.69432
550 1.34602
555 1.25553
560 1.00116
565 0.736165
570 0.650396
575 0.605515
580 0.454413
585 0.37675
590 0.354352
595 0.307712
600 0.312853
Ex : 473
200 0.0656645
205 0.107901
210 0.0944099
215 0.0732162
220 0.112027
225 0.109721
230 0.0729383
235 0.108241
240 0.0589469
245 0.067762
250 0.157492
255 0.0928107
260 0.0736334
265 0.0727034
270 0.0719946
275 0.121406
280 0.0649627
285 0.131884
290 0.11876
295 0.0737002
300 0.0928222
305 0.0636822
310 0.113185
315 0.111978
320 0.0775928
325 0.06056
330 0.0825708
335 0.0963713
340 0.141916
345 0.115971
350 0.0695969
355 0.092332
360 0.101765
365 0.1263
370 0.0931763
375 0.10005
380 0.114897
385 0.157923
390 0.0920001
395 0.100403
400 0.157507
405 0.116761
410 0.141461
415 0.161789
420 0.153971
425 0.171705
430 0.242355
435 0.248946
440 0.300922
445 0.398019
450 0.591728
455 1.04439
460 50.1575
465 795.282
470 1135.05
475 262.989
480 31.8879
485 5.09141
490 1.83628
495 1.31817
500 1.41792
505 1.35836
510 1.19354
515 1.08251
520 1.05734
525 1.1771
530 1.02624
535 1.26744
540 2.08403
545 2.53683
550 1.86792
555 1.30478
560 1.19051
565 1.02954
570 0.838868
575 0.654389
580 0.594446
585 0.395849
590 0.346748
595 0.313043
600 0.255248
Ex : 478
200 0.105882
205 0.0967918
210 0.0760058
215 0.111215
220 0.12383
225 0.115955
230 0.122465
235 0.0904252
240 0.0843881
245 0.0844674
250 0.101608
255 0.087478
260 0.103556
265 0.0945473
270 0.105461
275 0.061513
280 0.13046
285 0.155324
290 0.0926853
295 0.108494
300 0.100773
305 0.137855
310 0.0881814
315 0.115792
320 0.105715
325 0.0968833
330 0.107437
335 0.149506
340 0.142765
345 0.0924379
350 0.185581
355 0.104228
360 0.138578
365 0.0943015
370 0.110539
375 0.155895
380 0.145741
385 0.162591
390 0.138735
395 0.190722
400 0.188063
405 0.152787
410 0.139214
415 0.137821
420 0.194451
425 0.138724
430 0.162631
435 0.239516
440 0.242046
445 0.355465
450 0.460063
455 0.699103
460 1.27813
465 55.9103
470 827.345
475 1165.42
480 284.342
485 34.5241
490 5.42066
495 1.69996
500 1.26187
505 1.26443
510 1.33128
515 1.1953
520 1.08027
525 1.05511
530 1.13385
535 1.13873
540 0.93188
545 1.61294
550 2.35971
555 2.06453
560 1.18164
565 1.0797
570 1.00728
575 0.758907
580 0.48201
585 0.442379
590 0.386003
595 0.328652
600 0.186133
Ex : 483
200 0.0981893
205 0.100589
210 0.0908719
215 0.0987767
220 0.0811242
225 0.105141
230 0.0954735
235 0.184814
240 0.105312
245 0.0891415
250 0.0830515
255 0.124694
260 0.0878441
265 0.104236
270 0.103576
275 0.122303
280 0.0894585
285 0.105409
290 0.115688
295 0.113483
300 0.10944
305 0.141418
310 0.0775347
315 0.0839439
320 0.108307
325 0.105302
330 0.0988482
335 0.104177
340 0.0921715
345 0.0938927
350 0.0570626
355 0.13692
360 0.111218
365 0.105709
370 0.116444
375 0.154913
380 0.125291
385 0.152739
390 0.165365
395 0.137848
400 0.160935
405 0.14977
410 0.11234
415 0.16789
420 0.124521
425 0.192426
430 0.221596
435 0.184525
440 0.206067
445 0.265605
450 0.268898
455 0.476798
460 0.768311
465 1.50763
470 45.2081
475 827.12
480 1273.24
485 304.983
490 36.8182
495 5.43031
500 1.75507
505 1.13729
510 1.21667
515 1.34921
520 1.29399
525 1.27214
530 1.07403
535 1.10278
540 1.08462
545 1.08915
550 1.20248
555 1.97698
560 2.35868
565 1.44263
570 0.977633
575 0.863242
580 0.763071
585 0.534465
590 0.383651
595 0.312082
600 0.425939
Ex : 488
200 0.0591047
205 0.152678
210 0.161312
215 0.0994025
220 0.116076
225 0.109998
230 0.0828496
235 0.0693727
240 0.131723
245 0.108253
250 0.123401
255 0.186905
260 0.110497
265 0.110715
270 0.101268
275 0.111433
280 0.133296
285 0.135782
290 0.0781642
295 0.0952357
300 0.12199
305 0.0825622
310 0.120303
315 0.113235
320 0.143761
325 0.121466
330 0.134142
335 0.141772
340 0.183545
345 0.127006
350 0.106752
355 0.0916384
360 0.0916269
365 0.126672
370 0.142137
375 0.168579
380 0.122267
385 0.154335
390 0.108649
395 0.116345
400 0.107123
405 0.164127
410 0.159942
415 0.143752
420 0.167902
425 0.240453
430 0.163159
435 0.181321
440 0.254644
445 0.329127
450 0.347037
455 0.366195
460 0.523159
465 0.833931
470 1.58104
475 56.438
480 911.356
485 1286.07
490 303.438
495 36.7312
500 5.60626
505 1.848
510 1.21833
515 1.14934
520 1.31892
525 1.2491
530 1.0457
535 1.08707
540 1.0478
545 0.866479
550 1.01474
555 0.9249
560 1.55645
565 2.05722
570 1.43822
575 0.838223
580 0.755801
585 0.552859
590 0.484973
595 0.487014
600 0.178126
Ex : 493
200 0.0983324
205 0.106031
210 0.080564
215 0.103971
220 0.072985
225 0.0982533
230 0.0954072
235 0.15328
240 0.121312
245 0.0985126
250 0.128789
255 0.118139
260 0.0712135
265 0.0757258
270 0.0732405
275 0.119624
280 0.105728
285 0.108995
290 0.0814654
295 0.129115
300 0.103879
305 0.103927
310 0.180023
315 0.16974
320 0.135315
325 0.090009
330 0.134321
335 0.123042
340 0.116908
345 0.123445
350 0.149927
355 0.168072
360 0.161168
365 0.153225
370 0.164626
375 0.129489
380 0.123686
385 0.115606
390 0.18967
395 0.136927
400 0.175896
405 0.166952
410 0.174227
415 0.185006
420 0.138768
425 0.162914
430 0.219524
435 0.184557
440 0.156195
445 0.235909
450 0.35237
455 0.294862
460 0.425407
465 0.546117
470 0.833983
475 1.42171
480 52.5573
485 918.76
490 1381.73
495 319.698
500 38.4123
505 5.65512
510 1.73496
515 1.19468
520 1.19462
525 1.51924
530 1.26079
535 1.27356
540 1.04744
545 0.926029
550 0.824677
555 0.871426
560 0.950773
565 1.08725
570 1.55892
575 1.46094
580 0.755813
585 0.629114
590 0.501256
595 0.456415
600 0.365108
Ex : 498
200 0.0938154
205 0.128824
210 0.123034
215 0.131973
220 0.135008
225 0.147752
230 0.116613
235 0.0896075
240 0.0974753
245 0.14802
250 0.192716
255 0.146551
260 0.112814
265 0.126957
270 0.127012
275 0.0852465
280 0.125323
285 0.0967092
290 0.0913758
295 0.168401
300 0.108308
305 0.125239
310 0.110239
315 0.12332
320 0.0839709
325 0.128184
330 0.112469
335 0.123817
340 0.108521
345 0.13613
350 0.122499
355 0.221793
360 0.135992
365 0.14247
370 0.119434
375 0.139035
380 0.137934
385 0.136554
390 0.145641
395 0.133475
400 0.136606
405 0.11343
410 0.129654
415 0.175817
420 0.167056
425 0.171948
430 0.189717
435 0.203553
440 0.260227
445 0.223348
450 0.259436
455 0.148866
460 0.334698
465 0.472971
470 0.548359
475 0.866342
480 1.52363
485 63.184
490 987.285
495 1358.3
500 317.511
505 38.2363
510 5.67787
515 1.89482
520 1.22585
525 1.46226
530 1.40211
535 1.16505
540 1.1807
545 1.05289
550 0.904766
555 0.798303
560 0.90585
565 0.813744
570 0.84036
575 1.24307
580 1.31133
585 0.705194
590 0.522283
595 0.383462
600 0.42878
Ex : 503
200 0.126549
205 0.145089
210 0.0978928
215 0.126461
220 0.151446
225 0.0880406
230 0.126193
235 0.119351
240 0.161781
245 0.0765064
250 0.110603
255 0.0998681
260 0.129349
265 0.104104
270 0.127723
275 0.161983
280 0.165914
285 0.130577
290 0.0780654
295 0.112674
300 0.132968
305 0.184588
310 0.0939615
315 0.121987
320 0.0904938
325 0.143642
330 0.146023
335 0.103599
340 0.121328
345 0.172929
350 0.114438
355 0.164729
360 0.104976
365 0.179046
370 0.230072
375 0.174273
380 0.133981
385 0.154545
390 0.169783
395 0.179399
400 0.169517
405 0.141425
410 0.123307
415 0.182842
420 0.202446
425 0.15381
430 0.15033
435 0.252119
440 0.152181
445 0.189813
450 0.198747
455 0.285872
460 0.323514
465 0.385023
470 0.567651
475 0.748814
480 0.925158
485 1.61864
490 58.6509
495 987.555
500 1404.14
505 325.706
510 39.1714
515 5.95917
520 1.9989
525 1.19491
530 1.17222
535 1.27324
540 1.36341
545 1.22287
550 1.01728
555 0.868055
560 0.856153
565 0.706091
570 0.717488
575 0.62108
580 0.88386
585 1.10986
590 0.75136
595 0.477421
600 0.309741
Ex : 508
200 0.127131
205 0.102621
210 0.0997352
215 0.0931004
220 0.18081
225 0.0890579
230 0.080658
235 0.113888
240 0.166507
245 0.156467
250 0.176298
255 0.109264
260 0.104224
265 0.152174
270 0.13365
275 0.136875
280 0.175921
285 0.122636
290 0.113157
295 0.132819
300 0.199607
305 0.107203
310 0.117296
315 0.101755
320 0.114572
325 0.138906
330 0.111549
335 0.161394
340 0.0955281
345 0.145806
350 0.111061
355 0.140225
360 0.173185
365 0.190255
370 0.117749
375 0.106837
380 0.190058
385 0.168279
390 0.158893
395 0.12784
400 0.17274
405 0.231672
410 0.146909
415 0.122961
420 0.17066
425 0.233041
430 0.27894
435 0.199084
440 0.158082
445 0.192536
450 0.151774
455 0.220675
460 0.326912
465 0.28559
470 0.36124
475 0.436002
480 0.617992
485 0.801652
490 1.5897
495 63.7318
500 1004.44
505 1426.3
510 349.087
515 41.9282
520 6.3109
525 2.05323
530 1.35928
535 1.14545
540 1.282
545 1.20375
550 1.02815
555 0.888626
560 0.799988
565 0.759468
570 0.690809
575 0.607462
580 0.466985
585 0.661577
590 0.920609
595 0.69767
600 1.39244
Ex : 513
200 0.148251
205 0.130545
210 0.146562
215 0.106266
220 0.113603
225 0.100794
230 0.151856
235 0.123994
240 0.142468
245 0.102775
250 0.163289
255 0.143254
260 0.112406
265 0.0978526
270 0.140264
275 0.12159
280 0.215088
285 0.229122
290 0.126055
295 0.133113
300 0.173704
305 0.149409
310 0.11396
315 0.112985
320 0.137833
325 0.0892783
330 0.129132
335 0.174554
340 0.185509
345 0.124476
350 0.10675
355 0.0985507
360 0.127987
365 0.118748
370 0.2292
375 0.150624
380 0.159538
385 0.162592
390 0.144521
395 0.17094
400 0.11697
405 0.13797
410 0.14438
415 0.220581
420 0.181099
425 0.200399
430 0.224174
435 0.22209
440 0.159952
445 0.198023
450 0.253926
455 0.213658
460 0.264449
465 0.29783
470 0.255616
475 0.344833
480 0.398668
485 0.651261
490 1.11958
495 1.35654
500 60.8489
505 1005.25
510 1460.39
515 362.606
520 43.6368
525 6.40131
530 1.99224
535 1.45317
540 1.01824
545 1.13928
550 1.21252
555 0.988593
560 0.718874
565 0.798338
570 0.700193
575 0.630652
580 0.558626
585 0.445854
590 0.529041
595 0.593764
600 1.9389
Ex : 518
200 0.119886
205 0.133133
210 0.149565
215 0.183617
220 0.0910438
225 0.242279
230 0.189439
235 0.197742
240 0.136983
245 0.135685
250 0.133818
255 0.104767
260 0.111723
265 0.0824231
270 0.119502
275 0.184934
280 0.105489
285 0.15979
290 0.102875
295 0.19789
300 0.13013
305 0.144604
310 0.151996
315 0.195616
320 0.102656
325 0.118018
330 0.126378
335 0.0920845
340 0.327009
345 0.164573
350 0.186145
355 0.161163
360 0.150633
365 0.162214
370 0.166653
375 0.140257
380 0.144768
385 0.0938508
390 0.108763
395 0.179251
400 0.131505
405 0.144892
410 0.144258
415 0.200172
420 0.20893
425 0.186212
430 0.215034
435 0.259721
440 0.192161
445 0.254902
450 0.290548
455 0.291484
460 0.245928
465 0.305108
470 0.299283
475 0.422009
480 0.357938
485 0.396752
490 0.625509
495 0.806004
500 1.60029
505 60.4275
510 983.246
515 1485.53
520 366.167
525 43.9502
530 6.58334
535 1.98701
540 1.28988
545 1.08874
550 1.08998
555 1.13959
560 0.854469
565 0.859795
570 0.678923
575 0.64587
580 0.540558
585 0.455052
590 0.439204
595 0.415755
600 0.456653
Ex : 523
200 0.136853
205 0.137092
210 0.17334
215 0.18621
220 0.0975959
225 0.140224
230 0.133322
235 0.165707
240 0.0946457
245 0.114605
250 0.129057
255 0.174536
260 0.158648
265 0.183842
270 0.186026
275 0.178612
280 0.099535
285 0.117852
290 0.136358
295 0.0828954
300 0.111043
305 0.153904
310 0.134716
315 0.0895495
320 0.0776304
325 0.098186
330 0.170363
335 0.185537
340 0.158925
345 0.228033
350 0.149886
355 0.139516
360 0.171734
365 0.153206
370 0.251278
375 0.129133
380 0.120939
385 0.104636
390 0.183491
395 0.20677
400 0.167371
405 0.14377
410 0.201896
415 0.217693
420 0.215273
425 0.193428
430 0.142804
435 0.198473
440 0.218509
445 0.228626
450 0.278136
455 0.252361
460 0.207791
465 0.324978
470 0.263687
475 0.256774
480 0.250507
485 0.387725
490 0.45746
495 0.550959
500 0.862693
505 1.57784
510 57.107
515 958.695
520 1471.65
525 377.457
530 45.3705
535 6.59202
540 2.0342
545 1.16348
550 0.947281
555 1.05672
560 1.00719
565 0.894199
570 0.729804
575 0.574653
580 0.475749
585 0.461225
590 0.360717
595 0.361098
600 0.186588
Ex : 528
200 0.106411
205 0.159864
210 0.167881
215 0.160116
220 0.133581
225 0.0837957
230 0.154651
235 0.1619
240 0.140153
245 0.138506
250 0.0944339
255 0.17495
260 0.223423
265 0.125292
270 0.0988225
275 0.137784
280 0.0911033
285 0.155422
290 0.167775
295 0.136242
300 0.129192
305 0.157991
310 0.16869
315 0.167478
320 0.198427
325 0.164065
330 0.157835
335 0.109922
340 0.166992
345 0.0885644
350 0.124882
355 0.230969
360 0.223169
365 0.164225
370 0.1892
375 0.27018
380 0.158753
385 0.115643
390 0.187977
395 0.19568
400 0.171306
405 0.154817
410 0.154455
415 0.159378
420 0.269846
425 0.112767
430 0.171585
435 0.223885
440 0.252347
445 0.229598
450 0.168175
455 0.258055
460 0.161733
465 0.218456
470 0.287583
475 0.212875
480 0.289511
485 0.304124
490 0.362876
495 0.520238
500 0.638479
505 0.954766
510 1.52973
515 51.8507
520 957.982
525 1492.18
530 377.855
535 45.344
540 6.67741
545 1.84879
550 1.27925
555 1.09747
560 0.734321
565 0.718555
570 0.720381
575 0.623281
580 0.543071
585 0.411261
590 0.41898
595 0.43737
600 1.75401
Ex : 533
200 0.172276
205 0.18553
210 0.138962
215 0.14653
220 0.0759857
225 0.0968091
230 0.182728
235 0.112144
240 0.200382
245 0.180182
250 0.136885
255 0.0958973
260 0.118706
265 0.235284
270 0.141087
275 0.141474
280 0.21786
285 0.152249
290 0.168071
295 0.203066
300 0.230793
305 0.206191
310 0.179192
315 0.158634
320 0.154081
325 0.114733
330 0.140478
335 0.0948906
340 0.112044
345 0.100813
350 0.102036
355 0.180108
360 0.108277
365 0.119452
370 0.117305
375 0.178462
380 0.108626
385 0.140774
390 0.151646
395 0.214067
400 0.175099
405 0.131287
410 0.15635
415 0.147345
420 0.139798
425 0.192993
430 0.175957
435 0.231448
440 0.201473
445 0.275793
450 0.231091
455 0.220868
460 0.206822
465 0.23535
470 0.218466
475 0.284629
480 0.334078
485 0.342838
490 0.348103
495 0.362345
500 0.495809
505 0.694185
510 0.932112
515 1.63156
520 53.001
525 921.943
530 1449.99
535 375.844
540 45.1596
545 6.48943
550 1.91663
555 1.05891
560 0.913632
565 0.79565
570 0.758648
575 0.69122
580 0.539395
585 0.463414
590 0.407527
595 0.453462
600 0.0516023
Ex : 538
200 0.183861
205 0.141581
210 0.111933
215 0.0935429
220 0.144048
225 0.134476
230 0.116066
235 0.132533
240 0.10932
245 0.189289
250 0.130557
255 0.124714
260 0.222413
265 0.168632
270 0.145066
275 0.148255
280 0.140586
285 0.115941
290 0.0915537
295 0.148149
300 0.249561
305 0.162436
310 0.133471
315 0.0975109
320 0.10543
325 0.16431
330 0.283654
335 0.170992
340 0.174981
345 0.182279
350 0.131921
355 0.111379
360 0.0921027
365 0.167613
370 0.132985
375 0.188914
380 0.313225
385 0.168488
390 0.182771
395 0.17992
400 0.190452
405 0.170816
410 0.21242
415 0.149237
420 0.224274
425 0.239624
430 0.224267
435 0.15204
440 0.140379
445 0.185783
450 0.186797
455 0.35056
460 0.166443
465 0.230242
470 0.200814
475 0.298366
480 0.172896
485 0.25865
490 0.322231
495 0.268427
500 0.306302
505 0.499058
510 0.517741
515 0.885994
520 1.53714
525 46.1208
530 910.479
535 1486.45
540 397.352
545 47.595
550 6.82746
555 1.67679
560 0.928608
565 0.644225
570 0.608357
575 0.565746
580 0.496161
585 0.452479
590 0.426741
595 0.347625
600 0.572249
Ex : 543
200 0.0868303
205 0.114403
210 0.146284
215 0.076495
220 0.0911781
225 0.12768
230 0.157747
235 0.191116
240 0.202575
245 0.138634
250 0.148335
255 0.136376
260 0.199477
265 0.106395
270 0.119045
275 0.146944
280 0.124457
285 0.180208
290 0.207095
295 0.187043
300 0.158998
305 0.169812
310 0.125556
315 0.138034
320 0.112947
325 0.158412
330 0.123711
335 0.124033
340 0.143963
345 0.131544
350 0.193343
355 0.206499
360 0.196319
365 0.135965
370 0.137064
375 0.205726
380 0.109112
385 0.200071
390 0.205045
395 0.145139
400 0.171788
405 0.121357
410 0.147908
415 0.205505
420 0.315187
425 0.246896
430 0.126523
435 0.195117
440 0.146955
445 0.187342
450 0.189088
455 0.184415
460 0.192304
465 0.220343
470 0.1991
475 0.192423
480 0.283826
485 0.196165
490 0.229116
495 0.222745
500 0.286721
505 0.254531
510 0.521156
515 0.720201
520 0.848775
525 1.46755
530 41.9615
535 860.853
540 1473.75
545 408.469
550 49.0275
555 6.71535
560 1.56548
565 0.930558
570 0.634095
575 0.648597
580 0.46718
585 0.45359
590 0.399663
595 0.428266
600 0.276339
Ex : 548
200 0.141523
205 0.126774
210 0.123144
215 0.146254
220 0.127858
225 0.144486
230 0.20366
235 0.289738
240 0.283699
245 0.144704
250 0.266131
255 0.248754
260 0.160772
265 0.161823
270 0.125848
275 0.218709
280 0.134603
285 0.179577
290 0.11987
295 0.13152
300 0.166884
305 0.225679
310 0.151849
315 0.123304
320 0.157449
325 0.132476
330 0.1284
335 0.181418
340 0.15349
345 0.121904
350 0.135866
355 0.181374
360 0.161146
365 0.161818
370 0.253033
375 0.249134
380 0.13209
385 0.153436
390 0.215562
395 0.151354
400 0.121547
405 0.200907
410 0.130642
415 0.22951
420 0.227816
425 0.129883
430 0.262588
435 0.244852
440 0.247803
445 0.165713
450 0.15183
455 0.134858
460 0.181819
465 0.284258
470 0.242812
475 0.259187
480 0.253913
485 0.224024
490 0.244283
495 0.254777
500 0.270828
505 0.301355
510 0.459161
515 0.510898
520 0.641544
525 0.831986
530 1.2745
535 46.4929
540 869.92
545 1437.53
550 400.896
555 47.9183
560 6.60515
565 1.68994
570 0.902234
575 0.70345
580 0.526943
585 0.421458
590 0.429616
595 0.326764
600 0.65652
Ex : 553
200 0.167085
205 0.147612
210 0.122203
215 0.110948
220 0.126299
225 0.098482
230 0.236209
235 0.197675
240 0.174601
245 0.139199
250 0.157926
255 0.247085
260 0.170916
265 0.20987
270 0.177712
275 0.23413
280 0.179917
285 0.241744
290 0.160515
295 0.181976
300 0.188998
305 0.160889
310 0.137351
315 0.111144
320 0.138411
325 0.175623
330 0.177345
335 0.186048
340 0.187499
345 0.139969
350 0.256094
355 0.230802
360 0.154222
365 0.209573
370 0.225061
375 0.186389
380 0.171622
385 0.217215
390 0.228383
395 0.172589
400 0.16576
405 0.192329
410 0.176847
415 0.147758
420 0.174195
425 0.156875
430 0.206601
435 0.198702
440 0.129161
445 0.287996
450 0.205276
455 0.207777
460 0.174923
465 0.221378
470 0.214018
475 0.257455
480 0.265801
485 0.282089
490 0.274823
495 0.222562
500 0.255682
505 0.249308
510 0.232562
515 0.377515
520 0.494975
525 0.512177
530 0.804845
535 1.67191
540 40.8102
545 839.361
550 1445.48
555 406.25
560 48.569
565 6.47477
570 1.45018
575 0.667782
580 0.571032
585 0.440701
590 0.585583
595 0.430911
600 0.613926
Ex : 558
200 0.100751
205 0.128416
210 0.218151
215 0.118837
220 0.0964595
225 0.135225
230 0.151498
235 0.129061
240 0.17174
245 0.127323
250 0.174233
255 0.131648
260 0.130054
265 0.159765
270 0.231186
275 0.163014
280 0.135443
285 0.1051
290 0.181604
295 0.160314
300 0.154374
305 0.16441
310 0.196488
315 0.2632
320 0.130665
325 0.198633
330 0.171987
335 0.247048
340 0.193754
345 0.121358
350 0.0944557
355 0.219169
360 0.193895
365 0.334979
370 0.198908
375 0.274399
380 0.232688
385 0.305263
390 0.200458
395 0.110966
400 0.175727
405 0.229803
410 0.221372
415 0.22398
420 0.281402
425 0.152647
430 0.158987
435 0.147002
440 0.179969
445 0.248067
450 0.230548
455 0.267018
460 0.211888
465 0.179443
470 0.306601
475 0.205901
480 0.204534
485 0.238894
490 0.214844
495 0.187039
500 0.153463
505 0.335799
510 0.322107
515 0.40768
520 0.327434
525 0.423452
530 0.728388
535 0.890728
540 1.41092
545 37.7143
550 785.074
555 1406.83
560 400.286
565 48.2021
570 6.30735
575 1.49653
580 0.822894
585 0.485865
590 0.409797
595 0.361014
600 0.19875
Ex : 563
200 0.29396
205 0.259161
210 0.18724
215 0.231705
220 0.150023
225 0.15921
230 0.243049
235 0.168579
240 0.245791
245 0.169008
250 0.117062
255 0.151187
260 0.169998
265 0.131739
270 0.167946
275 0.195847
280 0.181502
285 0.164846
290 0.14067
295 0.303187
300 0.151952
305 0.116778
310 0.144354
315 0.116807
320 0.143825
325 0.245626
330 0.237459
335 0.184687
340 0.267566
345 0.192485
350 0.164105
355 0.221323
360 0.125556
365 0.162011
370 0.350266
375 0.232523
380 0.211468
385 0.253402
390 0.192311
395 0.170092
400 0.192767
405 0.178849
410 0.141355
415 0.191815
420 0.248803
425 0.149219
430 0.171452
435 0.206498
440 0.210012
445 0.214433
450 0.305111
455 0.182644
460 0.157643
465 0.19905
470 0.240163
475 0.242312
480 0.277355
485 0.256352
490 0.209475
495 0.235098
500 0.147095
505 0.289335
510 0.334149
515 0.287942
520 0.350215
525 0.376104
530 0.35365
535 0.529349
540 0.757537
545 1.38175
550 36.371
555 764.533
560 1352.15
565 393.279
570 46.9273
575 6.26945
580 1.37149
585 0.688909
590 0.500183
595 0.358724
600 0.439613
Ex : 568
200 0.16764
205 0.162789
210 0.211653
215 0.134946
220 0.164176
225 0.145774
230 0.146593
235 0.132048
240 0.244667
245 0.173204
250 0.128446
255 0.246607
260 0.141605
265 0.176607
270 0.237586
275 0.138411
280 0.150825
285 0.177576
290 0.160372
295 0.175043
300 0.167848
305 0.11432
310 0.216174
315 0.297404
320 0.157887
325 0.211614
330 0.268064
335 0.240356
340 0.14778
345 0.152818
350 0.136189
355 0.25984
360 0.193823
365 0.173879
370 0.133823
375 0.147376
380 0.217627
385 0.327659
390 0.276117
395 0.231056
400 0.293875
405 0.180823
410 0.180346
415 0.180389
420 0.0892519
425 0.253982
430 0.235572
435 0.167144
440 0.216458
445 0.208631
450 0.206447
455 0.1607
460 0.183532
465 0.223646
470 0.223799
475 0.230639
480 0.190716
485 0.184901
490 0.320639
495 0.257799
500 0.184446
505 0.295707
510 0.21174
515 0.35141
520 0.426468
525 0.485149
530 0.374314
535 0.29234
540 0.516663
545 0.698323
550 1.1471
555 28.4732
560 699.911
565 1313.97
570 399.758
575 48.0834
580 6.13427
585 1.1713
590 0.547581
595 0.339414
600 0.038624
Ex : 573
200 0.141681
205 0.121194
210 0.209962
215 0.251386
220 0.11854
225 0.16939
230 0.173337
235 0.146946
240 0.15277
245 0.140211
250 0.24861
255 0.309556
260 0.193713
265 0.186041
270 0.156438
275 0.152225
280 0.197537
285 0.146426
290 0.148624
295 0.108115
300 0.231494
305 0.13266
310 0.125223
315 0.293919
320 0.134197
325 0.171734
330 0.238336
335 0.135013
340 0.297485
345 0.25892
350 0.156667
355 0.279322
360 0.159678
365 0.109828
370 0.163582
375 0.234243
380 0.252681
385 0.17104
390 0.197604
395 0.312417
400 0.206327
405 0.227156
410 0.176068
415 0.213853
420 0.188135
425 0.192941
430 0.194352
435 0.268636
440 0.240911
445 0.157515
450 0.16719
455 0.287052
460 0.201466
465 0.281555
470 0.263517
475 0.290858
480 0.215812
485 0.209955
490 0.259517
495 0.165796
500 0.237178
505 0.225216
510 0.28631
515 0.255187
520 0.390729
525 0.34475
530 0.303379
535 0.387969
540 0.413026
545 0.547892
550 0.634509
555 1.19119
560 23.916
565 593.505
570 1206.96
575 379.178
580 45.5036
585 5.73535
590 1.1081
595 0.602035
600 0.446623
Ex : 578
200 0.176072
205 0.187379
210 0.251219
215 0.174088
220 0.137362
225 0.162679
230 0.15314
235 0.0846401
240 0.175425
245 0.213675
250 0.175106
255 0.0897188
260 0.101326
265 0.192813
270 0.308412
275 0.180881
280 0.149873
285 0.22251
290 0.214651
295 0.128225
300 0.170401
305 0.170481
310 0.122899
315 0.228507
320 0.162231
325 0.15914
330 0.123411
335 0.125036
340 0.146623
345 0.127931
350 0.179494
355 0.146221
360 0.270421
365 0.254209
370 0.219212
375 0.216234
380 0.189093
385 0.244845
390 0.211505
395 0.236474
400 0.199011
405 0.197103
410 0.297529
415 0.266809
420 0.264355
425 0.202492
430 0.205142
435 0.24054
440 0.183351
445 0.204222
450 0.150913
455 0.334118
460 0.263195
465 0.205016
470 0.267915
475 0.229319
480 0.229404
485 0.230336
490 0.28893
495 0.271929
500 0.303489
505 0.269931
510 0.208709
515 0.219185
520 0.225965
525 0.274227
530 0.344842
535 0.229143
540 0.241071
545 0.291353
550 0.499121
555 0.589245
560 1.03329
565 21.8707
570 544.755
575 1080.45
580 329.321
585 39.3007
590 4.98589
595 1.08457
600 0.50925
Ex : 583
200 0.23854
205 0.177899
210 0.26562
215 0.181876
220 0.14789
225 0.254091
230 0.239188
235 0.246647
240 0.133632
245 0.124226
250 0.251394
255 0.174425
260 0.206253
265 0.359991
270 0.150146
275 0.20436
280 0.18494
285 0.109978
290 0.152285
295 0.184757
300 0.177457
305 0.153862
310 0.143834
315 0.154907
320 0.128996
325 0.180554
330 0.221341
335 0.2971
340 0.227392
345 0.137523
350 0.14722
355 0.266226
360 0.212142
365 0.193916
370 0.136843
375 0.223951
380 0.244615
385 0.168581
390 0.25609
395 0.148996
400 0.160156
405 0.171096
410 0.190993
415 0.211497
420 0.166514
425 0.219786
430 0.314705
435 0.186956
440 0.287255
445 0.29904
450 0.17157
455 0.150429
460 0.209945
465 0.184898
470 0.177988
475 0.196931
480 0.321957
485 0.267853
490 0.366775
495 0.24168
500 0.258473
505 0.189852
510 0.150582
515 0.272641
520 0.18892
525 0.205639
530 0.258033
535 0.256914
540 0.375198
545 0.379028
550 0.406668
555 0.366775
560 0.594525
565 0.863849
570 18.0552
575 484.632
580 934.714
585 272.904
590 32.664
595 4.17023
600 1.6728
Ex : 588
200 0.189884
205 0.267282
210 0.189298
215 0.174553
220 0.217568
225 0.214824
230 0.21542
235 0.17726
240 0.15372
245 0.280417
250 0.146448
255 0.270527
260 0.249584
265 0.115594
270 0.283372
275 0.27268
280 0.104086
285 0.179675
290 0.214571
295 0.238807
300 0.143497
305 0.133061
310 0.202971
315 0.200704
320 0.156684
325 0.230852
330 0.159469
335 0.146195
340 0.231147
345 0.199715
350 0.207141
355 0.279175
360 0.259772
365 0.157912
370 0.282103
375 0.136562
380 0.19949
385 0.165717
390 0.229684
395 0.12095
400 0.242357
405 0.274193
410 0.158793
415 0.220459
420 0.160784
425 0.187105
430 0.155887
435 0.230551
440 0.243065
445 0.239075
450 0.15989
455 0.201796
460 0.224839
465 0.178781
470 0.156424
475 0.212134
480 0.201473
485 0.176611
490 0.217781
495 0.230511
500 0.207127
505 0.219292
510 0.119029
515 0.179412
520 0.216584
525 0.189571
530 0.398592
535 0.299242
540 0.353913
545 0.273551
550 0.272737
555 0.415176
560 0.564083
565 0.546818
570 0.716281
575 15.9602
580 405.286
585 794.381
590 244.937
595 29.3032
600 3.59981
Ex : 593
200 0.189889
205 0.161958
210 0.16245
215 0.19179
220 0.160264
225 0.143601
230 0.233189
235 0.197009
240 0.259103
245 0.172514
250 0.177957
255 0.186664
260 0.267025
265 0.186333
270 0.22944
275 0.228437
280 0.148019
285 0.168304
290 0.242675
295 0.316307
300 0.151982
305 0.134219
310 0.242003
315 0.267879
320 0.253753
325 0.202872
330 0.202707
335 0.294456
340 0.170131
345 0.155428
350 0.238597
355 0.17346
360 0.177813
365 0.225496
370 0.237902
375 0.223206
380 0.236332
385 0.201597
390 0.10017
395 0.240395
400 0.133707
405 0.279768
410 0.281722
415 0.212963
420 0.364168
425 0.261153
430 0.319525
435 0.325455
440 0.2215
445 0.139153
450 0.208808
455 0.305641
460 0.215066
465 0.213683
470 0.191994
475 0.178012
480 0.250897
485 0.199496
490 0.302649
495 0.254096
500 0.282531
505 0.473246
510 0.188742
515 0.154847
520 0.319023
525 0.288771
530 0.242873
535 0.233825
540 0.268213
545 0.24999
550 0.244591
555 0.454328
560 0.340243
565 0.392753
570 0.450697
575 0.805442
580 13.4978
585 366.86
590 686.121
595 207.585
600 29.5036
Ex : 598
200 0.0983514
205 0.150534
210 0.210766
215 0.167133
220 0.330374
225 0.1557
230 0.171388
235 0.190095
240 0.283519
245 0.156922
250 0.150897
255 0.227804
260 0.17586
265 0.147741
270 0.207806
275 0.192862
280 0.18531
285 0.145786
290 0.218486
295 0.264459
300 0.121777
305 0.126212
310 0.180148
315 0.180986
320 0.202731
325 0.12843
330 0.109401
335 0.283014
340 0.174241
345 0.184437
350 0.273489
355 0.231065
360 0.142098
365 0.146035
370 0.229467
375 0.259058
380 0.259567
385 0.281226
390 0.151937
395 0.166078
400 0.137778
405 0.170239
410 0.204717
415 0.212752
420 0.176404
425 0.300546
430 0.261602
435 0.24652
440 0.329187
445 0.267322
450 0.270378
455 0.138883
460 0.18792
465 0.219499
470 0.207082
475 0.225128
480 0.210685
485 0.233215
490 0.186668
495 0.230206
500 0.175264
505 0.268169
510 0.323399
515 0.243245
520 0.184089
525 0.31635
530 0.234058
535 0.344867
540 0.209642
545 0.233977
550 0.282021
555 0.333704
560 0.246848
565 0.383608
570 0.434224
575 0.553702
580 0.685241
585 13.961
590 323.368
595 599.527
600 377.949
Ex : 603
200 0.320536
205 0.187225
210 0.131294
215 0.172535
220 0.114326
225 0.158989
230 0.248814
235 0.228113
240 0.220007
245 0.206341
250 0.192766
255 0.167659
260 0.182887
265 0.138996
270 0.193827
275 0.176232
280 0.306598
285 0.265027
290 0.249172
295 0.215834
300 0.205116
305 0.214655
310 0.168225
315 0.117649
320 0.408399
325 0.273372
330 0.207503
335 0.113655
340 0.1643
345 0.15112
350 0.125288
355 0.147275
360 0.339239
365 0.268257
370 0.240715
375 0.137579
380 0.184515
385 0.270652
390 0.395665
395 0.250393
400 0.324186
405 0.203611
410 0.183884
415 0.143668
420 0.24719
425 0.179742
430 0.190179
435 0.174122
440 0.132157
445 0.191756
450 0.286792
455 0.370721
460 0.151317
465 0.214931
470 0.270519
475 0.271808
480 0.215433
485 0.184228
490 0.303885
495 0.314324
500 0.313362
505 0.235431
510 0.176818
515 0.134775
520 0.158771
525 0.16449
530 0.193953
535 0.220797
540 0.376177
545 0.321299
550 0.330794
555 0.352936
560 0.288523
565 0.290819
570 0.362576
575 0.457926
580 0.410629
585 0.708292
590 12.2535
595 275.374
600 568.347
