File format V 1.0
ven. 6. janv. 12:40:57 2017
Operator : 
Comments : 

=============================================
SpectroFluorometer parameters
Mode : 3D measurement
Data : Fluorescence
Phospho. : Ordinary
Spectrum : Fluorescence

Scan speed : 2400 nm/mn
Response : 100 ms
PM Voltage : 700 V
Shutter : On

Lambda Ex. Start : 203
Lambda Ex. End : 603
Lambda Ex. Step : 5
Ex. Slit : 5 nm

Lambda Em. Start : 200
Lambda Em. End : 600
Lambda Em. Step : 5
Em. Slit : 5 nm

Repetition : 1
Decal lambda em : 10
=============================================
DATA
Ex : 203
200 8.61979
205 9.24083
210 10.182
215 10.9302
220 9.29385
225 7.69812
230 11.0133
235 11.209
240 8.2778
245 10.2388
250 9.13245
255 8.09605
260 9.07612
265 10.2689
270 9.42956
275 7.78055
280 12.08
285 8.29487
290 9.78015
295 9.95456
300 12.3566
305 13.0824
310 8.23624
315 16.3038
320 10.2146
325 8.90611
330 8.63243
335 8.5771
340 9.42772
345 11.1027
350 13.0473
355 14.551
360 9.26467
365 11.8567
370 11.8186
375 7.90444
380 9.6806
385 11.3735
390 13.8946
395 10.3811
400 9.45256
405 9.9377
410 11.0554
415 11.1909
420 6.49314
425 9.34053
430 10.103
435 8.59053
440 11.4374
445 12.2811
450 12.5859
455 11.6459
460 15.1235
465 12.7923
470 9.62236
475 14.1778
480 10.7386
485 9.67049
490 9.37028
495 11.3228
500 9.85375
505 13.1496
510 12.618
515 9.75987
520 7.84012
525 8.49638
530 14.7445
535 12.9792
540 9.87854
545 8.66565
550 8.81198
555 11.6414
560 11.309
565 12.2012
570 11.9352
575 7.87872
580 8.7254
585 8.14835
590 11.536
595 11.2278
600 7.25955
Ex : 208
200 10.3052
205 9.74074
210 9.54666
215 11.884
220 8.43366
225 7.13288
230 8.34659
235 13.7156
240 8.66278
245 10.2294
250 10.5208
255 7.94103
260 13.3725
265 10.4083
270 9.89055
275 6.19493
280 8.60973
285 7.79406
290 9.25757
295 10.5589
300 8.50848
305 9.61079
310 7.96695
315 7.16596
320 6.79626
325 9.4564
330 9.80908
335 7.90043
340 10.9063
345 12.57
350 11.8815
355 11.7951
360 10.6744
365 10.9758
370 13.6823
375 8.24908
380 9.99538
385 10.2868
390 8.45908
395 12.4158
400 12.9711
405 9.08404
410 10.1246
415 11.3167
420 12.0413
425 11.6085
430 11.136
435 14.9061
440 10.9992
445 11.8901
450 12.7738
455 10.4713
460 15.8531
465 12.3828
470 13.3096
475 12.1661
480 13.503
485 13.2083
490 11.7707
495 11.4871
500 10.8571
505 9.53714
510 12.1541
515 11.7992
520 10.3181
525 10.2073
530 10.9478
535 11.2011
540 10.2105
545 7.23594
550 11.1423
555 10.3199
560 8.89072
565 11.3464
570 11.2477
575 8.84739
580 10.6786
585 12.0491
590 8.39812
595 11.406
600 1.29796
Ex : 213
200 11.4793
205 11.4895
210 10.8342
215 7.40156
220 12.5739
225 8.15534
230 12.078
235 9.59235
240 8.00968
245 11.2519
250 7.64721
255 8.58102
260 8.11468
265 11.9443
270 7.58296
275 8.59629
280 9.24806
285 9.50283
290 11.2437
295 6.25912
300 8.50915
305 8.43647
310 10.7169
315 9.35423
320 9.74848
325 8.62175
330 9.64488
335 12.7507
340 10.8888
345 11.6998
350 12.334
355 9.11037
360 9.32756
365 12.6403
370 13.7334
375 8.78202
380 11.6852
385 11.0211
390 9.66089
395 8.52078
400 12.8174
405 12.8752
410 10.4939
415 9.92116
420 13.2635
425 16.1024
430 8.41328
435 9.27064
440 12.109
445 9.96123
450 12.2636
455 10.9968
460 10.4968
465 10.7937
470 13.0148
475 8.55043
480 9.57673
485 8.08958
490 12.0876
495 10.7552
500 11.8862
505 9.17927
510 10.0897
515 8.704
520 10.7035
525 11.7027
530 7.48592
535 6.46843
540 13.2537
545 10.2622
550 10.8736
555 15.6018
560 10.3812
565 10.7742
570 11.2034
575 7.97191
580 11.2276
585 8.36314
590 7.47525
595 9.79326
600 15.7368
Ex : 218
200 8.81642
205 10.713
210 12.4587
215 12.0398
220 8.42262
225 8.90623
230 11.8411
235 10.2053
240 9.86572
245 7.70898
250 12.124
255 10.308
260 9.02962
265 7.44065
270 11.4127
275 10.2312
280 8.3625
285 10.7368
290 9.32251
295 9.39924
300 8.24949
305 9.48607
310 6.71638
315 9.68378
320 5.4826
325 7.75533
330 9.92603
335 15.7391
340 12.494
345 9.12015
350 8.61306
355 9.23559
360 9.44977
365 14.1096
370 9.95037
375 11.0317
380 9.23929
385 8.42544
390 7.99753
395 10.8992
400 11.6949
405 11.3994
410 12.2887
415 12.7113
420 10.9486
425 11.7819
430 15.7343
435 10.7519
440 10.5779
445 10.3742
450 11.2118
455 10.494
460 12.9333
465 10.0274
470 9.06964
475 9.79187
480 9.73346
485 9.73447
490 13.2246
495 15.3637
500 10.643
505 10.2729
510 9.94115
515 12.0902
520 11.642
525 13.9342
530 10.1789
535 12.6439
540 7.8699
545 10.0647
550 12.867
555 7.89783
560 6.76516
565 11.9078
570 14.3527
575 11.536
580 10.4106
585 9.60969
590 7.79677
595 8.20378
600 26.4119
Ex : 223
200 11.2036
205 9.43982
210 9.58965
215 6.9891
220 9.31806
225 7.71487
230 12.0199
235 10.1924
240 7.46615
245 10.0187
250 8.69656
255 6.21421
260 7.91442
265 11.4102
270 8.78829
275 10.9769
280 10.342
285 9.82432
290 6.79624
295 8.1924
300 8.59836
305 11.48
310 10.7592
315 7.71925
320 11.3002
325 7.83306
330 10.9429
335 8.94315
340 10.715
345 8.47044
350 12.2982
355 9.86638
360 9.57795
365 8.60429
370 10.4237
375 11.0887
380 10.0141
385 14.2985
390 10.5876
395 10.9367
400 10.3643
405 13.2896
410 11.3748
415 8.84386
420 9.00944
425 12.2232
430 8.42984
435 7.5619
440 8.25856
445 12.9373
450 11.2324
455 7.97744
460 10.9037
465 7.33949
470 10.7332
475 9.65854
480 8.51607
485 8.40292
490 8.00241
495 10.7759
500 9.34159
505 11.7332
510 10.3059
515 10.4615
520 12.3164
525 8.59432
530 9.68268
535 10.4109
540 8.38565
545 9.80421
550 10.9742
555 10.2062
560 10.8845
565 7.14391
570 6.78191
575 10.4921
580 10.3716
585 10.6821
590 9.73032
595 4.92951
600 3.21957
Ex : 228
200 8.16522
205 8.17408
210 7.76885
215 12.8177
220 8.32393
225 7.58984
230 5.96438
235 8.00755
240 7.67093
245 9.15351
250 8.43055
255 8.74338
260 12.8709
265 9.68686
270 7.51427
275 9.85599
280 7.42303
285 7.47746
290 10.5263
295 8.47163
300 9.33163
305 6.49729
310 10.6452
315 9.0647
320 9.3602
325 9.58723
330 7.50271
335 8.02283
340 9.73299
345 11.083
350 11.8833
355 12.6421
360 12.0015
365 10.095
370 7.4041
375 10.47
380 9.02206
385 9.10565
390 11.6232
395 11.9756
400 9.31519
405 10.4966
410 9.65543
415 9.12876
420 12.7065
425 8.21155
430 13.9227
435 11.8214
440 11.7923
445 10.9848
450 11.4739
455 10.2688
460 12.5474
465 8.90495
470 9.22577
475 9.53487
480 7.99819
485 13.1767
490 8.45751
495 8.52214
500 9.70292
505 9.20101
510 9.07363
515 6.59681
520 10.1347
525 10.3773
530 7.76135
535 15.1688
540 11.0793
545 7.78324
550 8.39821
555 6.80919
560 8.44072
565 7.33365
570 9.85054
575 12.2225
580 7.65895
585 11.0745
590 8.46064
595 8.13701
600 10.8219
Ex : 233
200 7.87952
205 7.34605
210 8.47708
215 9.163
220 13.4049
225 9.29901
230 7.84237
235 9.36469
240 8.49256
245 11.8196
250 11.5705
255 10.4319
260 8.52783
265 10.5592
270 11.345
275 7.95172
280 9.84287
285 8.98696
290 7.77347
295 9.26431
300 10.3412
305 10.3305
310 10.9615
315 7.62363
320 8.26214
325 7.52992
330 8.10966
335 7.9529
340 8.98096
345 13.5336
350 9.10912
355 10.2708
360 12.4314
365 12.1286
370 10.8891
375 10.1413
380 9.6099
385 11.2831
390 13.0172
395 11.0247
400 10.2879
405 8.15866
410 7.3444
415 7.8961
420 12.1399
425 10.6576
430 9.71085
435 10.9497
440 10.7649
445 9.78637
450 9.80268
455 12.7617
460 9.37925
465 9.65614
470 12.6778
475 8.15506
480 7.97062
485 12.22
490 9.19745
495 10.5505
500 12.4733
505 8.44249
510 9.3049
515 9.59045
520 9.17233
525 10.1237
530 8.87911
535 10.3804
540 9.71465
545 7.13303
550 8.95349
555 7.54842
560 9.3202
565 8.05753
570 11.2881
575 5.95557
580 10.0958
585 8.83174
590 11.0054
595 9.2282
600 20.9897
Ex : 238
200 5.98893
205 5.21875
210 7.55144
215 7.84721
220 10.9937
225 7.39652
230 6.11609
235 7.02935
240 10.0505
245 8.96471
250 8.72095
255 8.59784
260 5.52909
265 10.7059
270 8.39948
275 8.60567
280 7.7594
285 7.75271
290 8.82236
295 6.33128
300 6.22303
305 8.52493
310 7.22996
315 7.1864
320 6.04472
325 10.8792
330 8.63347
335 8.6706
340 6.54468
345 9.35214
350 9.99902
355 6.12316
360 5.90123
365 6.94313
370 5.85746
375 9.51458
380 5.81675
385 9.28787
390 7.73093
395 9.12826
400 8.10184
405 9.51915
410 8.44072
415 11.6942
420 7.36471
425 8.69339
430 8.26973
435 8.78484
440 8.71943
445 6.73913
450 10.691
455 10.3605
460 8.10809
465 11.6675
470 10.7167
475 10.1149
480 11.509
485 8.70501
490 11.1819
495 8.37856
500 8.25971
505 8.43269
510 9.55122
515 8.57002
520 8.39549
525 9.41239
530 6.2159
535 8.89271
540 10.3013
545 9.78576
550 10.0872
555 7.78904
560 7.50974
565 6.5616
570 9.0123
575 9.57966
580 8.57551
585 8.84743
590 8.39406
595 7.63106
600 9.90766
Ex : 243
200 9.58064
205 6.91387
210 6.62144
215 5.52139
220 6.11303
225 7.42727
230 7.85802
235 7.42553
240 8.2842
245 6.74169
250 6.21569
255 7.2412
260 5.72354
265 5.75622
270 9.23905
275 8.45163
280 7.0242
285 5.91824
290 6.42499
295 8.03625
300 5.39851
305 8.87094
310 9.4687
315 6.43225
320 7.68455
325 6.70665
330 5.40952
335 8.22168
340 5.86764
345 7.77809
350 8.91921
355 8.38493
360 7.97075
365 8.04689
370 7.26782
375 7.05751
380 7.4481
385 8.58891
390 5.84548
395 6.58235
400 8.32682
405 8.56769
410 9.95145
415 8.31713
420 7.01216
425 8.50042
430 10.7156
435 7.02
440 6.60001
445 7.2251
450 7.2242
455 7.75481
460 8.27365
465 7.13096
470 12.1083
475 8.74611
480 7.43443
485 10.0664
490 8.70093
495 6.89717
500 6.86546
505 7.1923
510 7.0865
515 8.65159
520 6.62698
525 6.52518
530 7.19648
535 6.02239
540 5.54046
545 8.22694
550 8.18982
555 7.5509
560 8.47697
565 7.04491
570 6.77458
575 8.7344
580 8.61825
585 8.24055
590 5.61239
595 6.22857
600 6.02601
Ex : 248
200 4.7071
205 5.34496
210 5.80314
215 6.59231
220 8.46664
225 6.21515
230 7.0544
235 6.00147
240 5.94074
245 6.69091
250 4.59469
255 5.62228
260 4.96395
265 5.84312
270 6.51539
275 6.58931
280 7.90258
285 7.06064
290 5.86978
295 4.58457
300 5.1331
305 5.71409
310 5.42308
315 5.0854
320 8.18464
325 7.11135
330 5.9487
335 8.72034
340 6.55559
345 7.38861
350 8.96433
355 8.19224
360 6.31456
365 7.91677
370 7.73581
375 5.16362
380 5.37575
385 8.8369
390 6.53873
395 6.66065
400 5.57573
405 7.87497
410 8.49067
415 6.67842
420 8.22755
425 6.33925
430 8.47159
435 7.5209
440 5.18669
445 7.05653
450 7.70217
455 6.74568
460 9.65506
465 6.57545
470 7.76061
475 6.00426
480 7.01329
485 5.96029
490 8.03934
495 8.23403
500 5.98155
505 5.72305
510 7.31531
515 4.58354
520 7.56902
525 9.49911
530 5.47759
535 6.83203
540 7.08022
545 4.81423
550 7.23235
555 8.52735
560 6.43574
565 5.31993
570 5.73908
575 6.03709
580 6.0455
585 6.94912
590 6.5683
595 6.76192
600 9.85307
Ex : 253
200 5.57286
205 5.77238
210 4.86578
215 4.88773
220 6.16222
225 5.62853
230 6.19588
235 5.18439
240 5.03604
245 4.44629
250 4.62096
255 6.3645
260 6.24682
265 4.54126
270 4.82216
275 4.91994
280 4.60236
285 5.15387
290 5.16672
295 6.01252
300 6.54846
305 3.63076
310 7.17808
315 4.65933
320 7.11536
325 4.67355
330 6.96232
335 6.57674
340 6.46334
345 6.95635
350 5.4563
355 6.40361
360 5.43356
365 7.0292
370 5.47561
375 7.037
380 5.88596
385 6.81642
390 7.12417
395 6.31005
400 5.73843
405 6.79456
410 7.10388
415 4.9357
420 6.1654
425 6.44144
430 6.46754
435 6.5888
440 6.39734
445 5.50598
450 5.84507
455 4.63841
460 6.30733
465 5.49413
470 5.57299
475 5.82738
480 5.4885
485 6.00572
490 5.68367
495 6.77188
500 6.35456
505 7.75411
510 4.94416
515 5.94558
520 5.94961
525 5.08792
530 6.33593
535 6.33585
540 6.49841
545 5.39094
550 4.61169
555 4.0338
560 4.64437
565 5.85478
570 5.01586
575 5.31471
580 5.55685
585 5.70586
590 6.20124
595 4.63961
600 2.79271
Ex : 258
200 3.9802
205 4.45699
210 3.40365
215 3.85932
220 3.36837
225 3.0077
230 4.21113
235 3.76171
240 3.42283
245 3.17546
250 2.98768
255 3.65616
260 3.99625
265 3.80303
270 5.43669
275 3.8368
280 4.64785
285 3.54631
290 4.22322
295 3.22334
300 3.31734
305 3.615
310 4.40373
315 4.0583
320 4.06247
325 4.25928
330 4.79791
335 4.7337
340 4.38433
345 4.52007
350 7.39558
355 5.67511
360 5.7773
365 5.19366
370 4.18059
375 4.83409
380 6.51782
385 5.05906
390 5.59515
395 5.44753
400 5.11359
405 4.53673
410 5.35189
415 5.91372
420 4.73103
425 4.9784
430 4.66925
435 5.18973
440 4.87831
445 5.49506
450 4.43743
455 4.40777
460 5.01684
465 4.87763
470 3.81528
475 4.08575
480 5.15661
485 5.39916
490 4.64081
495 4.6536
500 3.91703
505 4.4756
510 4.26305
515 4.57232
520 5.6085
525 3.89237
530 5.4966
535 5.48898
540 4.83767
545 5.60417
550 3.96723
555 3.38534
560 3.92649
565 4.95742
570 4.60465
575 4.25858
580 4.22676
585 4.30623
590 2.98237
595 5.83348
600 1.82271
Ex : 263
200 3.77508
205 3.71156
210 4.03535
215 3.12352
220 4.78504
225 2.96588
230 4.39927
235 2.4877
240 2.95028
245 3.11421
250 2.81307
255 3.83258
260 2.62399
265 2.86408
270 3.43399
275 2.87584
280 3.75936
285 3.12734
290 2.41416
295 3.72489
300 3.47876
305 3.8924
310 3.18548
315 4.49859
320 3.12751
325 3.57249
330 4.31884
335 3.25401
340 3.13536
345 2.98723
350 4.17401
355 4.64511
360 4.07905
365 3.76629
370 4.70736
375 4.513
380 3.78286
385 4.2396
390 4.35995
395 4.71746
400 3.77876
405 3.6
410 4.13569
415 4.57874
420 4.46465
425 2.94372
430 3.71202
435 3.92617
440 4.15749
445 4.53913
450 3.79462
455 3.46817
460 3.54265
465 5.58913
470 4.61406
475 4.37517
480 3.79525
485 3.97388
490 4.17032
495 3.30841
500 3.26438
505 2.76596
510 3.9691
515 3.67065
520 3.84767
525 5.16702
530 3.96475
535 3.88173
540 3.04097
545 3.28593
550 3.93717
555 3.48563
560 3.92288
565 3.19728
570 2.66576
575 3.64708
580 2.97628
585 3.41527
590 3.54504
595 4.08845
600 2.53306
Ex : 268
200 3.47328
205 2.41873
210 3.35328
215 3.55696
220 3.15006
225 2.51246
230 2.9411
235 2.95422
240 3.14755
245 2.31075
250 3.07231
255 3.04805
260 2.76108
265 2.37554
270 2.54784
275 2.66769
280 2.39813
285 2.08309
290 1.75131
295 2.44714
300 2.44185
305 2.75176
310 1.59473
315 2.57365
320 3.19708
325 3.48152
330 3.48648
335 3.18677
340 2.88378
345 2.4823
350 2.42143
355 3.67153
360 2.91047
365 4.00098
370 3.73953
375 3.27546
380 3.402
385 2.95655
390 3.60129
395 4.32067
400 4.69111
405 4.05073
410 3.89514
415 3.13464
420 2.83084
425 3.87482
430 2.85477
435 3.50301
440 2.70186
445 3.5789
450 3.5549
455 2.56745
460 2.71166
465 3.34938
470 3.65093
475 2.4863
480 3.30692
485 3.62091
490 2.74003
495 3.30943
500 3.78516
505 3.94252
510 2.19691
515 2.54863
520 3.04509
525 3.03153
530 2.5272
535 3.63068
540 2.93638
545 2.85581
550 2.08727
555 2.16994
560 4.08456
565 3.09587
570 3.45851
575 3.3828
580 2.28765
585 3.62312
590 2.90285
595 3.25514
600 2.8321
Ex : 273
200 2.18303
205 2.46439
210 2.2209
215 2.44405
220 2.34226
225 2.38015
230 2.22824
235 2.91218
240 2.29566
245 2.26415
250 1.39414
255 2.39958
260 1.8315
265 1.63472
270 2.28019
275 2.00456
280 2.11664
285 2.18415
290 1.87675
295 1.95859
300 1.96338
305 2.06532
310 1.59709
315 2.02416
320 2.75397
325 2.79312
330 3.24315
335 2.71533
340 2.40942
345 2.28346
350 2.8136
355 2.55381
360 2.02918
365 2.44781
370 2.23056
375 2.66992
380 2.44937
385 2.68283
390 3.53348
395 2.41173
400 2.65796
405 2.74547
410 2.32146
415 2.26931
420 3.29004
425 2.58082
430 3.3769
435 1.87255
440 2.64178
445 2.66262
450 2.77365
455 2.16818
460 2.84506
465 2.92629
470 3.18804
475 2.16812
480 1.94375
485 2.78928
490 2.50114
495 2.64384
500 2.51
505 2.25803
510 2.08887
515 2.45
520 2.70718
525 2.38766
530 2.12949
535 2.06741
540 2.28092
545 2.7457
550 2.38117
555 2.28615
560 3.08516
565 2.21648
570 2.17775
575 2.25661
580 1.4562
585 2.02802
590 2.70191
595 2.30233
600 1.38989
Ex : 278
200 1.76968
205 1.74654
210 1.84296
215 1.97004
220 1.63416
225 2.08759
230 1.70446
235 1.60549
240 1.70697
245 1.6508
250 1.54455
255 1.56501
260 1.95427
265 1.48893
270 2.1932
275 2.22187
280 1.77666
285 1.60041
290 1.69454
295 1.61959
300 2.00359
305 1.8653
310 1.57758
315 1.7012
320 1.23319
325 1.89702
330 2.48855
335 2.4273
340 2.03947
345 2.07441
350 2.23039
355 2.06629
360 2.0429
365 1.95266
370 2.21767
375 2.21661
380 2.95802
385 3.1958
390 2.45538
395 2.17297
400 2.30312
405 2.27031
410 2.52831
415 2.28053
420 2.6439
425 2.28294
430 2.50387
435 2.09224
440 1.87775
445 2.81524
450 2.22079
455 2.19846
460 1.88532
465 2.23448
470 1.6592
475 2.14647
480 1.70216
485 3.19129
490 1.80787
495 1.5851
500 2.02253
505 2.27314
510 1.95882
515 2.51208
520 2.96857
525 2.44387
530 1.62237
535 2.21519
540 1.67016
545 2.59386
550 2.66065
555 2.35591
560 2.44435
565 2.52229
570 1.52149
575 1.58941
580 1.67405
585 2.50844
590 2.57438
595 1.87268
600 5.62528
Ex : 283
200 1.37244
205 1.3224
210 1.25116
215 1.43502
220 1.28411
225 1.4823
230 1.442
235 1.22629
240 1.56613
245 1.63449
250 1.85265
255 1.53283
260 1.19202
265 1.36251
270 1.4372
275 1.60135
280 1.33862
285 1.29881
290 1.6645
295 1.53176
300 0.960152
305 1.33845
310 1.18051
315 1.42143
320 1.19598
325 1.73896
330 1.69621
335 1.87807
340 1.73686
345 2.30766
350 2.82803
355 2.61904
360 1.95203
365 1.50396
370 2.12458
375 1.90529
380 1.78997
385 1.73911
390 2.31641
395 2.10552
400 1.79248
405 2.06627
410 2.33471
415 2.13235
420 1.80665
425 1.8895
430 1.79739
435 2.2671
440 2.0441
445 1.85511
450 1.62878
455 2.05524
460 2.02283
465 1.85913
470 2.0011
475 2.01594
480 1.8013
485 2.25821
490 1.47409
495 1.70913
500 1.55237
505 1.46196
510 1.35528
515 1.49783
520 1.96062
525 1.46791
530 1.98636
535 1.98009
540 1.71268
545 1.67403
550 2.3461
555 1.40656
560 1.81439
565 1.82149
570 1.84858
575 2.02393
580 1.62779
585 1.54513
590 1.54878
595 1.27163
600 0.144707
Ex : 288
200 0.958504
205 0.854351
210 0.954026
215 1.25116
220 1.17751
225 1.14121
230 1.58054
235 1.281
240 1.33122
245 1.59756
250 1.4164
255 1.45001
260 0.95798
265 1.30806
270 1.33167
275 1.26561
280 1.24659
285 1.20991
290 1.26462
295 1.24775
300 1.27828
305 1.32082
310 1.73774
315 1.55216
320 0.951332
325 1.08807
330 1.23026
335 1.54994
340 2.0531
345 1.55612
350 2.16655
355 1.50704
360 1.60635
365 1.94625
370 1.72056
375 1.84618
380 2.04862
385 1.79683
390 1.69007
395 1.88895
400 1.97688
405 1.8828
410 1.81372
415 1.55985
420 1.44215
425 1.6171
430 1.69631
435 1.53046
440 1.52203
445 1.50933
450 1.65767
455 1.69628
460 1.55039
465 2.11924
470 1.59903
475 1.50786
480 1.63356
485 1.34245
490 1.20784
495 1.53462
500 1.4703
505 1.42438
510 1.52337
515 1.40715
520 1.32265
525 1.21963
530 1.25588
535 1.20015
540 1.34279
545 1.37921
550 1.28735
555 1.46661
560 1.16052
565 1.57559
570 1.59712
575 1.52852
580 1.38993
585 1.10012
590 1.31294
595 1.47871
600 0.168272
Ex : 293
200 1.04671
205 1.03075
210 0.88779
215 0.994937
220 1.05422
225 1.13045
230 1.0979
235 1.05134
240 1.0287
245 1.01583
250 0.976367
255 0.848715
260 1.14211
265 0.6877
270 1.27834
275 1.27667
280 1.33002
285 1.49025
290 1.25462
295 1.0831
300 1.10335
305 0.851976
310 0.666463
315 0.80761
320 1.00084
325 1.58569
330 1.35467
335 1.4612
340 1.43863
345 1.91005
350 1.45249
355 1.37026
360 1.65185
365 1.24345
370 1.48041
375 1.54139
380 1.47344
385 1.27777
390 1.64101
395 1.66896
400 1.50541
405 1.35291
410 1.54669
415 1.93083
420 1.32592
425 1.47796
430 1.43727
435 1.53522
440 1.42228
445 1.13386
450 1.25096
455 1.50644
460 1.51731
465 1.5412
470 1.31851
475 1.26915
480 1.61828
485 1.88712
490 1.44294
495 1.37213
500 0.965557
505 1.20998
510 1.15451
515 1.272
520 0.969851
525 1.0249
530 1.14535
535 1.26578
540 1.08462
545 1.23028
550 0.897809
555 1.26679
560 1.47989
565 1.10106
570 1.14674
575 1.28969
580 1.25987
585 1.51308
590 1.23607
595 1.45327
600 0.18384
Ex : 298
200 0.821971
205 0.93654
210 0.91078
215 0.854014
220 1.08401
225 1.12203
230 0.982771
235 0.768095
240 1.13608
245 0.857513
250 0.845666
255 0.88956
260 0.6391
265 1.19432
270 0.96352
275 0.807088
280 0.767157
285 0.620507
290 0.964603
295 1.08781
300 1.08458
305 1.0476
310 1.04483
315 0.921534
320 1.13521
325 1.07642
330 1.06106
335 1.1223
340 1.19822
345 1.19749
350 1.13301
355 1.34178
360 1.71848
365 1.39712
370 1.58205
375 1.20588
380 1.2353
385 1.27589
390 1.46849
395 1.35734
400 1.51082
405 1.58915
410 1.56432
415 1.21451
420 1.48818
425 1.32808
430 1.19914
435 1.60999
440 1.16994
445 1.72427
450 1.71943
455 1.2183
460 1.30341
465 1.08411
470 1.19669
475 1.25396
480 1.11185
485 1.11802
490 1.01421
495 1.01827
500 0.886708
505 1.42943
510 1.38544
515 0.835091
520 0.697308
525 0.958515
530 1.04925
535 0.865513
540 1.31965
545 1.30446
550 1.37352
555 0.825878
560 0.977858
565 1.01921
570 0.914224
575 0.848665
580 0.88042
585 1.23442
590 1.42459
595 1.18421
600 0.408676
Ex : 303
200 0.90947
205 0.739205
210 0.724736
215 0.939405
220 0.736224
225 0.544754
230 0.748645
235 0.759928
240 0.559614
245 1.09888
250 0.690414
255 0.808263
260 0.945796
265 0.833991
270 1.14393
275 0.73715
280 0.950094
285 1.10362
290 0.74755
295 1.04532
300 0.994936
305 1.02071
310 0.947325
315 0.655441
320 0.685681
325 1.18781
330 1.29893
335 1.39293
340 0.947675
345 1.37909
350 1.09791
355 0.996322
360 1.07729
365 1.19819
370 1.38437
375 1.25493
380 1.21995
385 1.26354
390 1.2795
395 1.24149
400 1.16447
405 1.27496
410 1.08744
415 1.31852
420 1.29897
425 1.48219
430 1.39685
435 1.21189
440 1.27073
445 1.11474
450 1.28634
455 1.10808
460 1.29155
465 1.2719
470 1.53074
475 0.899854
480 1.0858
485 0.873008
490 1.03553
495 1.00573
500 0.978294
505 0.972715
510 1.16744
515 1.01333
520 0.791663
525 0.807232
530 1.23611
535 1.0703
540 0.885566
545 0.882479
550 0.943505
555 0.833239
560 0.710484
565 0.916193
570 0.938869
575 0.856026
580 0.759858
585 0.894835
590 0.737767
595 1.03476
600 1.26705
Ex : 308
200 1.04885
205 0.757221
210 0.649955
215 0.59233
220 0.525714
225 0.90319
230 0.681683
235 0.858518
240 0.834961
245 0.883844
250 0.647258
255 0.567765
260 0.714216
265 0.671879
270 0.752527
275 0.556792
280 0.675277
285 0.690165
290 0.576412
295 0.738276
300 0.77746
305 0.883488
310 0.855671
315 0.72695
320 0.844564
325 0.969014
330 1.18375
335 1.22627
340 0.975541
345 1.08501
350 1.15718
355 0.919221
360 1.11579
365 1.18899
370 1.08922
375 1.31067
380 1.22999
385 1.40084
390 1.31385
395 1.25193
400 1.26139
405 1.14745
410 1.39764
415 1.09748
420 1.23538
425 1.01226
430 1.26225
435 1.12953
440 1.01029
445 1.24623
450 1.15675
455 1.01221
460 0.962833
465 1.07246
470 1.00854
475 1.09007
480 0.929874
485 1.06872
490 1.0504
495 1.2642
500 1.26057
505 0.865639
510 1.02234
515 0.706058
520 0.680736
525 0.785476
530 0.618319
535 0.870671
540 0.644299
545 0.735596
550 0.791234
555 0.57501
560 0.584475
565 0.4472
570 0.582256
575 0.860622
580 0.816864
585 0.542933
590 0.988445
595 0.767875
600 0.148923
Ex : 313
200 0.573534
205 0.814322
210 0.561153
215 0.556164
220 0.687079
225 0.515037
230 0.686019
235 0.579582
240 0.572655
245 0.63262
250 0.684479
255 0.649796
260 0.629495
265 0.680948
270 0.65231
275 0.72137
280 0.574916
285 0.512842
290 0.610624
295 0.699728
300 0.466376
305 0.66513
310 0.903039
315 0.61149
320 0.668132
325 1.06932
330 1.46306
335 1.57512
340 1.08875
345 1.15763
350 1.01951
355 1.13984
360 1.04016
365 1.35601
370 1.54806
375 1.55384
380 1.7077
385 1.63373
390 1.53778
395 1.65567
400 1.76787
405 1.96134
410 1.82496
415 1.79388
420 1.69508
425 1.54305
430 1.71949
435 1.75097
440 1.73297
445 1.58739
450 1.5878
455 1.272
460 1.55621
465 1.47955
470 1.3403
475 1.42983
480 1.21957
485 0.922238
490 1.12256
495 1.13691
500 0.992094
505 1.05722
510 0.92733
515 0.775704
520 0.964081
525 0.829977
530 0.796125
535 0.690216
540 0.624927
545 0.66009
550 0.685698
555 0.622176
560 0.717363
565 0.634887
570 0.673064
575 0.674591
580 0.658034
585 0.493201
590 0.640035
595 0.522091
600 1.70053
Ex : 318
200 0.650402
205 0.600665
210 0.50506
215 0.608458
220 0.685376
225 0.716619
230 0.592532
235 0.538882
240 0.66793
245 0.585336
250 0.739966
255 0.553084
260 0.630659
265 0.640345
270 0.642954
275 0.503177
280 0.486849
285 0.580637
290 0.458787
295 0.588992
300 0.720163
305 0.492786
310 0.920734
315 2.82767
320 2.16282
325 1.43042
330 1.6379
335 1.69044
340 2.21168
345 2.87096
350 3.15813
355 4.02125
360 4.99627
365 5.66319
370 6.59772
375 7.24408
380 7.90096
385 9.02849
390 9.84398
395 10.3464
400 10.9355
405 10.9372
410 10.9143
415 10.8435
420 10.7253
425 10.5557
430 9.93038
435 9.46148
440 9.01497
445 9.14421
450 8.92461
455 7.90409
460 7.71775
465 6.67686
470 6.65676
475 5.97209
480 5.50767
485 5.24224
490 4.54081
495 4.11812
500 3.68918
505 3.34785
510 3.11297
515 2.71443
520 2.29595
525 1.8736
530 1.97794
535 1.78807
540 1.67325
545 1.65896
550 1.32763
555 1.1342
560 1.21435
565 1.01903
570 0.928548
575 0.772523
580 0.794257
585 0.703209
590 0.833733
595 0.615982
600 0.0700964
Ex : 323
200 0.442741
205 0.490177
210 0.460325
215 0.524255
220 0.534722
225 0.585388
230 0.490424
235 0.463433
240 0.662389
245 0.70883
250 0.483708
255 0.581937
260 0.603566
265 0.443032
270 0.557732
275 0.552358
280 0.49596
285 0.594646
290 0.516452
295 0.409697
300 0.687635
305 0.416127
310 0.616244
315 17.1103
320 76.1977
325 31.983
330 7.14609
335 4.57801
340 5.44127
345 7.19983
350 9.36849
355 12.7413
360 15.6789
365 18.3889
370 21.8754
375 24.3493
380 28.2617
385 29.8933
390 34.0339
395 34.8161
400 37.6626
405 37.0076
410 36.6119
415 35.9591
420 34.9176
425 35.4814
430 33.1939
435 31.4156
440 30.0732
445 29.4915
450 27.7274
455 25.6517
460 24.3923
465 22.9862
470 20.7405
475 19.2609
480 17.5532
485 16.0672
490 14.0123
495 13.1772
500 11.9432
505 10.002
510 8.7183
515 7.68958
520 7.10311
525 6.21303
530 5.03136
535 4.58732
540 4.29877
545 3.6871
550 3.27819
555 3.06004
560 2.61026
565 2.48695
570 1.95669
575 1.37197
580 1.25133
585 1.06369
590 0.946181
595 0.895826
600 0.76225
Ex : 328
200 0.452257
205 0.465114
210 0.409056
215 0.468641
220 0.445513
225 0.515141
230 0.594282
235 0.466922
240 0.447605
245 0.563027
250 0.402852
255 0.494302
260 0.414089
265 0.551064
270 0.346686
275 0.447791
280 0.507424
285 0.485076
290 0.53194
295 0.591842
300 0.52624
305 0.661525
310 0.673867
315 4.6567
320 164.872
325 386.324
330 113.782
335 18.0385
340 8.23687
345 8.65398
350 9.5647
355 14.5494
360 18.7165
365 20.0672
370 22.1317
375 25.924
380 28.7722
385 31.8863
390 34.6976
395 36.4563
400 38.1113
405 38.4777
410 39.2651
415 38.1147
420 36.8354
425 35.1529
430 33.9291
435 32.1479
440 30.0421
445 29.8087
450 27.7524
455 26.8471
460 25.1023
465 22.3867
470 21.0396
475 18.5991
480 16.7262
485 15.7054
490 14.5161
495 13.237
500 11.7963
505 10.5721
510 9.49167
515 8.76485
520 7.0923
525 6.37555
530 5.3663
535 5.2146
540 4.29239
545 4.01467
550 3.36608
555 3.10491
560 2.65548
565 2.39744
570 2.33813
575 1.7455
580 1.60941
585 1.14622
590 1.28101
595 1.01156
600 0.325002
Ex : 333
200 0.422087
205 0.514383
210 0.446366
215 0.472329
220 0.519805
225 0.573794
230 0.576554
235 0.592312
240 0.407702
245 0.441019
250 0.513828
255 0.459122
260 0.516237
265 0.393416
270 0.585765
275 0.374726
280 0.514139
285 0.550577
290 0.572366
295 0.58096
300 0.695809
305 0.768109
310 0.635937
315 0.826016
320 21.5906
325 437.375
330 735.994
335 188.762
340 26.9277
345 8.7664
350 7.37733
355 7.51487
360 10.4377
365 14.4271
370 15.6451
375 15.9566
380 16.7671
385 19.8286
390 21.7325
395 22.2644
400 22.9902
405 23.2637
410 24.6333
415 24.594
420 23.2846
425 21.7591
430 20.054
435 19.7772
440 18.8954
445 18.1467
450 17.4896
455 15.0803
460 14.3758
465 12.8196
470 12.0006
475 11.399
480 10.6742
485 9.4373
490 9.20557
495 7.99164
500 7.22432
505 6.6805
510 5.59547
515 5.37901
520 4.69391
525 4.18868
530 3.51646
535 3.31583
540 2.95326
545 2.75837
550 2.26773
555 2.13415
560 2.03363
565 1.73548
570 1.67472
575 1.51259
580 1.49982
585 1.17917
590 1.10602
595 0.927356
600 1.08943
Ex : 338
200 0.419277
205 0.51407
210 0.489796
215 0.467244
220 0.463979
225 0.579836
230 0.541919
235 0.523634
240 0.414316
245 0.391998
250 0.601602
255 0.432821
260 0.549083
265 0.456386
270 0.542471
275 0.42891
280 0.534287
285 0.443771
290 0.579153
295 0.568093
300 0.556172
305 0.643736
310 0.652035
315 0.823956
320 1.15897
325 39.4975
330 630.611
335 932.998
340 229.473
345 30.7368
350 8.19222
355 5.28576
360 5.13344
365 6.44786
370 10.6391
375 11.1863
380 10.5621
385 11.2573
390 13.9233
395 14.4472
400 14.3008
405 14.2211
410 15.5464
415 15.9419
420 15.823
425 13.992
430 13.151
435 12.5239
440 12.3565
445 11.8052
450 10.347
455 9.78047
460 9.19433
465 8.79439
470 8.00385
475 7.41704
480 7.29087
485 6.53759
490 5.91427
495 5.19797
500 4.87147
505 4.75384
510 4.29924
515 4.22611
520 3.53231
525 2.95919
530 2.78128
535 2.49843
540 2.23148
545 2.09261
550 2.03007
555 1.61297
560 1.41445
565 1.51374
570 1.53356
575 1.35856
580 1.09466
585 1.0403
590 0.893888
595 0.957122
600 0.427695
Ex : 343
200 0.411934
205 0.363642
210 0.395039
215 0.305419
220 0.502019
225 0.446099
230 0.44998
235 0.484615
240 0.389762
245 0.454588
250 0.343507
255 0.332026
260 0.455062
265 0.493182
270 0.438222
275 0.563895
280 0.602383
285 0.449399
290 0.477039
295 0.587629
300 0.605398
305 0.677678
310 0.550505
315 0.62248
320 0.759203
325 1.4844
330 44.0296
335 712.447
340 1048.29
345 249.194
350 32.6717
355 7.72775
360 4.12344
365 3.52617
370 4.45809
375 8.36164
380 10.6496
385 10.632
390 11.6294
395 11.5351
400 11.2789
405 12.0768
410 12.8973
415 13.5764
420 13.2656
425 12.0959
430 11.5651
435 11.1897
440 10.9097
445 10.2405
450 9.59413
455 8.86224
460 7.88265
465 7.54425
470 7.11162
475 7.17746
480 6.35074
485 5.5662
490 5.16448
495 5.38679
500 4.60775
505 4.33615
510 4.1605
515 3.66972
520 3.2707
525 2.9135
530 2.54292
535 2.35105
540 2.06097
545 2.09758
550 1.92322
555 2.00589
560 1.52647
565 1.52707
570 1.35245
575 1.1486
580 1.01577
585 0.972316
590 0.855666
595 0.948844
600 2.2644
Ex : 348
200 0.374447
205 0.510154
210 0.499117
215 0.424537
220 0.428652
225 0.446391
230 0.403686
235 0.424897
240 0.386977
245 0.377825
250 0.34018
255 0.375142
260 0.399216
265 0.290388
270 0.420841
275 0.420808
280 0.395476
285 0.41919
290 0.464909
295 0.397511
300 0.502274
305 0.512046
310 0.511063
315 0.623905
320 0.648546
325 0.962494
330 1.7253
335 44.9922
340 714.445
345 1075.92
350 276.118
355 35.4075
360 7.44914
365 3.94229
370 3.21106
375 3.36533
380 8.03208
385 12.9877
390 14.7386
395 14.2448
400 12.3867
405 13.1172
410 14.9628
415 16.1147
420 15.5956
425 13.9989
430 12.8131
435 12.3955
440 12.6159
445 12.0574
450 10.4474
455 9.67914
460 8.8822
465 8.16934
470 8.19329
475 7.34966
480 6.61262
485 6.19315
490 5.75819
495 5.08107
500 4.98523
505 4.25938
510 3.93756
515 3.6738
520 3.20021
525 2.81468
530 2.79254
535 2.79884
540 2.14696
545 2.06
550 1.90061
555 1.7331
560 1.66217
565 1.65885
570 1.42343
575 1.22385
580 1.10835
585 0.95637
590 0.982062
595 0.769109
600 0.366512
Ex : 353
200 0.447126
205 0.341092
210 0.432548
215 0.422272
220 0.415687
225 0.338502
230 0.348491
235 0.400514
240 0.392374
245 0.45707
250 0.333122
255 0.35716
260 0.404498
265 0.463203
270 0.368661
275 0.356037
280 0.345273
285 0.363932
290 0.335553
295 0.407436
300 0.446426
305 0.453665
310 0.447708
315 0.541455
320 0.552791
325 0.702506
330 1.09059
335 1.69193
340 45.3351
345 745.427
350 1089.15
355 268.938
360 34.2939
365 7.0615
370 3.73236
375 3.06116
380 4.16129
385 9.89478
390 17.2405
395 17.9485
400 15.3353
405 14.2218
410 15.7701
415 17.9514
420 17.7684
425 14.8411
430 13.6585
435 13.4201
440 13.5996
445 13.3695
450 11.5289
455 10.4532
460 9.64132
465 8.91815
470 8.5586
475 7.8217
480 7.29977
485 6.81969
490 6.21003
495 5.25243
500 5.16769
505 4.62617
510 4.07319
515 4.00954
520 3.57449
525 2.8553
530 2.75416
535 2.57352
540 2.49306
545 2.2714
550 2.03877
555 1.7728
560 1.67083
565 1.60738
570 1.47065
575 1.17353
580 1.05271
585 0.962497
590 0.899591
595 0.804467
600 2.66456
Ex : 358
200 0.307644
205 0.39307
210 0.485356
215 0.334316
220 0.301339
225 0.278949
230 0.320314
235 0.304565
240 0.379362
245 0.300108
250 0.334771
255 0.365803
260 0.329378
265 0.332582
270 0.353175
275 0.383419
280 0.278192
285 0.362543
290 0.358041
295 0.356908
300 0.375038
305 0.39199
310 0.3999
315 0.528459
320 0.549325
325 0.496464
330 0.851452
335 1.10801
340 1.8241
345 44.6347
350 714.883
355 1112.08
360 276.158
365 35.1842
370 6.99907
375 3.9311
380 4.25999
385 6.9149
390 11.8024
395 16.9734
400 15.9194
405 14.4442
410 15.4559
415 16.6142
420 16.309
425 14.5176
430 13.3827
435 12.5649
440 13.3168
445 12.0828
450 11.5251
455 10.6239
460 9.49195
465 8.93448
470 8.26821
475 7.79425
480 7.24366
485 6.73731
490 6.04415
495 5.92868
500 5.17868
505 4.94531
510 4.55473
515 4.04226
520 3.79445
525 3.17566
530 3.11426
535 2.72488
540 2.39242
545 2.10436
550 2.07084
555 1.73517
560 1.53878
565 1.39989
570 1.38384
575 1.26139
580 1.12044
585 0.953656
590 0.900111
595 0.822166
600 0.576943
Ex : 363
200 0.302353
205 0.362379
210 0.320963
215 0.302628
220 0.235267
225 0.278289
230 0.368809
235 0.271898
240 0.358446
245 0.370812
250 0.266371
255 0.294977
260 0.360403
265 0.278774
270 0.302788
275 0.339191
280 0.353381
285 0.375582
290 0.388743
295 0.355801
300 0.409864
305 0.425466
310 0.357095
315 0.33797
320 0.537682
325 0.553628
330 0.697864
335 0.753295
340 1.04316
345 1.65649
350 40.8462
355 688.984
360 1091.45
365 283.917
370 35.6635
375 7.26781
380 5.62844
385 8.77096
390 11.9829
395 13.9341
400 15.8662
405 17.861
410 18.6381
415 19.5108
420 17.9868
425 15.5864
430 14.8507
435 14.9653
440 14.7982
445 13.5843
450 12.3832
455 11.3206
460 10.7494
465 9.78227
470 9.55711
475 8.71261
480 8.07022
485 7.29435
490 6.90293
495 5.9299
500 5.59854
505 5.42133
510 4.90575
515 4.22535
520 4.06362
525 3.43329
530 3.13677
535 2.85145
540 2.49313
545 2.50739
550 2.34475
555 1.89128
560 1.79422
565 1.63281
570 1.39777
575 1.21625
580 1.09464
585 0.917992
590 0.712388
595 0.655267
600 0.301575
Ex : 368
200 0.271327
205 0.335938
210 0.321256
215 0.346269
220 0.251264
225 0.301362
230 0.250606
235 0.348853
240 0.260679
245 0.300325
250 0.241102
255 0.265882
260 0.357913
265 0.370847
270 0.303512
275 0.428319
280 0.322861
285 0.339928
290 0.441233
295 0.368483
300 0.335071
305 0.377152
310 0.399796
315 0.321545
320 0.335104
325 0.415151
330 0.469244
335 0.60217
340 0.843383
345 1.10685
350 1.69305
355 33.2393
360 663.117
365 1115.97
370 294.028
375 37.3733
380 9.22436
385 10.7298
390 14.9517
395 17.149
400 16.5688
405 19.2547
410 24.286
415 25.7163
420 23.248
425 19.6514
430 17.4588
435 17.4207
440 17.5918
445 16.9813
450 15.8501
455 13.1344
460 12.4299
465 11.3403
470 11.1232
475 10.384
480 9.16971
485 8.23747
490 7.55442
495 7.05231
500 6.43912
505 5.63303
510 5.2929
515 4.59358
520 4.05784
525 3.77033
530 3.4444
535 2.86538
540 2.78338
545 2.36189
550 2.24662
555 2.15567
560 1.92016
565 1.64773
570 1.52171
575 1.25655
580 1.04454
585 0.957975
590 0.843101
595 0.744654
600 0.59649
Ex : 373
200 0.32303
205 0.326861
210 0.263435
215 0.293843
220 0.271196
225 0.338702
230 0.337364
235 0.29849
240 0.29668
245 0.226812
250 0.323916
255 0.331919
260 0.29412
265 0.304842
270 0.323771
275 0.269967
280 0.309221
285 0.317124
290 0.351797
295 0.282609
300 0.354416
305 0.361016
310 0.398901
315 0.465808
320 0.367415
325 0.486818
330 0.510986
335 0.526002
340 0.644726
345 0.862356
350 1.092
355 1.64957
360 39.215
365 672.889
370 1089.22
375 290.584
380 37.8209
385 11.6748
390 14.8584
395 17.3798
400 16.2037
405 15.6845
410 19.9304
415 25.7581
420 24.5261
425 20.4045
430 17.9594
435 16.7976
440 17.1118
445 17.031
450 15.0969
455 13.173
460 12.2472
465 11.2523
470 10.6699
475 9.86404
480 9.18766
485 8.03897
490 7.49956
495 6.86995
500 6.14152
505 5.73399
510 5.15598
515 4.66065
520 4.15339
525 3.82593
530 3.48851
535 3.0748
540 2.76504
545 2.43037
550 2.45605
555 2.1021
560 1.85057
565 1.57765
570 1.37852
575 1.29203
580 1.04099
585 0.993069
590 0.810802
595 0.764494
600 1.01224
Ex : 378
200 0.193412
205 0.343364
210 0.227745
215 0.265115
220 0.208252
225 0.260969
230 0.251671
235 0.246493
240 0.248737
245 0.293964
250 0.204791
255 0.304159
260 0.309604
265 0.291183
270 0.341169
275 0.324243
280 0.294137
285 0.34406
290 0.289646
295 0.292414
300 0.350806
305 0.277304
310 0.300723
315 0.379119
320 0.424103
325 0.312484
330 0.461583
335 0.429285
340 0.520803
345 0.661895
350 0.728932
355 1.06587
360 1.59203
365 37.2157
370 678.381
375 1129.96
380 303.378
385 41.6489
390 15.2794
395 13.9212
400 12.4509
405 11.7462
410 14.3876
415 17.7663
420 19.8171
425 17.5776
430 14.9894
435 13.5379
440 13.724
445 13.1789
450 12.0528
455 10.9346
460 9.73997
465 9.29909
470 8.98426
475 8.82616
480 8.11965
485 7.46486
490 6.94473
495 6.38444
500 5.94002
505 5.47157
510 4.93256
515 4.53732
520 3.82957
525 3.71005
530 3.35115
535 3.17255
540 3.00638
545 2.6818
550 2.29143
555 2.00706
560 1.75677
565 1.41281
570 1.28413
575 1.18403
580 1.08461
585 0.840016
590 0.883141
595 0.821386
600 0.641809
Ex : 383
200 0.258732
205 0.287295
210 0.248156
215 0.234192
220 0.216472
225 0.317639
230 0.283859
235 0.254338
240 0.236365
245 0.24087
250 0.229162
255 0.213081
260 0.234343
265 0.282922
270 0.246869
275 0.239291
280 0.249202
285 0.254821
290 0.246276
295 0.248314
300 0.290407
305 0.30805
310 0.298322
315 0.312246
320 0.324724
325 0.357142
330 0.392316
335 0.367192
340 0.388031
345 0.452177
350 0.636738
355 0.737027
360 1.01681
365 1.71084
370 34.6567
375 663.275
380 1158.18
385 314.154
390 46.5961
395 15.8409
400 12.0739
405 12.7448
410 14.304
415 16.1648
420 16.1647
425 16.4257
430 15.6858
435 14.8206
440 14.3434
445 13.2489
450 11.6529
455 10.6927
460 10.1053
465 9.44672
470 8.87131
475 8.46326
480 8.05951
485 7.23221
490 6.58008
495 6.64954
500 6.10888
505 5.47704
510 5.01959
515 4.67305
520 4.0557
525 3.59182
530 3.19413
535 2.9604
540 2.71722
545 2.61037
550 2.15148
555 2.04286
560 1.84944
565 1.64326
570 1.54544
575 1.26713
580 0.996243
585 0.909642
590 0.681576
595 0.635441
600 0.437427
Ex : 388
200 0.251563
205 0.180895
210 0.274709
215 0.28376
220 0.258205
225 0.319788
230 0.326697
235 0.241068
240 0.309273
245 0.282984
250 0.197315
255 0.240361
260 0.206315
265 0.22581
270 0.365005
275 0.251906
280 0.22675
285 0.32077
290 0.28095
295 0.270084
300 0.341792
305 0.259428
310 0.344742
315 0.308124
320 0.3124
325 0.332524
330 0.340382
335 0.383001
340 0.419438
345 0.507678
350 0.554996
355 0.616086
360 0.759405
365 1.03113
370 1.79438
375 36.5768
380 683.248
385 1148.96
390 318.755
395 50.67
400 17.7829
405 15.218
410 17.7186
415 20.0564
420 18.9268
425 16.8298
430 17.0124
435 18.2569
440 17.4141
445 16.0047
450 13.8992
455 11.8315
460 10.9354
465 10.4896
470 9.86197
475 9.82602
480 8.89566
485 7.99716
490 7.19392
495 6.6894
500 6.1984
505 5.77648
510 5.06771
515 4.58637
520 4.14391
525 3.70058
530 3.44016
535 3.17017
540 2.93704
545 2.46279
550 2.22449
555 1.8964
560 1.70097
565 1.51905
570 1.58579
575 1.27629
580 0.9235
585 0.837639
590 0.748398
595 0.635121
600 0.743744
Ex : 393
200 0.271236
205 0.293919
210 0.215299
215 0.270121
220 0.275603
225 0.183028
230 0.207809
235 0.248232
240 0.256017
245 0.208133
250 0.198169
255 0.250467
260 0.193917
265 0.290005
270 0.237776
275 0.273403
280 0.179757
285 0.252857
290 0.297943
295 0.247204
300 0.231184
305 0.257199
310 0.269436
315 0.264153
320 0.263104
325 0.274093
330 0.32198
335 0.381258
340 0.362363
345 0.371121
350 0.470119
355 0.512109
360 0.574457
365 0.79364
370 1.02628
375 1.6371
380 32.2778
385 681.903
390 1190.18
395 330.482
400 51.7146
405 17.9227
410 16.6346
415 20.136
420 20.0059
425 16.9688
430 14.9439
435 15.4041
440 17.7448
445 16.3236
450 14.3048
455 12.1679
460 10.5918
465 9.82379
470 9.50556
475 9.08822
480 8.13104
485 7.53264
490 6.89434
495 6.02717
500 6.08069
505 5.36532
510 5.07484
515 4.70541
520 4.18741
525 3.7945
530 3.43198
535 2.95657
540 2.66943
545 2.6274
550 2.09145
555 2.09961
560 1.87841
565 1.70096
570 1.45541
575 1.14833
580 0.998647
585 0.79678
590 0.747609
595 0.624142
600 0.286936
Ex : 398
200 0.198549
205 0.282981
210 0.249792
215 0.233667
220 0.175695
225 0.182035
230 0.250246
235 0.260629
240 0.30344
245 0.238584
250 0.256645
255 0.191319
260 0.179087
265 0.25282
270 0.260977
275 0.211146
280 0.230682
285 0.256297
290 0.216486
295 0.230105
300 0.242742
305 0.225594
310 0.250901
315 0.228888
320 0.241744
325 0.264667
330 0.26892
335 0.305755
340 0.303544
345 0.395032
350 0.368144
355 0.359159
360 0.480292
365 0.606766
370 0.796418
375 0.965894
380 1.76233
385 34.9161
390 687.513
395 1185.69
400 321.152
405 44.9195
410 14.0075
415 13.3178
420 13.1361
425 11.4794
430 10.0296
435 9.13375
440 10.8522
445 12.7466
450 11.8993
455 9.84353
460 8.52652
465 7.74574
470 7.49171
475 7.36765
480 6.67181
485 6.33657
490 6.00211
495 5.55418
500 5.31492
505 4.75699
510 4.47764
515 4.13185
520 3.76494
525 3.40148
530 3.21087
535 2.93132
540 2.80315
545 2.39237
550 2.19083
555 2.01173
560 1.75578
565 1.5714
570 1.39619
575 1.08471
580 0.951753
585 0.884593
590 0.646906
595 0.576802
600 0.498007
Ex : 403
200 0.23969
205 0.22947
210 0.172572
215 0.23573
220 0.179092
225 0.264022
230 0.259402
235 0.232256
240 0.228093
245 0.194484
250 0.225533
255 0.235869
260 0.239597
265 0.272791
270 0.282601
275 0.217428
280 0.236483
285 0.235811
290 0.221741
295 0.26807
300 0.23946
305 0.2457
310 0.245946
315 0.231836
320 0.282804
325 0.303852
330 0.229192
335 0.26673
340 0.358295
345 0.381304
350 0.382395
355 0.36308
360 0.466624
365 0.485569
370 0.50967
375 0.702772
380 1.01439
385 1.85689
390 38.5435
395 694.689
400 1158.34
405 315.51
410 42.0423
415 11.2813
420 8.13313
425 7.32388
430 5.99919
435 6.55551
440 6.6579
445 7.59383
450 8.9814
455 9.19394
460 7.8596
465 7.27125
470 6.75062
475 6.23471
480 5.94262
485 5.41206
490 5.26771
495 4.9308
500 4.95972
505 4.54925
510 4.24194
515 3.85387
520 3.52546
525 3.03296
530 3.12024
535 2.80017
540 2.5904
545 2.27102
550 2.2911
555 1.94501
560 1.75897
565 1.54388
570 1.33301
575 1.18631
580 0.972303
585 0.748198
590 0.685579
595 0.558408
600 0.844396
Ex : 408
200 0.226108
205 0.246478
210 0.238955
215 0.329413
220 0.252609
225 0.255048
230 0.274702
235 0.265561
240 0.254526
245 0.285426
250 0.256611
255 0.222168
260 0.249683
265 0.209263
270 0.2126
275 0.235051
280 0.217976
285 0.250243
290 0.225451
295 0.257618
300 0.262688
305 0.282339
310 0.252578
315 0.238918
320 0.284109
325 0.249348
330 0.25171
335 0.277533
340 0.353254
345 0.294942
350 0.356313
355 0.374632
360 0.323881
365 0.36534
370 0.525977
375 0.608261
380 0.769701
385 1.03667
390 1.85678
395 35.4229
400 714.198
405 1188.6
410 312.46
415 42.5399
420 11.023
425 7.10397
430 6.5734
435 6.52382
440 6.66449
445 6.82492
450 6.96511
455 8.32479
460 9.0549
465 7.85143
470 7.45954
475 7.04924
480 6.44668
485 5.81093
490 5.51247
495 5.01584
500 5.03696
505 4.73467
510 4.11129
515 3.69057
520 3.51942
525 3.43928
530 2.98188
535 2.7763
540 2.66058
545 2.44164
550 2.11709
555 1.9134
560 1.68977
565 1.51031
570 1.44371
575 1.07605
580 0.856176
585 0.712943
590 0.703147
595 0.563532
600 0.309119
Ex : 413
200 0.263831
205 0.244869
210 0.217864
215 0.219753
220 0.217363
225 0.210636
230 0.215293
235 0.208435
240 0.208894
245 0.227148
250 0.206784
255 0.21707
260 0.210833
265 0.208824
270 0.266791
275 0.206715
280 0.22698
285 0.257113
290 0.253374
295 0.212561
300 0.210093
305 0.256639
310 0.272023
315 0.279296
320 0.238626
325 0.210156
330 0.318518
335 0.362405
340 0.40969
345 0.287852
350 0.273515
355 0.338283
360 0.353286
365 0.366499
370 0.374293
375 0.521995
380 0.63263
385 0.699287
390 1.10658
395 1.78755
400 41.3324
405 735.226
410 1184.43
415 303.376
420 41.0716
425 10.1433
430 6.42883
435 6.42363
440 6.70045
445 6.56184
450 6.13497
455 6.28888
460 7.11276
465 8.55476
470 7.79396
475 7.16131
480 6.59907
485 5.57991
490 5.32458
495 4.94582
500 4.90343
505 4.42169
510 4.1884
515 3.89375
520 3.5935
525 3.20995
530 2.88504
535 2.6567
540 2.5268
545 2.2879
550 2.1188
555 1.89602
560 1.71704
565 1.58135
570 1.31212
575 1.15927
580 0.965724
585 0.768225
590 0.722196
595 0.54593
600 0.672887
Ex : 418
200 0.290236
205 0.255512
210 0.233357
215 0.257046
220 0.258881
225 0.192648
230 0.230353
235 0.205483
240 0.23262
245 0.213466
250 0.192792
255 0.194717
260 0.252347
265 0.235464
270 0.216478
275 0.197695
280 0.212388
285 0.224176
290 0.254827
295 0.207698
300 0.221224
305 0.24832
310 0.240916
315 0.275817
320 0.234623
325 0.268924
330 0.227655
335 0.22145
340 0.336581
345 0.271253
350 0.29478
355 0.338169
360 0.330781
365 0.354702
370 0.423524
375 0.431392
380 0.507831
385 0.644229
390 0.774355
395 1.13588
400 1.8087
405 38.4329
410 709.209
415 1176.12
420 313.745
425 40.2142
430 8.21178
435 4.62146
440 4.5766
445 4.76349
450 4.22924
455 4.01148
460 4.34977
465 4.89509
470 6.6173
475 6.6007
480 5.44502
485 5.0478
490 4.69118
495 4.24214
500 4.10138
505 3.76769
510 3.64771
515 3.35955
520 3.08976
525 2.98019
530 2.83699
535 2.40928
540 2.41804
545 2.06364
550 1.92811
555 1.89538
560 1.71653
565 1.48858
570 1.33467
575 1.0395
580 0.876532
585 0.771291
590 0.637112
595 0.598868
600 0.346922
Ex : 423
200 0.249292
205 0.22056
210 0.206287
215 0.220011
220 0.221752
225 0.273751
230 0.255497
235 0.182178
240 0.252015
245 0.251785
250 0.261849
255 0.217769
260 0.225525
265 0.197878
270 0.249512
275 0.206182
280 0.165582
285 0.188461
290 0.177893
295 0.18296
300 0.245862
305 0.210364
310 0.23108
315 0.26665
320 0.267425
325 0.23777
330 0.25452
335 0.258756
340 0.279662
345 0.292128
350 0.325666
355 0.231387
360 0.254607
365 0.307934
370 0.337386
375 0.4288
380 0.535007
385 0.517481
390 0.546138
395 0.668623
400 1.09714
405 1.69918
410 38.759
415 744.857
420 1173.27
425 295.111
430 37.0627
435 6.89126
440 3.24248
445 3.16614
450 3.06397
455 2.82516
460 2.82365
465 3.11078
470 3.42945
475 5.00447
480 5.65272
485 4.69768
490 4.24182
495 4.03983
500 3.60457
505 3.37945
510 3.17507
515 2.93331
520 2.92527
525 2.63208
530 2.5977
535 2.32882
540 2.11441
545 1.85564
550 1.9533
555 1.58977
560 1.59909
565 1.4486
570 1.23217
575 0.983911
580 0.900068
585 0.743601
590 0.598972
595 0.667584
600 0.49421
Ex : 428
200 0.214912
205 0.220381
210 0.248422
215 0.209604
220 0.277786
225 0.239397
230 0.188662
235 0.224817
240 0.204616
245 0.238994
250 0.271029
255 0.222838
260 0.217068
265 0.213019
270 0.211826
275 0.285403
280 0.232701
285 0.250108
290 0.189544
295 0.227643
300 0.216306
305 0.267296
310 0.229329
315 0.251235
320 0.220901
325 0.266576
330 0.258018
335 0.229598
340 0.331109
345 0.243651
350 0.396776
355 0.302152
360 0.291204
365 0.365786
370 0.329114
375 0.317685
380 0.414429
385 0.388412
390 0.477889
395 0.59053
400 0.86652
405 1.06789
410 1.71017
415 41.5837
420 728.003
425 1173.24
430 308.396
435 38.0497
440 6.54339
445 2.79012
450 2.70426
455 2.39217
460 2.27709
465 2.27647
470 2.4631
475 2.84456
480 4.10576
485 5.37001
490 4.69759
495 3.95986
500 3.61726
505 3.22662
510 2.87798
515 2.81476
520 2.68402
525 2.63713
530 2.39934
535 2.14435
540 2.02006
545 1.90072
550 1.74959
555 1.62874
560 1.49575
565 1.33852
570 1.13302
575 0.952234
580 0.929205
585 0.832484
590 0.694355
595 0.581784
600 0.404654
Ex : 433
200 0.204685
205 0.201906
210 0.249307
215 0.282342
220 0.244063
225 0.224316
230 0.173397
235 0.171517
240 0.173634
245 0.210737
250 0.189995
255 0.183925
260 0.268377
265 0.248839
270 0.232016
275 0.272851
280 0.196183
285 0.223338
290 0.135975
295 0.180691
300 0.227697
305 0.234715
310 0.245427
315 0.215273
320 0.259546
325 0.239061
330 0.227392
335 0.213951
340 0.227828
345 0.244641
350 0.240439
355 0.216834
360 0.322773
365 0.332156
370 0.300753
375 0.374884
380 0.346675
385 0.44275
390 0.486851
395 0.49706
400 0.663568
405 0.701368
410 0.995538
415 1.73734
420 46.2407
425 787.77
430 1180.55
435 293.235
440 35.9641
445 6.29418
450 2.49505
455 2.29959
460 2.41417
465 2.19874
470 2.2677
475 2.35171
480 2.49327
485 3.47905
490 4.98897
495 4.66366
500 3.72686
505 3.44336
510 3.04722
515 2.83841
520 2.38728
525 2.48214
530 2.22313
535 2.14002
540 1.91739
545 1.76583
550 1.70743
555 1.49449
560 1.43627
565 1.20845
570 1.19005
575 1.05393
580 0.881074
585 0.759403
590 0.605093
595 0.623311
600 0.358428
Ex : 438
200 0.186123
205 0.362806
210 0.204124
215 0.293235
220 0.284145
225 0.200853
230 0.206137
235 0.204663
240 0.215804
245 0.250244
250 0.257532
255 0.240086
260 0.237722
265 0.216074
270 0.24479
275 0.199057
280 0.221914
285 0.217658
290 0.194599
295 0.227136
300 0.215671
305 0.253803
310 0.271905
315 0.227042
320 0.199644
325 0.243195
330 0.232819
335 0.224781
340 0.304983
345 0.22715
350 0.284221
355 0.322621
360 0.310715
365 0.28318
370 0.292065
375 0.372369
380 0.371621
385 0.337881
390 0.396254
395 0.49212
400 0.537928
405 0.643485
410 0.754375
415 1.10845
420 1.68001
425 44.6237
430 769.56
435 1240.42
440 313.189
445 38.4327
450 6.41807
455 2.55161
460 2.35932
465 2.43539
470 2.34006
475 2.16848
480 2.315
485 2.42587
490 2.83662
495 4.4759
500 4.63905
505 3.53273
510 3.20819
515 2.86803
520 2.47103
525 2.28142
530 2.07418
535 2.10078
540 1.90644
545 1.7526
550 1.68376
555 1.56531
560 1.50743
565 1.25296
570 1.08142
575 0.978017
580 0.886188
585 0.705686
590 0.586554
595 0.565642
600 0.214065
Ex : 443
200 0.238325
205 0.244345
210 0.197621
215 0.30033
220 0.178659
225 0.178563
230 0.269261
235 0.192952
240 0.215419
245 0.256233
250 0.196105
255 0.3035
260 0.246598
265 0.234992
270 0.263168
275 0.211129
280 0.236527
285 0.231436
290 0.22599
295 0.20934
300 0.20927
305 0.199192
310 0.271899
315 0.210101
320 0.281885
325 0.238731
330 0.244401
335 0.222129
340 0.268141
345 0.273311
350 0.249877
355 0.237812
360 0.295033
365 0.315626
370 0.315948
375 0.273911
380 0.377315
385 0.40705
390 0.399011
395 0.47472
400 0.509048
405 0.566648
410 0.660349
415 0.741738
420 1.04382
425 1.554
430 48.5144
435 819.574
440 1264.48
445 317.045
450 38.9355
455 6.66088
460 2.71549
465 2.29623
470 2.34197
475 2.15448
480 2.03638
485 2.15407
490 2.27619
495 2.41598
500 3.63584
505 4.4663
510 3.57597
515 2.99669
520 2.63728
525 2.44881
530 2.11838
535 1.91116
540 1.67685
545 1.63608
550 1.65644
555 1.5086
560 1.36394
565 1.34537
570 1.14882
575 1.00567
580 0.84515
585 0.686712
590 0.622704
595 0.641746
600 0.290058
Ex : 448
200 0.243311
205 0.245779
210 0.216336
215 0.20637
220 0.184043
225 0.196861
230 0.211872
235 0.215627
240 0.246358
245 0.278132
250 0.239615
255 0.179967
260 0.204405
265 0.241485
270 0.185769
275 0.229755
280 0.250225
285 0.20316
290 0.280049
295 0.269537
300 0.210732
305 0.226459
310 0.226536
315 0.277807
320 0.276486
325 0.232094
330 0.236384
335 0.252824
340 0.260987
345 0.271069
350 0.244694
355 0.25949
360 0.352922
365 0.35713
370 0.365904
375 0.260024
380 0.324179
385 0.330525
390 0.399535
395 0.404442
400 0.389085
405 0.460945
410 0.538184
415 0.655876
420 0.752126
425 1.09873
430 1.667
435 49.7272
440 868.266
445 1319.79
450 329.832
455 40.3527
460 6.88539
465 2.69763
470 2.3529
475 2.38375
480 2.20066
485 2.06796
490 2.02395
495 2.13138
500 2.1008
505 3.03623
510 4.31611
515 3.59656
520 2.8049
525 2.59724
530 2.23674
535 1.85577
540 1.75683
545 1.60992
550 1.53232
555 1.43482
560 1.30098
565 1.21989
570 1.15544
575 0.930046
580 0.815866
585 0.799066
590 0.65243
595 0.524838
600 0.302233
Ex : 453
200 0.226719
205 0.170893
210 0.194749
215 0.193587
220 0.213467
225 0.157848
230 0.216429
235 0.20878
240 0.231107
245 0.240876
250 0.26316
255 0.237336
260 0.221056
265 0.204115
270 0.22283
275 0.23715
280 0.216897
285 0.25284
290 0.232469
295 0.27368
300 0.200281
305 0.212299
310 0.210032
315 0.239924
320 0.22921
325 0.184452
330 0.229184
335 0.240367
340 0.236818
345 0.236294
350 0.227538
355 0.221555
360 0.286644
365 0.304058
370 0.312134
375 0.279824
380 0.324104
385 0.297017
390 0.377336
395 0.415791
400 0.369119
405 0.488256
410 0.466368
415 0.5249
420 0.611877
425 0.74408
430 1.03004
435 1.66378
440 52.3811
445 950.457
450 1390.95
455 325.953
460 40.2266
465 6.95191
470 2.61734
475 2.07807
480 2.17738
485 2.1735
490 1.89258
495 1.89748
500 1.98138
505 2.0425
510 2.31846
515 3.77215
520 3.59905
525 2.72627
530 2.34413
535 2.21891
540 1.82114
545 1.58715
550 1.51983
555 1.46657
560 1.24523
565 1.33706
570 1.22369
575 0.927591
580 0.778189
585 0.680243
590 0.683551
595 0.647763
600 0.261611
Ex : 458
200 0.179329
205 0.199775
210 0.244074
215 0.190264
220 0.245525
225 0.187395
230 0.203011
235 0.196477
240 0.194974
245 0.218949
250 0.234003
255 0.151404
260 0.220082
265 0.208059
270 0.235242
275 0.22659
280 0.228713
285 0.195483
290 0.232587
295 0.216838
300 0.190263
305 0.274179
310 0.214585
315 0.199304
320 0.22843
325 0.286543
330 0.293335
335 0.276946
340 0.294726
345 0.316679
350 0.297935
355 0.323131
360 0.351113
365 0.331823
370 0.309569
375 0.352938
380 0.334676
385 0.311055
390 0.354686
395 0.330208
400 0.373199
405 0.397679
410 0.459252
415 0.470413
420 0.665401
425 0.616339
430 0.783694
435 1.01748
440 1.6174
445 58.2688
450 952.453
455 1441.89
460 349.987
465 42.9999
470 7.0622
475 2.54641
480 2.12359
485 2.12203
490 2.09752
495 1.9446
500 1.76424
505 1.71043
510 1.80463
515 1.93201
520 3.04132
525 3.75477
530 2.87592
535 2.23849
540 2.06992
545 1.83316
550 1.47857
555 1.30336
560 1.24478
565 1.17976
570 0.97783
575 1.02668
580 0.836226
585 0.714724
590 0.596263
595 0.551064
600 0.508726
Ex : 463
200 0.211109
205 0.188003
210 0.210093
215 0.262516
220 0.182918
225 0.257456
230 0.172334
235 0.215219
240 0.183717
245 0.214716
250 0.211956
255 0.183084
260 0.221263
265 0.221181
270 0.253971
275 0.221797
280 0.197307
285 0.242476
290 0.249686
295 0.219762
300 0.287662
305 0.207668
310 0.204005
315 0.186653
320 0.225627
325 0.243583
330 0.227613
335 0.234938
340 0.255956
345 0.260262
350 0.260635
355 0.221409
360 0.289689
365 0.283882
370 0.344916
375 0.325192
380 0.347203
385 0.334759
390 0.335825
395 0.327836
400 0.299333
405 0.376384
410 0.432939
415 0.445104
420 0.431378
425 0.556627
430 0.569091
435 0.750619
440 1.10274
445 1.71034
450 55.1636
455 996.944
460 1530.33
465 371.097
470 45.3971
475 7.25641
480 2.63025
485 1.97178
490 2.24099
495 2.00773
500 1.8848
505 1.68566
510 1.68174
515 1.64064
520 1.74418
525 2.38195
530 3.43351
535 2.98083
540 2.14409
545 1.98913
550 1.74806
555 1.39592
560 1.4101
565 1.22204
570 1.02454
575 0.890017
580 0.846659
585 0.729368
590 0.696657
595 0.58638
600 0.476803
Ex : 468
200 0.222639
205 0.191605
210 0.195409
215 0.211305
220 0.20421
225 0.189155
230 0.193948
235 0.252334
240 0.183195
245 0.18441
250 0.202363
255 0.176877
260 0.169378
265 0.216629
270 0.192592
275 0.213641
280 0.239899
285 0.210531
290 0.232455
295 0.196297
300 0.255292
305 0.211605
310 0.240377
315 0.219527
320 0.208666
325 0.168631
330 0.201175
335 0.256111
340 0.224991
345 0.238611
350 0.253855
355 0.257341
360 0.243013
365 0.300571
370 0.215599
375 0.261595
380 0.250685
385 0.325831
390 0.300408
395 0.259069
400 0.353366
405 0.3468
410 0.357422
415 0.373508
420 0.440595
425 0.473875
430 0.434928
435 0.54211
440 0.729074
445 0.955343
450 1.71971
455 63.3043
460 1028.21
465 1620.06
470 389.581
475 46.9286
480 7.38903
485 2.43458
490 1.89576
495 2.06573
500 2.03108
505 1.80683
510 1.6153
515 1.57808
520 1.72458
525 1.73397
530 2.02891
535 3.03609
540 3.0495
545 2.09231
550 1.95032
555 1.76065
560 1.53521
565 1.28516
570 1.10501
575 0.965887
580 0.889877
585 0.729017
590 0.620446
595 0.637631
600 0.305127
Ex : 473
200 0.18498
205 0.202596
210 0.21264
215 0.216296
220 0.202883
225 0.211948
230 0.213796
235 0.203914
240 0.202343
245 0.166081
250 0.219292
255 0.207474
260 0.172579
265 0.159343
270 0.208176
275 0.240577
280 0.239862
285 0.203569
290 0.268278
295 0.252096
300 0.180255
305 0.206042
310 0.21939
315 0.19834
320 0.177206
325 0.165625
330 0.26264
335 0.231176
340 0.240201
345 0.206913
350 0.256823
355 0.253828
360 0.356291
365 0.357751
370 0.291707
375 0.293986
380 0.343215
385 0.337456
390 0.307151
395 0.303881
400 0.320572
405 0.351429
410 0.307124
415 0.424686
420 0.399394
425 0.420101
430 0.476403
435 0.502579
440 0.612276
445 0.715997
450 1.23691
455 1.97158
460 72.9817
465 1141.34
470 1605
475 369.237
480 44.7656
485 7.04212
490 2.55813
495 1.80702
500 1.99492
505 1.71589
510 1.68636
515 1.59537
520 1.55798
525 1.67432
530 1.58866
535 1.76792
540 2.52564
545 3.12836
550 2.3328
555 1.81424
560 1.70456
565 1.40632
570 1.11608
575 0.931681
580 0.879219
585 0.765655
590 0.735265
595 0.604553
600 0.876805
Ex : 478
200 0.235849
205 0.290534
210 0.227482
215 0.232718
220 0.250557
225 0.299055
230 0.248318
235 0.250225
240 0.226813
245 0.307286
250 0.208664
255 0.251924
260 0.275564
265 0.275606
270 0.202467
275 0.26661
280 0.224953
285 0.390076
290 0.28062
295 0.252498
300 0.217831
305 0.24775
310 0.289785
315 0.248013
320 0.254285
325 0.27587
330 0.297148
335 0.350294
340 0.295412
345 0.326096
350 0.294155
355 0.335048
360 0.364814
365 0.355894
370 0.338969
375 0.386503
380 0.345688
385 0.376434
390 0.406402
395 0.396749
400 0.399826
405 0.379375
410 0.422994
415 0.455907
420 0.496045
425 0.387531
430 0.47029
435 0.559175
440 0.588016
445 0.752988
450 1.04726
455 1.40907
460 2.37219
465 81.3569
470 1163.58
475 1627.91
480 393.681
485 47.8514
490 7.66139
495 2.48974
500 1.83019
505 2.03502
510 1.94365
515 1.77142
520 1.6756
525 1.53459
530 1.79244
535 1.72205
540 1.57313
545 2.16158
550 2.94089
555 2.40539
560 1.73287
565 1.58919
570 1.52657
575 1.16788
580 0.992962
585 0.831028
590 0.72902
595 0.711246
600 0.941821
Ex : 483
200 0.289788
205 0.281947
210 0.249551
215 0.178641
220 0.28266
225 0.257647
230 0.26201
235 0.241869
240 0.260526
245 0.211173
250 0.207605
255 0.242989
260 0.227079
265 0.236763
270 0.225396
275 0.22762
280 0.283038
285 0.285195
290 0.246656
295 0.238861
300 0.233652
305 0.235737
310 0.238641
315 0.238538
320 0.252264
325 0.311533
330 0.326063
335 0.270513
340 0.255389
345 0.326829
350 0.263968
355 0.25598
360 0.260812
365 0.303779
370 0.375168
375 0.328198
380 0.301093
385 0.304748
390 0.376428
395 0.310581
400 0.352139
405 0.44032
410 0.385948
415 0.394798
420 0.40938
425 0.452835
430 0.452093
435 0.520434
440 0.476985
445 0.621818
450 0.714446
455 0.856739
460 1.41899
465 2.31375
470 63.9885
475 1167.3
480 1780.51
485 424.504
490 51.2142
495 8.01173
500 2.70642
505 1.84679
510 1.79426
515 2.05268
520 1.80726
525 1.74504
530 1.66399
535 1.6934
540 1.49783
545 1.46831
550 1.67926
555 2.42823
560 2.50557
565 1.82685
570 1.40395
575 1.4121
580 1.0741
585 0.786527
590 0.749858
595 0.634377
600 0.142523
Ex : 488
200 0.332564
205 0.28476
210 0.268582
215 0.272578
220 0.248036
225 0.270135
230 0.324585
235 0.238313
240 0.222706
245 0.294015
250 0.283598
255 0.252462
260 0.292157
265 0.188155
270 0.223284
275 0.337357
280 0.33228
285 0.291731
290 0.247955
295 0.29565
300 0.256126
305 0.342553
310 0.257404
315 0.260014
320 0.285776
325 0.280502
330 0.274895
335 0.331156
340 0.290933
345 0.357261
350 0.356619
355 0.343367
360 0.318433
365 0.370499
370 0.339905
375 0.317386
380 0.349488
385 0.301529
390 0.339692
395 0.392209
400 0.376121
405 0.345098
410 0.395265
415 0.520147
420 0.3927
425 0.375163
430 0.431082
435 0.421345
440 0.540973
445 0.604876
450 0.59263
455 0.8679
460 1.07165
465 1.63862
470 2.65337
475 78.2971
480 1264.8
485 1773.59
490 419.591
495 50.9237
500 7.8737
505 2.70108
510 1.86899
515 1.67054
520 1.93435
525 1.81748
530 1.87899
535 1.60474
540 1.50088
545 1.52962
550 1.43453
555 1.54705
560 1.984
565 2.48031
570 1.84117
575 1.30001
580 1.10375
585 0.950623
590 0.774724
595 0.662713
600 0.677756
Ex : 493
200 0.252846
205 0.23991
210 0.261398
215 0.240782
220 0.329059
225 0.341021
230 0.286398
235 0.283235
240 0.322193
245 0.244738
250 0.293288
255 0.275303
260 0.326105
265 0.24846
270 0.213705
275 0.255538
280 0.258112
285 0.265709
290 0.299581
295 0.244289
300 0.237184
305 0.305127
310 0.352058
315 0.224641
320 0.249444
325 0.256297
330 0.326917
335 0.334725
340 0.246078
345 0.304727
350 0.286738
355 0.354605
360 0.336514
365 0.253028
370 0.377756
375 0.297765
380 0.335007
385 0.327879
390 0.332985
395 0.291595
400 0.412636
405 0.351459
410 0.393515
415 0.433439
420 0.350566
425 0.419356
430 0.476617
435 0.438031
440 0.451523
445 0.552708
450 0.598326
455 0.748322
460 0.847041
465 1.13618
470 1.43021
475 2.19127
480 72.4758
485 1261.54
490 1880.37
495 438.244
500 52.7271
505 8.11797
510 2.6244
515 1.86139
520 1.72809
525 1.95269
530 1.73751
535 1.76728
540 1.5307
545 1.47064
550 1.36476
555 1.28304
560 1.32753
565 1.58018
570 2.04439
575 1.78701
580 1.33653
585 0.995019
590 0.88443
595 0.708605
600 1.04183
Ex : 498
200 0.263704
205 0.24581
210 0.333096
215 0.324845
220 0.256537
225 0.298868
230 0.318514
235 0.326125
240 0.313743
245 0.356753
250 0.358685
255 0.32286
260 0.38774
265 0.369065
270 0.352893
275 0.342185
280 0.239009
285 0.329728
290 0.300164
295 0.295352
300 0.262877
305 0.341026
310 0.258659
315 0.289502
320 0.359393
325 0.321194
330 0.315349
335 0.358272
340 0.298258
345 0.267591
350 0.343081
355 0.321995
360 0.383308
365 0.356756
370 0.391725
375 0.305537
380 0.415006
385 0.372039
390 0.350453
395 0.472742
400 0.406147
405 0.435195
410 0.387402
415 0.393381
420 0.479576
425 0.551024
430 0.423157
435 0.396802
440 0.434465
445 0.579564
450 0.62684
455 0.609359
460 0.806032
465 0.95631
470 1.12581
475 1.55408
480 2.53096
485 90.8895
490 1348.37
495 1830.65
500 426.895
505 51.6106
510 7.99656
515 2.81975
520 2.07075
525 1.93066
530 1.89415
535 1.82737
540 1.67058
545 1.57634
550 1.5005
555 1.4863
560 1.37832
565 1.33272
570 1.43642
575 1.92884
580 1.89373
585 1.17627
590 0.886468
595 0.7841
600 0.470632
Ex : 503
200 0.392541
205 0.291158
210 0.299944
215 0.314664
220 0.367707
225 0.306335
230 0.330993
235 0.276182
240 0.28276
245 0.34472
250 0.332296
255 0.28079
260 0.293409
265 0.332112
270 0.347543
275 0.360012
280 0.266717
285 0.274573
290 0.313046
295 0.314427
300 0.304376
305 0.268859
310 0.36003
315 0.308494
320 0.369917
325 0.431594
330 0.374484
335 0.365009
340 0.359959
345 0.411827
350 0.365385
355 0.360838
360 0.356869
365 0.366857
370 0.46019
375 0.379806
380 0.373066
385 0.416795
390 0.414464
395 0.455581
400 0.406098
405 0.435654
410 0.455063
415 0.610808
420 0.422904
425 0.488691
430 0.45202
435 0.445539
440 0.527166
445 0.499989
450 0.546031
455 0.653791
460 0.706954
465 0.805983
470 0.969652
475 1.23329
480 1.63906
485 2.35842
490 81.8809
495 1355.37
500 1902.95
505 440.202
510 53.2189
515 8.31079
520 2.92333
525 1.86116
530 1.92468
535 1.95157
540 1.82354
545 1.6836
550 1.5066
555 1.30795
560 1.20223
565 1.22402
570 1.10555
575 1.18956
580 1.38725
585 1.47888
590 1.24361
595 0.885159
600 1.16023
Ex : 508
200 0.337257
205 0.309819
210 0.247437
215 0.315994
220 0.321325
225 0.301047
230 0.415069
235 0.273785
240 0.297007
245 0.295021
250 0.307015
255 0.304878
260 0.235074
265 0.336853
270 0.251337
275 0.381265
280 0.312509
285 0.22224
290 0.286802
295 0.330268
300 0.331142
305 0.296405
310 0.315293
315 0.257724
320 0.316682
325 0.305593
330 0.361245
335 0.475294
340 0.444194
345 0.416614
350 0.423737
355 0.389833
360 0.328495
365 0.320417
370 0.336612
375 0.4035
380 0.461982
385 0.418555
390 0.402604
395 0.388214
400 0.364887
405 0.456931
410 0.366288
415 0.563493
420 0.467678
425 0.494745
430 0.489544
435 0.4255
440 0.58321
445 0.6171
450 0.478702
455 0.509453
460 0.650213
465 0.74308
470 0.758366
475 0.845537
480 1.15575
485 1.55296
490 2.65488
495 88.8834
500 1371.41
505 1922.41
510 463.421
515 56.0666
520 8.6436
525 2.93031
530 1.87476
535 1.73291
540 1.74422
545 1.78659
550 1.45863
555 1.55217
560 1.36027
565 1.0749
570 1.09053
575 1.11188
580 1.01027
585 1.05849
590 1.38328
595 1.13295
600 1.95418
Ex : 513
200 0.262056
205 0.349202
210 0.281916
215 0.324998
220 0.298505
225 0.259917
230 0.267315
235 0.300138
240 0.232411
245 0.240901
250 0.272683
255 0.273201
260 0.375566
265 0.386614
270 0.340915
275 0.31486
280 0.32182
285 0.309114
290 0.233264
295 0.345643
300 0.330009
305 0.408492
310 0.397049
315 0.293545
320 0.335033
325 0.341817
330 0.408815
335 0.335079
340 0.390271
345 0.355291
350 0.411749
355 0.339348
360 0.430737
365 0.380222
370 0.425114
375 0.392681
380 0.399935
385 0.371029
390 0.391601
395 0.379441
400 0.438804
405 0.364661
410 0.393451
415 0.399214
420 0.566314
425 0.476174
430 0.563764
435 0.448927
440 0.456637
445 0.451088
450 0.502498
455 0.527392
460 0.65213
465 0.64136
470 0.760846
475 0.868841
480 0.948683
485 1.30989
490 1.75525
495 2.54124
500 84.8034
505 1368.91
510 1974.58
515 479.382
520 57.867
525 8.65628
530 3.10494
535 2.04297
540 1.70002
545 1.74644
550 1.91103
555 1.54186
560 1.44912
565 1.32798
570 1.11265
575 1.09767
580 0.8865
585 0.822249
590 0.754974
595 1.10053
600 1.66867
Ex : 518
200 0.376589
205 0.355392
210 0.330442
215 0.312686
220 0.382058
225 0.308392
230 0.322045
235 0.320982
240 0.485073
245 0.337202
250 0.341787
255 0.294918
260 0.273481
265 0.330088
270 0.369538
275 0.36187
280 0.309296
285 0.362662
290 0.334695
295 0.371356
300 0.289054
305 0.32284
310 0.38135
315 0.394763
320 0.307993
325 0.363094
330 0.352538
335 0.37762
340 0.327015
345 0.315583
350 0.334796
355 0.339577
360 0.329094
365 0.355841
370 0.400004
375 0.369126
380 0.319068
385 0.392936
390 0.457633
395 0.529216
400 0.440919
405 0.458863
410 0.396107
415 0.553315
420 0.446129
425 0.547146
430 0.475986
435 0.486425
440 0.543928
445 0.506929
450 0.515581
455 0.52386
460 0.66798
465 0.73125
470 0.691582
475 0.674726
480 0.842753
485 1.0297
490 1.27684
495 1.5762
500 2.60125
505 85.7147
510 1318.21
515 1944.62
520 479.266
525 57.8961
530 8.70387
535 2.7812
540 2.00586
545 1.64135
550 1.59229
555 1.61174
560 1.49982
565 1.35533
570 1.14868
575 1.09054
580 1.00573
585 0.911138
590 0.87296
595 0.75586
600 1.18176
Ex : 523
200 0.286542
205 0.330408
210 0.281555
215 0.327405
220 0.37823
225 0.28054
230 0.3052
235 0.421219
240 0.322547
245 0.383339
250 0.340424
255 0.29755
260 0.348244
265 0.33145
270 0.373401
275 0.388393
280 0.402656
285 0.333072
290 0.389845
295 0.317197
300 0.288867
305 0.338456
310 0.364971
315 0.400949
320 0.431469
325 0.391262
330 0.393839
335 0.474976
340 0.379761
345 0.413444
350 0.442445
355 0.379525
360 0.372648
365 0.353676
370 0.405829
375 0.426353
380 0.3409
385 0.42839
390 0.385949
395 0.375602
400 0.368063
405 0.436017
410 0.359847
415 0.381129
420 0.382226
425 0.49649
430 0.455817
435 0.512145
440 0.517067
445 0.46429
450 0.50746
455 0.606697
460 0.552952
465 0.62896
470 0.63044
475 0.712985
480 0.710986
485 0.80148
490 0.945303
495 1.09447
500 1.5392
505 2.56376
510 77.8616
515 1295.4
520 1949.31
525 497.56
530 60.0124
535 9.07728
540 2.80302
545 1.78324
550 1.46828
555 1.36122
560 1.60597
565 1.40954
570 1.26998
575 1.12385
580 0.904998
585 0.885201
590 0.838059
595 0.821637
600 1.02424
Ex : 528
200 0.447414
205 0.315801
210 0.360937
215 0.299798
220 0.35242
225 0.319527
230 0.267127
235 0.356367
240 0.295134
245 0.377716
250 0.372668
255 0.429127
260 0.372845
265 0.342551
270 0.354929
275 0.402114
280 0.379419
285 0.373185
290 0.401145
295 0.395649
300 0.43152
305 0.428875
310 0.36998
315 0.408367
320 0.261443
325 0.313585
330 0.362428
335 0.398221
340 0.31675
345 0.449333
350 0.433199
355 0.412344
360 0.416359
365 0.397887
370 0.39295
375 0.401058
380 0.355079
385 0.434829
390 0.383896
395 0.491068
400 0.485519
405 0.398407
410 0.482239
415 0.455127
420 0.401212
425 0.468711
430 0.631112
435 0.510876
440 0.563161
445 0.543484
450 0.478648
455 0.553635
460 0.5282
465 0.512195
470 0.66098
475 0.650639
480 0.677248
485 0.861749
490 0.911512
495 0.99526
500 1.38529
505 1.82267
510 2.73262
515 73.4052
520 1276.74
525 1920.57
530 480.858
535 57.9628
540 8.55028
545 2.65785
550 1.78429
555 1.4248
560 1.37931
565 1.37214
570 1.28862
575 1.16345
580 0.897122
585 0.976998
590 0.892646
595 0.830147
600 0.55867
Ex : 533
200 0.37631
205 0.275668
210 0.336926
215 0.362067
220 0.299397
225 0.267029
230 0.343279
235 0.390503
240 0.314351
245 0.386118
250 0.329381
255 0.392649
260 0.310234
265 0.416408
270 0.38727
275 0.399671
280 0.435324
285 0.377436
290 0.3906
295 0.294908
300 0.336749
305 0.275588
310 0.309457
315 0.299303
320 0.302923
325 0.373274
330 0.385745
335 0.348711
340 0.49074
345 0.374126
350 0.357426
355 0.341344
360 0.347697
365 0.518639
370 0.468631
375 0.385213
380 0.475414
385 0.382409
390 0.363684
395 0.412846
400 0.400708
405 0.327958
410 0.390629
415 0.349471
420 0.476201
425 0.598562
430 0.518548
435 0.555209
440 0.460148
445 0.331881
450 0.592783
455 0.498069
460 0.570147
465 0.593243
470 0.574449
475 0.552863
480 0.684771
485 0.886498
490 0.94049
495 0.846608
500 1.07015
505 1.23093
510 1.69856
515 2.54485
520 73.3778
525 1239.42
530 1934.77
535 498.405
540 59.9325
545 8.64923
550 2.62611
555 1.68776
560 1.41843
565 1.26534
570 1.12214
575 1.24796
580 1.07204
585 0.994339
590 0.74227
595 0.809689
600 0.59448
Ex : 538
200 0.387752
205 0.469503
210 0.537765
215 0.336245
220 0.310987
225 0.436996
230 0.436687
235 0.420786
240 0.433488
245 0.421495
250 0.333098
255 0.377023
260 0.355466
265 0.338201
270 0.475595
275 0.449479
280 0.391706
285 0.441887
290 0.374271
295 0.475775
300 0.418036
305 0.364595
310 0.374864
315 0.417935
320 0.309304
325 0.34068
330 0.434188
335 0.379461
340 0.282788
345 0.451044
350 0.366561
355 0.469719
360 0.447741
365 0.431343
370 0.409899
375 0.421705
380 0.349193
385 0.353679
390 0.440079
395 0.45736
400 0.434158
405 0.443431
410 0.521127
415 0.547638
420 0.506604
425 0.463012
430 0.434424
435 0.52884
440 0.40419
445 0.47483
450 0.559476
455 0.54922
460 0.537218
465 0.569357
470 0.514917
475 0.560031
480 0.664145
485 0.692432
490 0.71522
495 0.751446
500 0.797758
505 1.19496
510 1.29356
515 1.58455
520 2.57512
525 60.7152
530 1191.82
535 1937.45
540 518.548
545 62.4523
550 9.07051
555 2.64903
560 1.66667
565 1.29066
570 1.16714
575 1.05169
580 1.1278
585 1.08493
590 0.976326
595 0.907062
600 1.09196
Ex : 543
200 0.321313
205 0.379112
210 0.462566
215 0.365865
220 0.420556
225 0.366708
230 0.548028
235 0.419402
240 0.351204
245 0.443103
250 0.389309
255 0.378371
260 0.358037
265 0.440777
270 0.436406
275 0.37453
280 0.365195
285 0.409327
290 0.360426
295 0.390584
300 0.317695
305 0.386014
310 0.39807
315 0.460061
320 0.427365
325 0.47334
330 0.391489
335 0.422734
340 0.397172
345 0.473248
350 0.444773
355 0.558867
360 0.422342
365 0.434832
370 0.440699
375 0.525953
380 0.365827
385 0.485937
390 0.366164
395 0.368763
400 0.399273
405 0.402257
410 0.413048
415 0.526985
420 0.549042
425 0.4739
430 0.477581
435 0.50498
440 0.480636
445 0.468756
450 0.463328
455 0.530881
460 0.512169
465 0.736246
470 0.639437
475 0.631964
480 0.55265
485 0.66349
490 0.653631
495 0.590326
500 0.72984
505 1.03738
510 1.06761
515 1.2294
520 1.69429
525 2.52692
530 58.8249
535 1149.46
540 1910.63
545 527.789
550 63.6861
555 9.22259
560 2.52936
565 1.53146
570 1.1737
575 1.06263
580 0.98151
585 1.00357
590 0.871754
595 0.867245
600 1.07605
Ex : 548
200 0.363763
205 0.377022
210 0.390691
215 0.4383
220 0.485803
225 0.400417
230 0.469827
235 0.408344
240 0.488322
245 0.377848
250 0.409617
255 0.373876
260 0.500961
265 0.443203
270 0.391705
275 0.476225
280 0.357236
285 0.320781
290 0.428443
295 0.384166
300 0.393488
305 0.358774
310 0.395358
315 0.43041
320 0.456499
325 0.340658
330 0.373005
335 0.436921
340 0.413185
345 0.414515
350 0.403686
355 0.4189
360 0.386926
365 0.43659
370 0.459782
375 0.493618
380 0.532306
385 0.489098
390 0.451911
395 0.496206
400 0.469016
405 0.383524
410 0.64929
415 0.422384
420 0.568086
425 0.626875
430 0.425843
435 0.427852
440 0.52512
445 0.592904
450 0.47421
455 0.531274
460 0.473011
465 0.50247
470 0.670352
475 0.676523
480 0.696692
485 0.633719
490 0.612283
495 0.692403
500 0.721868
505 0.84617
510 0.888526
515 1.06591
520 1.27458
525 1.67
530 2.38167
535 63.3759
540 1158.63
545 1896.5
550 524.167
555 62.9708
560 8.87429
565 2.40782
570 1.45078
575 1.05254
580 1.00735
585 0.943236
590 1.05005
595 0.800067
600 0.554998
Ex : 553
200 0.334813
205 0.402253
210 0.40286
215 0.389778
220 0.397714
225 0.485111
230 0.346104
235 0.444051
240 0.458826
245 0.467585
250 0.362787
255 0.463498
260 0.361272
265 0.442284
270 0.442332
275 0.437117
280 0.438259
285 0.451322
290 0.344415
295 0.394237
300 0.282475
305 0.367455
310 0.378121
315 0.443019
320 0.31149
325 0.371809
330 0.484442
335 0.422227
340 0.385795
345 0.357883
350 0.454561
355 0.532382
360 0.437451
365 0.473935
370 0.462517
375 0.368879
380 0.4326
385 0.468942
390 0.340141
395 0.438792
400 0.496813
405 0.625972
410 0.547277
415 0.495852
420 0.568073
425 0.588542
430 0.512594
435 0.501561
440 0.417442
445 0.449422
450 0.578255
455 0.595784
460 0.65258
465 0.636172
470 0.460212
475 0.499767
480 0.654276
485 0.56202
490 0.593685
495 0.68534
500 0.640019
505 0.697899
510 0.819047
515 0.856899
520 1.02323
525 1.16008
530 1.47974
535 2.23343
540 55.4674
545 1089.06
550 1851.3
555 521.402
560 62.8357
565 8.95701
570 2.34609
575 1.38079
580 1.01688
585 0.855976
590 0.859155
595 0.978841
600 1.03496
Ex : 558
200 0.284936
205 0.484184
210 0.45696
215 0.45578
220 0.443691
225 0.42142
230 0.42061
235 0.427778
240 0.43641
245 0.579435
250 0.421577
255 0.429281
260 0.348397
265 0.366503
270 0.506091
275 0.465147
280 0.475366
285 0.36374
290 0.42339
295 0.386726
300 0.399019
305 0.392136
310 0.345023
315 0.350724
320 0.397266
325 0.437758
330 0.392282
335 0.528944
340 0.436245
345 0.465409
350 0.523219
355 0.524152
360 0.589867
365 0.408644
370 0.550147
375 0.469188
380 0.633055
385 0.340387
390 0.504506
395 0.435855
400 0.460989
405 0.553603
410 0.406939
415 0.461469
420 0.540568
425 0.460017
430 0.388353
435 0.55554
440 0.557584
445 0.56991
450 0.51959
455 0.594539
460 0.663887
465 0.527797
470 0.747305
475 0.72237
480 0.534654
485 0.47875
490 0.719067
495 0.64105
500 0.577739
505 0.664239
510 0.81308
515 0.813792
520 0.854628
525 1.08629
530 1.05114
535 1.65338
540 2.46455
545 52.0852
550 1031.06
555 1836.63
560 523.435
565 62.9468
570 9.01799
575 2.17558
580 1.2625
585 1.00656
590 0.772181
595 0.892
600 0.369039
Ex : 563
200 0.409624
205 0.385223
210 0.382334
215 0.484363
220 0.465251
225 0.376928
230 0.567745
235 0.615443
240 0.277069
245 0.425443
250 0.442297
255 0.494797
260 0.400253
265 0.438827
270 0.45447
275 0.352808
280 0.458349
285 0.495396
290 0.422559
295 0.409785
300 0.350843
305 0.288664
310 0.414181
315 0.448079
320 0.475046
325 0.464189
330 0.493322
335 0.543394
340 0.454887
345 0.314162
350 0.481443
355 0.467595
360 0.357021
365 0.571642
370 0.556221
375 0.430879
380 0.476569
385 0.398836
390 0.386968
395 0.509512
400 0.688494
405 0.530143
410 0.566439
415 0.448794
420 0.432642
425 0.446801
430 0.512742
435 0.561567
440 0.482594
445 0.555744
450 0.513139
455 0.55427
460 0.591109
465 0.544693
470 0.583544
475 0.586807
480 0.600435
485 0.642024
490 0.599651
495 0.667761
500 0.627052
505 0.773008
510 0.577453
515 0.626377
520 0.727469
525 0.878722
530 1.01168
535 1.16366
540 1.5613
545 2.38029
550 49.8127
555 999.979
560 1727.08
565 499.83
570 60.1738
575 8.43538
580 2.09368
585 1.1724
590 0.976001
595 0.890935
600 0.941849
Ex : 568
200 0.412292
205 0.42714
210 0.44472
215 0.468073
220 0.513291
225 0.588
230 0.52135
235 0.489057
240 0.386948
245 0.419821
250 0.519013
255 0.455988
260 0.516465
265 0.481397
270 0.286275
275 0.395803
280 0.465153
285 0.485207
290 0.437108
295 0.446566
300 0.474361
305 0.520851
310 0.567355
315 0.481608
320 0.578649
325 0.50265
330 0.472078
335 0.376653
340 0.498053
345 0.518326
350 0.509079
355 0.459948
360 0.445677
365 0.526292
370 0.408835
375 0.390801
380 0.487084
385 0.531566
390 0.652416
395 0.446857
400 0.507583
405 0.528189
410 0.57056
415 0.483417
420 0.428749
425 0.538774
430 0.566749
435 0.467022
440 0.590417
445 0.569187
450 0.59112
455 0.57193
460 0.536891
465 0.508466
470 0.609622
475 0.514158
480 0.535211
485 0.6701
490 0.628664
495 0.67644
500 0.705294
505 0.672924
510 0.71859
515 0.690035
520 0.673486
525 0.872821
530 0.885709
535 0.985457
540 1.31809
545 1.63444
550 2.13573
555 38.274
560 907.904
565 1699.59
570 515.241
575 62.5497
580 8.47146
585 2.00184
590 1.15365
595 0.899585
600 0.774457
Ex : 573
200 0.391283
205 0.551197
210 0.404205
215 0.341639
220 0.41083
225 0.493728
230 0.449405
235 0.394452
240 0.424153
245 0.391038
250 0.518179
255 0.386445
260 0.458241
265 0.440731
270 0.554532
275 0.480685
280 0.377391
285 0.414032
290 0.442135
295 0.469317
300 0.398666
305 0.445202
310 0.362571
315 0.451352
320 0.41015
325 0.43806
330 0.407293
335 0.541108
340 0.538896
345 0.416497
350 0.44577
355 0.363336
360 0.422588
365 0.474678
370 0.546802
375 0.403194
380 0.54376
385 0.444049
390 0.609888
395 0.547502
400 0.491895
405 0.455634
410 0.54063
415 0.461976
420 0.464023
425 0.537542
430 0.471772
435 0.52091
440 0.462321
445 0.658038
450 0.458659
455 0.621269
460 0.616288
465 0.65591
470 0.763942
475 0.577701
480 0.632282
485 0.616132
490 0.637156
495 0.688343
500 0.587585
505 0.568783
510 0.540979
515 0.726286
520 0.707371
525 0.737373
530 0.808287
535 0.931367
540 1.03814
545 1.20302
550 1.43254
555 2.11183
560 34.0542
565 794.142
570 1560.67
575 478.939
580 57.9668
585 7.88624
590 1.83708
595 1.18099
600 0.887967
Ex : 578
200 0.421717
205 0.449234
210 0.367126
215 0.380309
220 0.511323
225 0.377049
230 0.407727
235 0.560017
240 0.399936
245 0.459775
250 0.457101
255 0.424827
260 0.391977
265 0.447614
270 0.57911
275 0.365442
280 0.482539
285 0.372207
290 0.451327
295 0.490602
300 0.540487
305 0.449784
310 0.469417
315 0.440128
320 0.371072
325 0.401124
330 0.498612
335 0.497762
340 0.347309
345 0.434166
350 0.548461
355 0.54616
360 0.38871
365 0.384591
370 0.412905
375 0.45392
380 0.486085
385 0.573255
390 0.493971
395 0.530805
400 0.49328
405 0.448037
410 0.511663
415 0.649521
420 0.486495
425 0.473393
430 0.586576
435 0.478276
440 0.594939
445 0.487576
450 0.518225
455 0.65865
460 0.520206
465 0.543296
470 0.542814
475 0.526846
480 0.618692
485 0.617441
490 0.54413
495 0.592897
500 0.721731
505 0.635767
510 0.647195
515 0.566033
520 0.717202
525 0.725926
530 0.650069
535 0.75395
540 0.772163
545 0.857421
550 1.03477
555 1.45357
560 1.87771
565 30.2113
570 702.564
575 1390.9
580 428.525
585 51.6711
590 7.06962
595 1.72316
600 1.50693
Ex : 583
200 0.481797
205 0.348398
210 0.495534
215 0.479174
220 0.395893
225 0.442336
230 0.501914
235 0.510183
240 0.335654
245 0.424917
250 0.437045
255 0.389362
260 0.529643
265 0.382859
270 0.436653
275 0.282303
280 0.338847
285 0.471133
290 0.436944
295 0.49351
300 0.422619
305 0.408212
310 0.413967
315 0.489138
320 0.391655
325 0.476815
330 0.537141
335 0.414872
340 0.469446
345 0.325468
350 0.426973
355 0.485796
360 0.50509
365 0.454253
370 0.424831
375 0.457385
380 0.483855
385 0.358316
390 0.486845
395 0.542661
400 0.493391
405 0.563375
410 0.51467
415 0.585401
420 0.4376
425 0.508463
430 0.572849
435 0.459632
440 0.540482
445 0.550518
450 0.54282
455 0.796634
460 0.589287
465 0.552161
470 0.640179
475 0.604875
480 0.427824
485 0.495147
490 0.467052
495 0.592862
500 0.589993
505 0.575577
510 0.590008
515 0.495005
520 0.670696
525 0.52117
530 0.725731
535 0.739828
540 0.758052
545 0.870366
550 1.05548
555 1.10759
560 1.27901
565 1.98588
570 23.6219
575 629.997
580 1209.78
585 344.273
590 41.6151
595 5.80301
600 1.98324
Ex : 588
200 0.433773
205 0.384546
210 0.451028
215 0.340346
220 0.451935
225 0.270692
230 0.476846
235 0.352091
240 0.351972
245 0.366186
250 0.641185
255 0.544437
260 0.452453
265 0.375816
270 0.35414
275 0.350187
280 0.514438
285 0.389607
290 0.585634
295 0.420431
300 0.434235
305 0.542414
310 0.501119
315 0.38574
320 0.425206
325 0.509991
330 0.436435
335 0.411221
340 0.40071
345 0.444643
350 0.434248
355 0.444734
360 0.497079
365 0.420169
370 0.50032
375 0.404843
380 0.344413
385 0.406216
390 0.426497
395 0.578773
400 0.481344
405 0.55166
410 0.630243
415 0.453131
420 0.556484
425 0.515306
430 0.521248
435 0.479773
440 0.555111
445 0.482154
450 0.510302
455 0.557702
460 0.575038
465 0.617976
470 0.542149
475 0.721654
480 0.566221
485 0.593918
490 0.566469
495 0.478411
500 0.653283
505 0.525744
510 0.470235
515 0.584228
520 0.526298
525 0.620807
530 0.665151
535 0.854839
540 0.730974
545 0.750822
550 0.785599
555 0.879521
560 1.25363
565 1.31519
570 1.79453
575 21.6415
580 524.127
585 1029.21
590 308.063
595 37.2591
600 6.46868
Ex : 593
200 0.365494
205 0.43026
210 0.399911
215 0.369781
220 0.656758
225 0.45913
230 0.413122
235 0.445705
240 0.479751
245 0.512255
250 0.54518
255 0.344328
260 0.460622
265 0.562874
270 0.604542
275 0.338096
280 0.518317
285 0.521721
290 0.477608
295 0.464721
300 0.347409
305 0.489038
310 0.529525
315 0.483013
320 0.422158
325 0.344923
330 0.439129
335 0.598816
340 0.579635
345 0.452208
350 0.526486
355 0.467595
360 0.442693
365 0.515025
370 0.535176
375 0.628065
380 0.479917
385 0.411109
390 0.43883
395 0.571776
400 0.688965
405 0.446127
410 0.583872
415 0.552671
420 0.546201
425 0.600226
430 0.525463
435 0.527025
440 0.55739
445 0.54741
450 0.459856
455 0.599185
460 0.549352
465 0.528175
470 0.529136
475 0.594303
480 0.469358
485 0.632402
490 0.552816
495 0.617301
500 0.643992
505 0.537752
510 0.566067
515 0.598308
520 0.592499
525 0.579248
530 0.80807
535 0.685608
540 0.602037
545 0.610892
550 0.626621
555 0.717388
560 0.99284
565 0.926088
570 1.16801
575 1.67395
580 19.5788
585 472.368
590 879.793
595 265.377
600 40.3556
Ex : 598
200 0.494013
205 0.407767
210 0.454601
215 0.426075
220 0.413596
225 0.657627
230 0.619938
235 0.36738
240 0.332875
245 0.434847
250 0.382264
255 0.376474
260 0.621407
265 0.521186
270 0.480122
275 0.463214
280 0.417427
285 0.496518
290 0.474763
295 0.437584
300 0.498506
305 0.531105
310 0.427101
315 0.431528
320 0.357948
325 0.550034
330 0.462208
335 0.436642
340 0.519026
345 0.536979
350 0.584529
355 0.390213
360 0.422957
365 0.519541
370 0.383326
375 0.480881
380 0.557048
385 0.516415
390 0.477824
395 0.536204
400 0.408384
405 0.568841
410 0.517982
415 0.525385
420 0.446513
425 0.469497
430 0.518875
435 0.499573
440 0.469646
445 0.491323
450 0.647229
455 0.432752
460 0.419166
465 0.629571
470 0.629113
475 0.572563
480 0.539399
485 0.513509
490 0.739628
495 0.535057
500 0.563631
505 0.674031
510 0.555414
515 0.587797
520 0.537113
525 0.655493
530 0.547629
535 0.504393
540 0.64338
545 0.802715
550 0.612794
555 0.922502
560 0.760012
565 0.851525
570 0.925657
575 1.32475
580 1.60257
585 19.1379
590 431.647
595 781.851
600 496.972
Ex : 603
200 0.534823
205 0.413153
210 0.536017
215 0.508129
220 0.505016
225 0.580295
230 0.486791
235 0.517263
240 0.51738
245 0.537697
250 0.378826
255 0.418677
260 0.431881
265 0.477272
270 0.553717
275 0.425541
280 0.505003
285 0.407322
290 0.510861
295 0.545912
300 0.476055
305 0.44396
310 0.512553
315 0.398272
320 0.439567
325 0.438147
330 0.477789
335 0.457419
340 0.475897
345 0.512217
350 0.639077
355 0.505799
360 0.520535
365 0.649383
370 0.487101
375 0.623887
380 0.462253
385 0.459719
390 0.498544
395 0.515003
400 0.548647
405 0.649889
410 0.766626
415 0.456986
420 0.640058
425 0.746266
430 0.643706
435 0.383664
440 0.668405
445 0.607353
450 0.484192
455 0.621574
460 0.632825
465 0.632041
470 0.59304
475 0.559901
480 0.59111
485 0.499395
490 0.536023
495 0.570641
500 0.631467
505 0.516305
510 0.496052
515 0.761608
520 0.644562
525 0.699717
530 0.541787
535 0.716533
540 0.658814
545 0.693298
550 0.716861
555 0.593138
560 0.763506
565 0.783136
570 0.775037
575 0.984241
580 1.06096
585 1.45967
590 16.3155
595 362.331
600 731.207
