File format V 1.0
jeu. 5. janv. 17:34:33 2017
Operator : 
Comments : 

=============================================
SpectroFluorometer parameters
Mode : 3D measurement
Data : Fluorescence
Phospho. : Ordinary
Spectrum : Fluorescence

Scan speed : 2400 nm/mn
Response : 100 ms
PM Voltage : 700 V
Shutter : On

Lambda Ex. Start : 203
Lambda Ex. End : 603
Lambda Ex. Step : 5
Ex. Slit : 5 nm

Lambda Em. Start : 200
Lambda Em. End : 600
Lambda Em. Step : 5
Em. Slit : 5 nm

Repetition : 1
Decal lambda em : 10
=============================================
DATA
Ex : 203
200 3.93976
205 7.55998
210 4.6397
215 3.8655
220 3.51282
225 3.28234
230 3.87562
235 3.63451
240 6.25653
245 5.00387
250 6.82004
255 2.27222
260 3.94331
265 3.08173
270 4.2661
275 6.88243
280 4.42217
285 8.86289
290 5.34659
295 5.57842
300 4.02098
305 5.05333
310 5.53258
315 4.22077
320 3.5794
325 5.88665
330 3.37865
335 3.68622
340 2.61706
345 3.2589
350 2.73232
355 5.61791
360 4.83787
365 3.97545
370 5.0792
375 4.60771
380 5.25445
385 6.22857
390 4.0269
395 5.15203
400 4.68077
405 5.21687
410 7.38271
415 5.44137
420 4.20524
425 6.81831
430 4.83985
435 3.83432
440 4.23593
445 5.99452
450 7.66911
455 3.92792
460 4.3567
465 5.29811
470 2.76039
475 5.54435
480 4.6007
485 6.66367
490 7.28595
495 5.27596
500 3.18066
505 4.34986
510 8.88817
515 5.23925
520 3.79863
525 3.97187
530 4.17192
535 4.24251
540 3.43332
545 3.30325
550 4.36113
555 5.39077
560 3.90098
565 5.54208
570 5.97491
575 3.33353
580 2.56848
585 2.8808
590 5.90701
595 5.53289
600 1.07272
Ex : 208
200 5.13333
205 4.53378
210 6.84816
215 4.2319
220 6.38423
225 6.60622
230 4.46242
235 4.78565
240 6.65326
245 5.54783
250 3.87413
255 2.78606
260 5.05236
265 4.11975
270 3.36265
275 5.06243
280 4.52077
285 3.25317
290 3.57956
295 2.72012
300 2.53599
305 3.9802
310 3.12727
315 5.24342
320 6.4523
325 4.50061
330 3.88079
335 4.3507
340 7.99905
345 4.66561
350 8.22071
355 4.32263
360 5.36602
365 6.21798
370 3.76472
375 3.97807
380 2.88726
385 2.7332
390 4.69985
395 7.02678
400 2.82983
405 4.03929
410 4.15037
415 7.53065
420 4.821
425 3.38343
430 5.2984
435 5.65131
440 4.24664
445 3.68998
450 5.75364
455 6.66788
460 6.31591
465 4.41124
470 3.35697
475 3.86061
480 4.59894
485 4.22831
490 3.90816
495 4.46187
500 3.34989
505 5.805
510 4.06399
515 4.21262
520 3.75999
525 4.64764
530 6.34951
535 5.2903
540 4.19747
545 7.92982
550 3.93726
555 4.78843
560 3.73114
565 2.80468
570 5.327
575 2.89421
580 4.55671
585 4.16478
590 2.80306
595 5.9786
600 0.680342
Ex : 213
200 5.11628
205 8.1466
210 7.34023
215 9.11637
220 5.96076
225 4.67409
230 8.18847
235 4.42193
240 5.31034
245 3.84623
250 3.75331
255 7.26131
260 6.76181
265 5.96251
270 5.39438
275 4.56198
280 3.44052
285 6.9548
290 4.92705
295 8.54188
300 3.40179
305 5.01378
310 6.57025
315 4.39607
320 5.01087
325 4.15723
330 5.5582
335 5.78118
340 4.77548
345 4.26754
350 5.14453
355 3.63298
360 4.45801
365 3.48635
370 3.81931
375 3.11498
380 3.44832
385 4.61426
390 3.9986
395 4.55929
400 5.17837
405 5.45309
410 4.81747
415 3.87396
420 4.0207
425 6.58131
430 3.94232
435 4.83216
440 3.91644
445 4.58129
450 8.48034
455 7.08304
460 4.4268
465 3.9026
470 4.64593
475 2.97246
480 4.29526
485 4.42577
490 4.52074
495 2.5058
500 7.35429
505 4.47183
510 5.47586
515 3.06766
520 2.74286
525 4.01365
530 5.44495
535 7.41903
540 4.32577
545 3.86189
550 3.66547
555 4.0301
560 5.84204
565 3.99334
570 4.21467
575 4.8882
580 4.50932
585 4.74205
590 4.5506
595 5.14105
600 0.585032
Ex : 218
200 5.57576
205 6.40778
210 3.42344
215 4.56349
220 6.01971
225 5.11076
230 5.39791
235 3.47085
240 5.75317
245 4.61307
250 5.18759
255 6.07797
260 3.10004
265 2.34158
270 4.06004
275 3.84331
280 3.20875
285 3.28288
290 6.91123
295 8.37974
300 6.29657
305 5.4357
310 3.24232
315 3.21904
320 4.18936
325 6.03959
330 4.22095
335 5.24429
340 7.22026
345 6.49229
350 3.13354
355 3.53838
360 4.38818
365 5.44294
370 5.2921
375 3.75962
380 2.92292
385 4.32312
390 2.4522
395 4.3288
400 5.26518
405 5.89351
410 2.72792
415 3.63981
420 3.0191
425 2.49844
430 3.09398
435 3.50058
440 5.32117
445 4.5058
450 3.79063
455 3.46003
460 4.47342
465 4.29868
470 3.36152
475 3.81399
480 4.79373
485 3.85788
490 4.65246
495 3.84076
500 4.18043
505 8.81582
510 3.98831
515 2.78079
520 9.3424
525 4.11227
530 4.92215
535 5.99334
540 4.90124
545 4.01004
550 5.12951
555 2.83555
560 3.50316
565 3.60983
570 4.55525
575 3.67952
580 3.76876
585 3.91076
590 5.67981
595 5.28559
600 0.60148
Ex : 223
200 2.94792
205 6.90693
210 4.23859
215 6.34029
220 3.72558
225 5.45596
230 4.97223
235 5.08987
240 3.40369
245 3.61212
250 3.48322
255 4.86264
260 3.08252
265 2.79531
270 4.57079
275 4.71125
280 5.34414
285 7.80259
290 8.54945
295 6.15297
300 4.33504
305 4.80348
310 3.80692
315 4.7669
320 4.87615
325 5.25669
330 3.99862
335 4.329
340 3.48229
345 3.06016
350 5.81482
355 5.9688
360 4.18613
365 4.34472
370 2.95776
375 3.35068
380 4.99533
385 4.70899
390 4.48785
395 5.14384
400 4.07689
405 4.05798
410 4.06568
415 2.67066
420 6.16687
425 4.11104
430 4.71768
435 5.35467
440 2.82243
445 5.52136
450 5.4532
455 2.76382
460 4.47748
465 2.82884
470 5.13004
475 3.05582
480 1.97687
485 3.96073
490 7.49056
495 4.30669
500 5.6002
505 4.29545
510 6.79649
515 5.82224
520 5.90186
525 6.0419
530 5.53913
535 3.85944
540 4.25884
545 5.44232
550 5.9469
555 3.35028
560 4.36148
565 5.04185
570 6.75296
575 3.82946
580 2.30518
585 3.61073
590 2.71402
595 4.34107
600 0.493997
Ex : 228
200 3.95556
205 3.1273
210 3.84289
215 7.8636
220 5.18989
225 3.94379
230 3.00179
235 4.00315
240 2.59072
245 2.69877
250 2.91698
255 4.3554
260 2.75765
265 7.14201
270 3.86688
275 4.40278
280 2.72606
285 4.49777
290 4.26011
295 2.07317
300 4.57435
305 2.69874
310 3.54002
315 2.9335
320 6.17054
325 4.09453
330 4.52811
335 5.35605
340 4.87435
345 4.10465
350 5.16069
355 3.85976
360 2.52741
365 4.00601
370 3.55292
375 3.45429
380 4.58497
385 4.00057
390 4.65306
395 7.25363
400 5.3299
405 4.015
410 2.83116
415 6.13819
420 6.50913
425 4.60778
430 3.17392
435 3.01979
440 4.02044
445 5.17568
450 8.14834
455 3.65082
460 3.93844
465 2.9227
470 2.68546
475 3.59924
480 3.74189
485 4.0421
490 6.17054
495 3.45281
500 2.98724
505 3.19866
510 3.34706
515 4.84883
520 3.73657
525 4.92769
530 4.94696
535 3.24749
540 2.82438
545 5.0631
550 2.8829
555 6.66278
560 5.48143
565 4.75779
570 4.3333
575 3.43607
580 1.71305
585 4.30808
590 3.64627
595 3.48617
600 0.396713
Ex : 233
200 6.03743
205 5.89919
210 3.61552
215 4.07909
220 3.93622
225 4.17884
230 3.16486
235 4.06414
240 3.02077
245 3.18342
250 2.98018
255 3.57117
260 3.73306
265 3.86166
270 3.10253
275 4.68182
280 3.48388
285 1.81525
290 5.13867
295 3.56076
300 3.94133
305 4.72466
310 3.01447
315 5.21488
320 3.55601
325 2.76787
330 4.20637
335 5.00669
340 2.682
345 2.66549
350 3.52092
355 4.85289
360 3.96609
365 2.85674
370 4.57
375 4.10415
380 6.42917
385 3.7429
390 4.56609
395 4.77338
400 2.8247
405 5.51821
410 5.89355
415 2.63611
420 3.55083
425 4.67651
430 3.18635
435 5.79886
440 3.6624
445 5.73838
450 2.82671
455 3.65273
460 3.81132
465 3.60587
470 5.04987
475 3.22892
480 3.71922
485 2.30582
490 2.67773
495 4.24499
500 3.27867
505 3.79915
510 6.82975
515 4.85555
520 4.36412
525 2.80256
530 2.5751
535 4.0474
540 3.37633
545 2.61032
550 2.7723
555 3.16181
560 3.4569
565 3.95241
570 4.97876
575 3.40242
580 3.94113
585 3.80827
590 3.8335
595 4.81947
600 0.548437
Ex : 238
200 3.11261
205 3.52393
210 4.10731
215 2.64062
220 3.34971
225 3.03979
230 3.3329
235 3.47314
240 2.87904
245 3.59784
250 4.15489
255 4.41325
260 3.78872
265 3.60024
270 3.68246
275 2.44522
280 3.54431
285 3.12581
290 3.17857
295 2.05104
300 4.06684
305 1.91898
310 2.85325
315 2.44512
320 3.23926
325 3.60828
330 4.84571
335 3.8376
340 6.04089
345 2.75524
350 2.75527
355 3.14677
360 3.67639
365 4.46425
370 3.6684
375 6.68562
380 3.40307
385 3.75786
390 5.59247
395 5.21446
400 4.20546
405 3.34836
410 3.92585
415 3.73668
420 3.26274
425 3.35144
430 6.41944
435 4.24395
440 2.97895
445 3.1179
450 4.68783
455 4.31274
460 4.20959
465 2.49782
470 3.46891
475 3.74911
480 3.63613
485 7.84686
490 3.53237
495 3.49114
500 4.62597
505 4.94072
510 3.38131
515 3.21478
520 3.06171
525 4.81796
530 6.50389
535 3.4027
540 3.83228
545 2.14943
550 4.68332
555 3.46394
560 4.13465
565 4.70853
570 3.69634
575 2.56637
580 2.73106
585 3.84724
590 3.94005
595 4.46554
600 3.87574
Ex : 243
200 3.12741
205 3.70538
210 2.78259
215 2.66612
220 3.93827
225 2.06007
230 3.90427
235 5.91608
240 3.93003
245 4.57783
250 2.71404
255 3.37563
260 3.44365
265 1.86767
270 3.0326
275 2.63357
280 2.56722
285 2.07501
290 3.19269
295 1.29793
300 4.74125
305 2.58888
310 2.99736
315 2.2108
320 2.73657
325 2.68772
330 3.61274
335 4.87143
340 3.28972
345 4.97219
350 4.02311
355 2.38513
360 4.45443
365 2.41431
370 2.02646
375 4.33204
380 3.57136
385 3.70725
390 2.71437
395 6.23537
400 4.40268
405 2.93163
410 3.8711
415 4.71134
420 4.56037
425 3.40524
430 3.01447
435 4.02446
440 3.28908
445 1.87845
450 3.51623
455 2.828
460 2.4053
465 4.13603
470 4.86269
475 2.96965
480 2.31949
485 3.47875
490 1.97862
495 2.6987
500 3.20374
505 3.63534
510 3.00169
515 5.57423
520 3.00975
525 4.12747
530 2.9399
535 2.95538
540 4.6735
545 2.45252
550 4.49371
555 2.70446
560 2.19282
565 1.84263
570 3.3114
575 5.58327
580 3.68504
585 3.15323
590 3.12048
595 2.24726
600 0.25573
Ex : 248
200 2.51333
205 3.39782
210 2.71893
215 2.38232
220 2.09492
225 2.09379
230 2.15139
235 2.29843
240 3.899
245 1.89753
250 3.20986
255 2.42241
260 1.71648
265 1.91492
270 3.94173
275 2.47416
280 2.37177
285 2.54458
290 2.54589
295 2.0158
300 2.31683
305 3.48895
310 3.88135
315 2.96877
320 1.72323
325 2.78585
330 2.15529
335 2.89461
340 2.31883
345 2.74169
350 1.53014
355 1.70349
360 2.04085
365 2.97031
370 2.04607
375 2.44684
380 2.42601
385 3.0421
390 2.88932
395 3.10658
400 1.28494
405 1.79927
410 3.07355
415 3.13225
420 1.79432
425 2.72852
430 2.95393
435 2.30095
440 2.19133
445 3.4038
450 3.32233
455 2.2039
460 3.20283
465 4.30052
470 3.52177
475 2.93579
480 3.61423
485 3.24653
490 3.89924
495 1.83895
500 4.80664
505 3.49477
510 4.28782
515 3.47477
520 4.19343
525 3.15365
530 2.80705
535 2.99243
540 2.0101
545 2.91781
550 3.48657
555 2.49926
560 1.60435
565 2.37165
570 1.92158
575 1.61991
580 2.81002
585 2.91796
590 1.87999
595 3.07913
600 14.4031
Ex : 253
200 1.22162
205 1.98301
210 3.05547
215 2.62122
220 1.97333
225 1.8372
230 1.81019
235 2.89743
240 2.64231
245 2.59226
250 2.66242
255 2.72592
260 3.57529
265 3.00074
270 1.19457
275 1.85419
280 2.28369
285 1.92877
290 1.56124
295 2.24714
300 1.34076
305 2.18274
310 1.62414
315 2.15662
320 2.48384
325 2.151
330 1.8259
335 1.71638
340 2.60886
345 2.48101
350 1.97371
355 1.52454
360 2.34248
365 1.84204
370 3.10969
375 1.23511
380 1.9954
385 1.60421
390 1.94208
395 1.97088
400 2.74542
405 3.59475
410 3.27219
415 2.73155
420 2.50303
425 1.73075
430 3.18068
435 2.17914
440 3.16312
445 1.8806
450 1.57108
455 3.01617
460 3.80018
465 2.29892
470 2.47339
475 1.94491
480 2.07542
485 2.84749
490 2.49793
495 2.31193
500 2.91649
505 2.14412
510 2.6305
515 1.89211
520 2.92464
525 2.10272
530 1.61339
535 1.63375
540 1.83837
545 1.91436
550 1.60869
555 2.43135
560 1.23652
565 2.37549
570 2.31936
575 1.75346
580 2.09819
585 1.20829
590 2.43812
595 2.47068
600 0.281154
Ex : 258
200 1.45514
205 2.49813
210 2.21089
215 1.46293
220 1.14267
225 1.76415
230 1.32753
235 1.53503
240 2.96871
245 2.88467
250 1.53921
255 1.3025
260 1.25647
265 1.47536
270 2.93434
275 2.23925
280 1.9052
285 2.30816
290 2.57587
295 2.52377
300 1.42252
305 2.56953
310 1.1646
315 1.68242
320 1.7138
325 1.51219
330 2.06639
335 2.08206
340 2.72527
345 2.93548
350 2.25517
355 1.35288
360 0.902303
365 2.041
370 2.03061
375 2.2048
380 2.61676
385 2.37299
390 2.59783
395 1.6774
400 2.10524
405 2.01198
410 1.40199
415 1.90051
420 1.43011
425 1.79304
430 2.87869
435 1.87844
440 1.48804
445 2.89196
450 2.51653
455 2.00048
460 1.30113
465 1.60439
470 1.48664
475 2.27696
480 1.77975
485 1.81452
490 1.79767
495 1.70597
500 1.56853
505 1.61274
510 1.6351
515 3.91049
520 2.34517
525 1.88346
530 1.00651
535 1.70731
540 1.48129
545 1.59332
550 2.04431
555 2.07956
560 2.60052
565 2.39168
570 3.09976
575 1.8569
580 1.08762
585 3.9037
590 2.54536
595 2.39094
600 0.836028
Ex : 263
200 1.9254
205 1.63245
210 1.34393
215 1.26895
220 1.17596
225 0.889247
230 1.20459
235 1.7904
240 2.27833
245 1.45337
250 1.80692
255 1.86765
260 1.70402
265 1.1104
270 1.68388
275 0.931163
280 1.37774
285 2.20187
290 1.24178
295 1.09604
300 1.15341
305 1.04823
310 1.5792
315 1.07841
320 0.59152
325 1.34025
330 1.67841
335 2.26729
340 1.45827
345 1.48091
350 0.871535
355 1.20145
360 1.73527
365 1.12798
370 1.51084
375 1.45583
380 2.97593
385 1.61441
390 2.87815
395 2.2659
400 1.076
405 2.38649
410 1.49228
415 0.998595
420 1.85047
425 2.26333
430 1.00683
435 1.95564
440 1.76253
445 1.47194
450 0.929574
455 1.46234
460 1.20836
465 1.38005
470 1.74973
475 1.4327
480 1.89266
485 1.25323
490 1.47035
495 1.75373
500 1.4866
505 1.28899
510 1.39557
515 1.15347
520 1.44056
525 1.74485
530 1.02079
535 1.61036
540 1.03863
545 2.96727
550 1.56162
555 1.10956
560 1.21494
565 1.0339
570 1.75038
575 1.50124
580 1.17169
585 1.61957
590 1.63529
595 1.22994
600 4.38108
Ex : 268
200 0.963513
205 0.591464
210 0.923512
215 1.75459
220 0.99737
225 0.926055
230 1.91075
235 1.45539
240 1.34517
245 1.76188
250 1.05447
255 0.823817
260 1.54781
265 1.42879
270 0.970239
275 1.09023
280 0.89584
285 0.898782
290 1.95332
295 1.13879
300 1.41895
305 1.97974
310 1.1718
315 1.98266
320 1.23842
325 1.0936
330 0.848844
335 1.1542
340 1.29565
345 1.37924
350 1.48563
355 1.39385
360 1.14698
365 0.812217
370 0.793853
375 1.2414
380 1.26916
385 0.940402
390 1.87078
395 1.41753
400 1.73775
405 1.51554
410 1.14058
415 1.69654
420 1.34562
425 1.88003
430 1.3972
435 1.22946
440 1.91232
445 1.34459
450 1.78889
455 1.46089
460 1.04391
465 0.75517
470 1.13471
475 1.95761
480 1.38728
485 0.879685
490 1.09256
495 1.109
500 0.858712
505 0.900457
510 1.67573
515 1.50816
520 1.17395
525 1.24258
530 1.33864
535 1.2037
540 1.40476
545 0.920348
550 0.734921
555 1.29535
560 1.24485
565 1.11094
570 0.801031
575 1.35162
580 1.14222
585 1.3202
590 0.884121
595 1.03403
600 0.117669
Ex : 273
200 0.877642
205 0.649825
210 1.7667
215 0.655173
220 0.96477
225 1.19658
230 0.852523
235 0.598301
240 0.91602
245 0.880169
250 0.717086
255 0.593183
260 0.825256
265 1.30624
270 1.36494
275 1.10101
280 1.03255
285 0.591723
290 0.56369
295 1.47329
300 1.26453
305 0.704825
310 0.89256
315 1.24169
320 1.04065
325 1.62146
330 1.11868
335 1.05199
340 0.925717
345 1.21135
350 0.71027
355 1.26546
360 0.651121
365 0.973316
370 1.37989
375 1.56681
380 1.90401
385 0.922831
390 1.57511
395 1.84162
400 1.29714
405 1.34314
410 1.17714
415 1.43506
420 0.852017
425 1.8534
430 1.09315
435 0.890028
440 1.45507
445 1.81701
450 1.26196
455 0.994402
460 1.47287
465 0.981385
470 0.836754
475 0.941007
480 1.17271
485 1.16719
490 0.78024
495 0.869901
500 1.25741
505 0.907715
510 0.666235
515 1.0445
520 1.07557
525 0.563011
530 1.15433
535 1.10023
540 1.22618
545 1.57937
550 0.711246
555 0.923476
560 1.11191
565 0.895298
570 1.05902
575 0.625455
580 0.789772
585 0.956965
590 0.820273
595 0.903674
600 0.375513
Ex : 278
200 0.897978
205 0.532652
210 0.441353
215 1.02122
220 0.419193
225 0.743255
230 0.328771
235 0.734362
240 0.734539
245 1.05595
250 0.810905
255 0.657475
260 0.487838
265 0.609493
270 0.69433
275 1.33594
280 1.70471
285 0.759128
290 0.81801
295 0.582616
300 0.472031
305 0.587899
310 0.558237
315 0.341582
320 0.541763
325 0.663585
330 0.680217
335 1.28448
340 0.861193
345 0.848421
350 0.779387
355 1.10565
360 0.899721
365 1.02939
370 0.648373
375 0.564578
380 0.796328
385 1.33179
390 1.10742
395 1.14113
400 1.3017
405 1.37248
410 1.09993
415 0.868622
420 0.772883
425 1.07697
430 0.712542
435 0.914963
440 1.00581
445 0.978246
450 0.821587
455 0.934483
460 0.740292
465 0.735911
470 0.970762
475 0.923778
480 0.931481
485 1.08608
490 1.36898
495 1.04035
500 1.13814
505 0.592555
510 0.81973
515 0.827772
520 0.995117
525 0.869935
530 0.900453
535 0.730912
540 1.52054
545 0.984092
550 0.822728
555 0.682258
560 0.432937
565 0.723338
570 0.963661
575 0.575101
580 0.762635
585 0.582472
590 0.471405
595 0.518391
600 1.3883
Ex : 283
200 0.400605
205 0.456184
210 0.769508
215 0.60977
220 0.60961
225 0.445583
230 0.507111
235 0.634379
240 0.65088
245 0.750399
250 0.923111
255 0.690224
260 0.664387
265 0.568837
270 0.52204
275 0.394966
280 0.638212
285 0.334932
290 0.709048
295 0.450499
300 0.663867
305 0.515285
310 0.716122
315 0.626383
320 0.814177
325 0.61875
330 0.644953
335 0.551863
340 0.813333
345 0.868658
350 0.484745
355 0.724708
360 0.522538
365 0.977633
370 0.38398
375 0.61335
380 1.00052
385 1.00409
390 0.839277
395 0.772996
400 1.12812
405 0.816604
410 0.887547
415 1.09696
420 1.06935
425 1.01264
430 1.08529
435 0.650289
440 0.740795
445 0.987933
450 0.738058
455 1.16638
460 1.29956
465 0.670484
470 0.645178
475 0.74696
480 0.821253
485 1.30509
490 0.968775
495 0.577831
500 0.578323
505 0.774639
510 0.517682
515 0.816042
520 0.784101
525 0.83297
530 0.720994
535 0.544326
540 0.550438
545 0.896712
550 0.765344
555 1.01156
560 0.83871
565 0.578149
570 0.443562
575 0.743203
580 0.615488
585 0.326979
590 0.738425
595 0.420707
600 0.0478749
Ex : 288
200 0.565217
205 0.415755
210 0.514027
215 0.565935
220 0.572016
225 0.244585
230 0.492062
235 0.374351
240 0.401153
245 0.379737
250 0.547942
255 0.28264
260 0.533405
265 0.581008
270 0.528924
275 0.391819
280 0.348174
285 0.522593
290 0.600976
295 0.670338
300 0.470026
305 0.425851
310 0.374629
315 0.879354
320 0.523488
325 0.329803
330 0.764774
335 0.350692
340 0.506567
345 0.894616
350 0.481444
355 0.482882
360 0.613975
365 0.632277
370 0.568559
375 0.887282
380 0.904197
385 0.690856
390 0.911771
395 0.74329
400 0.834492
405 0.861271
410 0.841717
415 0.848665
420 0.704611
425 0.960745
430 0.888782
435 0.882421
440 0.736022
445 0.841606
450 1.21392
455 0.532069
460 0.703579
465 0.972578
470 0.828478
475 0.562027
480 0.787193
485 0.516645
490 0.540941
495 0.704688
500 0.536358
505 0.348315
510 0.408185
515 0.691575
520 1.05965
525 0.724865
530 0.572739
535 0.412585
540 0.575534
545 0.502371
550 0.332776
555 0.350613
560 0.793454
565 0.590505
570 0.924904
575 0.846825
580 0.653604
585 0.538311
590 0.342592
595 0.222978
600 0.0253741
Ex : 293
200 0.315818
205 0.350491
210 0.273274
215 0.363364
220 0.244279
225 0.381613
230 0.236456
235 0.419761
240 0.41754
245 0.385918
250 0.35675
255 0.375684
260 0.314546
265 0.374398
270 0.248074
275 0.250978
280 0.508407
285 0.529705
290 0.962222
295 0.478909
300 0.47796
305 0.300558
310 0.301935
315 0.424711
320 0.45264
325 0.185724
330 0.6676
335 0.378681
340 0.779671
345 0.561813
350 0.476427
355 0.574896
360 0.580377
365 0.474694
370 0.671341
375 0.649934
380 0.487809
385 0.853953
390 0.848399
395 0.978416
400 0.925767
405 0.920023
410 1.00479
415 0.814905
420 0.828905
425 0.818274
430 1.0883
435 0.753414
440 0.859011
445 0.606756
450 0.969668
455 0.9475
460 0.796452
465 0.45402
470 0.284498
475 0.439797
480 0.494591
485 0.677789
490 0.482087
495 0.373893
500 0.48758
505 0.477944
510 0.369093
515 0.395237
520 0.523441
525 0.476153
530 0.558379
535 0.310108
540 0.254081
545 0.409876
550 0.31303
555 0.558917
560 0.645502
565 0.707354
570 0.49818
575 0.553748
580 0.919389
585 1.03497
590 0.360295
595 0.468559
600 1.66085
Ex : 298
200 0.701541
205 0.240166
210 0.374395
215 0.416156
220 0.378389
225 0.653574
230 0.362348
235 0.490752
240 0.530538
245 0.2877
250 0.335761
255 0.388211
260 0.368014
265 0.302136
270 0.453679
275 0.345796
280 0.33544
285 0.377285
290 0.568153
295 0.732031
300 0.440194
305 0.251763
310 0.389942
315 0.414634
320 0.337456
325 0.555423
330 0.473064
335 0.533912
340 0.253958
345 0.326236
350 0.325627
355 0.406167
360 0.533136
365 0.429053
370 0.539461
375 0.628874
380 0.625597
385 0.93581
390 1.22138
395 0.568789
400 0.722646
405 1.04501
410 0.700008
415 0.843541
420 0.869322
425 0.669666
430 0.972446
435 0.78693
440 0.566608
445 0.638027
450 0.857801
455 0.776205
460 0.522226
465 0.515957
470 0.481975
475 0.607387
480 0.437047
485 0.497452
490 0.393993
495 0.50652
500 0.482951
505 0.426485
510 0.395146
515 0.629678
520 0.377172
525 0.498302
530 0.308775
535 0.480729
540 0.43729
545 0.426461
550 0.271123
555 0.361507
560 0.325871
565 0.328882
570 0.319983
575 0.308065
580 0.257021
585 0.574732
590 0.597207
595 0.476529
600 0.0712696
Ex : 303
200 0.325378
205 0.222252
210 0.189857
215 0.220132
220 0.316032
225 0.431692
230 0.275076
235 0.308579
240 0.431452
245 0.312312
250 0.197515
255 0.261485
260 0.407927
265 0.36486
270 0.331722
275 0.284115
280 0.176447
285 0.167183
290 0.293608
295 0.316204
300 0.536554
305 0.334956
310 0.190689
315 0.421206
320 0.327578
325 0.345475
330 0.26996
335 0.498788
340 0.469064
345 0.343618
350 0.353318
355 0.632199
360 0.498405
365 0.531379
370 0.516445
375 0.544054
380 0.555394
385 0.682132
390 0.627121
395 0.84603
400 0.986777
405 0.72026
410 0.826302
415 0.856244
420 0.808419
425 0.601822
430 0.683151
435 0.78283
440 0.930869
445 0.839265
450 0.477459
455 0.77693
460 0.680174
465 0.623254
470 0.634156
475 0.478993
480 0.681937
485 0.463914
490 0.49679
495 0.47234
500 0.456635
505 0.505855
510 0.458182
515 0.259281
520 0.366497
525 0.3495
530 0.412549
535 0.403229
540 0.232209
545 0.479864
550 0.348576
555 0.368601
560 0.195943
565 0.32334
570 0.291168
575 0.381681
580 0.344334
585 0.342698
590 0.230658
595 0.420473
600 0.0478482
Ex : 308
200 0.372494
205 0.416695
210 0.206792
215 0.264396
220 0.15216
225 0.415793
230 0.202796
235 0.205605
240 0.281414
245 0.467462
250 0.269251
255 0.268195
260 0.334173
265 0.269485
270 0.44471
275 0.501526
280 0.302245
285 0.339264
290 0.365873
295 0.260711
300 0.483867
305 0.669144
310 0.350081
315 0.446666
320 0.25261
325 0.325396
330 0.436342
335 0.250393
340 0.307559
345 0.378693
350 0.367092
355 0.410843
360 0.572614
365 0.493306
370 0.507072
375 0.527202
380 0.79261
385 0.631032
390 0.761909
395 0.822691
400 0.752398
405 0.929009
410 0.833447
415 1.05302
420 0.662886
425 0.694286
430 0.765374
435 0.526734
440 0.623033
445 0.579213
450 0.736459
455 0.584636
460 0.496213
465 0.561383
470 0.447926
475 0.488295
480 0.368753
485 0.336429
490 0.359264
495 0.39499
500 0.486171
505 0.383874
510 0.296529
515 0.282783
520 0.449383
525 0.413478
530 0.348368
535 0.317859
540 0.358711
545 0.234015
550 0.3669
555 0.26817
560 0.207136
565 0.182522
570 0.336215
575 0.220787
580 0.252558
585 0.142026
590 0.314893
595 0.198612
600 0.113828
Ex : 313
200 0.237314
205 0.214243
210 0.304654
215 0.225821
220 0.303679
225 0.217587
230 0.28554
235 0.177867
240 0.249365
245 0.224915
250 0.213875
255 0.255903
260 0.372694
265 0.351661
270 0.175066
275 0.27485
280 0.265186
285 0.227814
290 0.25086
295 0.205788
300 0.225955
305 0.336133
310 0.308384
315 0.405078
320 0.219711
325 0.249693
330 0.253354
335 0.258311
340 0.355905
345 0.367532
350 0.466607
355 0.555819
360 0.615001
365 0.577495
370 0.691418
375 0.824022
380 0.796966
385 0.866051
390 1.32327
395 1.22959
400 1.39954
405 1.42483
410 1.26837
415 1.56386
420 1.29288
425 1.28071
430 1.16136
435 1.08931
440 0.989702
445 1.24588
450 1.02607
455 0.850457
460 0.961428
465 0.867275
470 0.725195
475 0.700466
480 0.577636
485 0.667479
490 0.471932
495 0.602541
500 0.486137
505 0.433989
510 0.415658
515 0.3339
520 0.398686
525 0.311175
530 0.353075
535 0.434872
540 0.296691
545 0.276374
550 0.282929
555 0.328422
560 0.230991
565 0.414496
570 0.268924
575 0.350204
580 0.33507
585 0.176106
590 0.151906
595 0.228549
600 1.21145
Ex : 318
200 0.21732
205 0.2125
210 0.156857
215 0.1876
220 0.162179
225 0.232426
230 0.241972
235 0.192343
240 0.310841
245 0.159687
250 0.201179
255 0.331211
260 0.290265
265 0.186803
270 0.344178
275 0.224192
280 0.3579
285 0.163448
290 0.238929
295 0.302462
300 0.224372
305 0.167781
310 0.390938
315 0.552535
320 0.378645
325 0.224291
330 0.54038
335 0.655863
340 1.01675
345 1.28803
350 1.76656
355 2.73133
360 3.68754
365 4.20774
370 5.11865
375 6.49734
380 6.72932
385 8.03751
390 8.49601
395 9.90571
400 10.0987
405 10.6247
410 10.5949
415 10.6821
420 9.83525
425 9.9402
430 9.16008
435 8.20221
440 8.64719
445 7.56395
450 7.27215
455 6.39174
460 6.14437
465 5.83523
470 5.31714
475 4.86544
480 4.07817
485 3.80941
490 3.3829
495 2.97531
500 2.65388
505 2.09701
510 1.59076
515 1.82441
520 1.38769
525 1.06078
530 0.846126
535 0.783963
540 0.783069
545 0.711482
550 0.539935
555 0.706603
560 0.47308
565 0.441184
570 0.319401
575 0.295843
580 0.25595
585 0.237559
590 0.203642
595 0.25459
600 0.293814
Ex : 323
200 0.188416
205 0.167386
210 0.173734
215 0.318408
220 0.221517
225 0.250963
230 0.152326
235 0.171812
240 0.279123
245 0.193974
250 0.210572
255 0.19205
260 0.0884392
265 0.253045
270 0.242722
275 0.151741
280 0.138271
285 0.202452
290 0.117665
295 0.332785
300 0.221709
305 0.456602
310 0.314186
315 1.67916
320 9.01697
325 4.58448
330 1.84806
335 2.3841
340 3.92732
345 6.20207
350 9.19149
355 13.4692
360 15.0624
365 19.1807
370 21.7551
375 25.395
380 29.5409
385 33.3936
390 35.7558
395 37.6143
400 39.7516
405 41.4682
410 41.1356
415 41.0576
420 39.9298
425 38.1216
430 37.008
435 35.6954
440 34.3474
445 32.8394
450 30.6091
455 27.1382
460 26.5263
465 24.0069
470 22.2792
475 19.5082
480 17.1686
485 15.8625
490 14.5265
495 12.8715
500 11.4063
505 9.4166
510 8.51685
515 7.14864
520 5.88678
525 4.75063
530 4.26915
535 3.57023
540 3.05951
545 2.30584
550 2.12364
555 1.8382
560 1.21055
565 1.16779
570 1.01909
575 0.90006
580 0.589169
585 0.50486
590 0.39644
595 0.387085
600 0.0440488
Ex : 328
200 0.225206
205 0.0967642
210 0.133786
215 0.205
220 0.155208
225 0.168744
230 0.191258
235 0.224621
240 0.168815
245 0.137227
250 0.212916
255 0.188543
260 0.215239
265 0.124065
270 0.201405
275 0.2552
280 0.140644
285 0.212917
290 0.210449
295 0.223121
300 0.176703
305 0.308594
310 0.157338
315 0.475055
320 21.9051
325 56.5916
330 19.5974
335 5.68087
340 6.22254
345 7.441
350 10.3239
355 14.5674
360 20.3164
365 22.1906
370 25.4168
375 28.9728
380 33.242
385 37.0431
390 39.4061
395 42.4466
400 44.0436
405 45.1926
410 45.1139
415 44.5054
420 43.9964
425 42.3455
430 40.9103
435 38.8482
440 35.7734
445 33.9047
450 32.6147
455 30.3897
460 28.76
465 25.6238
470 22.6694
475 21.0872
480 19.5461
485 16.8027
490 15.387
495 13.7035
500 11.5988
505 10.1588
510 8.88231
515 7.79186
520 6.68059
525 5.87076
530 4.82372
535 3.75979
540 3.37115
545 2.85547
550 2.63428
555 2.11746
560 2.04372
565 1.38888
570 1.17443
575 0.997157
580 0.602547
585 0.421294
590 0.341714
595 0.325222
600 0.87531
Ex : 333
200 0.167517
205 0.0785289
210 0.164383
215 0.169433
220 0.157178
225 0.136292
230 0.138323
235 0.0837743
240 0.249686
245 0.109583
250 0.142541
255 0.15651
260 0.153783
265 0.12454
270 0.206405
275 0.162615
280 0.116445
285 0.105163
290 0.232149
295 0.198769
300 0.267762
305 0.200962
310 0.362946
315 0.262633
320 3.27481
325 72.8736
330 133.007
335 38.0194
340 7.77767
345 5.64984
350 6.3013
355 7.41855
360 11.0369
365 16.434
370 17.3992
375 17.9786
380 18.7847
385 21.0455
390 23.1098
395 23.8933
400 25.3179
405 25.3721
410 25.2078
415 24.5107
420 24.2899
425 23.0176
430 22.1596
435 21.3886
440 19.2897
445 19.3861
450 17.9649
455 16.4703
460 15.1746
465 14.4463
470 12.4845
475 11.2377
480 10.0094
485 9.73454
490 8.65847
495 7.59003
500 6.39037
505 5.39879
510 5.16608
515 4.44816
520 3.70525
525 3.14617
530 2.67124
535 2.47449
540 2.07028
545 1.64792
550 1.52755
555 1.23692
560 1.09625
565 0.842877
570 0.759598
575 0.546174
580 0.435412
585 0.346234
590 0.331538
595 0.276879
600 0.0684329
Ex : 338
200 0.0904514
205 0.134515
210 0.0936378
215 0.0732225
220 0.232115
225 0.165439
230 0.135781
235 0.119504
240 0.132825
245 0.161144
250 0.118626
255 0.199747
260 0.18422
265 0.15414
270 0.138372
275 0.163181
280 0.132898
285 0.164417
290 0.139884
295 0.111965
300 0.0855212
305 0.196057
310 0.180344
315 0.194147
320 0.145735
325 7.59526
330 119.794
335 181.806
340 48.2355
345 8.34121
350 4.77088
355 4.56329
360 4.61982
365 7.00416
370 11.9396
375 12.2189
380 10.3609
385 10.2016
390 11.043
395 11.3773
400 12.3041
405 12.5156
410 12.4561
415 12.7709
420 11.9839
425 11.961
430 11.8939
435 10.9266
440 10.3213
445 9.76424
450 9.39076
455 9.24532
460 8.2864
465 7.12211
470 6.87545
475 6.37008
480 5.79631
485 5.52233
490 4.77983
495 4.3672
500 3.59964
505 3.48011
510 2.72785
515 2.38581
520 2.17173
525 2.07861
530 1.67514
535 1.52169
540 1.36248
545 1.08478
550 1.11001
555 0.914933
560 0.739649
565 0.703184
570 0.548106
575 0.374167
580 0.442672
585 0.38382
590 0.322414
595 0.293697
600 0.039986
Ex : 343
200 0.0979348
205 0.0790352
210 0.126969
215 0.191428
220 0.164608
225 0.160355
230 0.102864
235 0.140198
240 0.172566
245 0.140609
250 0.135065
255 0.142927
260 0.102097
265 0.13969
270 0.188704
275 0.135715
280 0.159011
285 0.18116
290 0.126872
295 0.11682
300 0.137991
305 0.131307
310 0.192212
315 0.142515
320 0.203442
325 0.369406
330 9.39722
335 142.75
340 212.54
345 52.8374
350 8.35255
355 3.60692
360 3.31003
365 3.01765
370 3.86346
375 8.8328
380 9.58987
385 7.79344
390 7.21304
395 7.34139
400 7.86037
405 8.05166
410 8.32445
415 8.429
420 8.3724
425 8.20154
430 8.21941
435 7.75303
440 7.43393
445 7.64523
450 6.82355
455 6.75312
460 6.09867
465 5.55374
470 5.35621
475 5.22713
480 4.66847
485 4.26381
490 4.00066
495 3.51136
500 3.08611
505 2.7553
510 2.17233
515 2.14985
520 1.80292
525 1.58624
530 1.26283
535 1.00876
540 1.02439
545 1.03163
550 0.944916
555 0.724765
560 0.598594
565 0.499776
570 0.460749
575 0.372429
580 0.361142
585 0.22652
590 0.289525
595 0.159981
600 0.174949
Ex : 348
200 0.132185
205 0.182461
210 0.152241
215 0.121833
220 0.128119
225 0.0976486
230 0.134063
235 0.117824
240 0.111005
245 0.177993
250 0.100638
255 0.108293
260 0.22447
265 0.0954581
270 0.116496
275 0.13058
280 0.166156
285 0.0936304
290 0.122944
295 0.115995
300 0.131739
305 0.092619
310 0.158684
315 0.194743
320 0.211835
325 0.193582
330 0.351575
335 10.0765
340 147.195
345 222.331
350 58.6284
355 8.52635
360 3.58464
365 2.65897
370 2.08516
375 2.90079
380 6.66421
385 9.23986
390 8.30496
395 7.28627
400 6.59878
405 6.50414
410 6.95126
415 7.51437
420 7.71143
425 7.6469
430 7.33489
435 6.91788
440 6.54894
445 6.70388
450 6.49961
455 6.47839
460 5.94324
465 5.615
470 5.23294
475 4.73505
480 4.48393
485 3.98845
490 3.61634
495 3.0753
500 2.96266
505 2.92095
510 2.41465
515 2.00511
520 1.71709
525 1.56204
530 1.58485
535 1.19424
540 1.04162
545 1.05955
550 0.98522
555 0.894207
560 0.702973
565 0.567851
570 0.457463
575 0.351971
580 0.448229
585 0.319204
590 0.248607
595 0.17641
600 2.48483
Ex : 353
200 0.174955
205 0.117334
210 0.1028
215 0.109066
220 0.107873
225 0.169174
230 0.103646
235 0.10313
240 0.112309
245 0.162197
250 0.171243
255 0.164213
260 0.0693341
265 0.14422
270 0.240727
275 0.107757
280 0.139617
285 0.0854449
290 0.148278
295 0.238548
300 0.12319
305 0.100779
310 0.159374
315 0.0899006
320 0.183819
325 0.0868451
330 0.146605
335 0.258887
340 10.7429
345 155.321
350 226.879
355 57.0996
360 8.08999
365 2.94326
370 2.67178
375 1.90681
380 2.49662
385 5.5661
390 9.92898
395 9.10571
400 7.64023
405 6.29718
410 6.54962
415 7.0869
420 7.30668
425 7.57111
430 7.44201
435 7.35619
440 6.93265
445 6.98179
450 6.77712
455 6.42346
460 5.97844
465 5.75524
470 5.43746
475 4.98322
480 4.66837
485 4.54241
490 3.92106
495 3.46766
500 3.16955
505 3.00329
510 2.56965
515 2.21034
520 2.16553
525 1.8822
530 1.68142
535 1.41742
540 1.2296
545 1.09522
550 1.07917
555 0.878569
560 0.740335
565 0.597132
570 0.470985
575 0.526502
580 0.364819
585 0.252955
590 0.184863
595 0.204821
600 0.0387649
Ex : 358
200 0.145599
205 0.121639
210 0.102623
215 0.0956343
220 0.116107
225 0.113943
230 0.166008
235 0.143873
240 0.121082
245 0.10749
250 0.116961
255 0.122725
260 0.141921
265 0.130373
270 0.251348
275 0.11992
280 0.156954
285 0.0891289
290 0.104617
295 0.114033
300 0.0790481
305 0.0817743
310 0.133962
315 0.0793073
320 0.0690735
325 0.18385
330 0.120425
335 0.216151
340 0.292046
345 9.5842
350 150.42
355 231.108
360 59.3541
365 8.24222
370 2.70166
375 2.58221
380 2.17507
385 2.31551
390 5.01768
395 10.1696
400 9.75346
405 7.66549
410 6.56754
415 6.82399
420 7.22266
425 7.46203
430 7.31262
435 6.82312
440 6.54576
445 6.62099
450 6.72907
455 6.29931
460 6.08518
465 5.89834
470 5.54737
475 5.17567
480 4.75016
485 4.32713
490 4.27972
495 3.75421
500 3.41152
505 2.93972
510 2.79142
515 2.30532
520 2.25381
525 1.82157
530 1.56865
535 1.34002
540 1.25036
545 1.21107
550 0.930902
555 0.944339
560 0.712852
565 0.523936
570 0.554247
575 0.368312
580 0.29443
585 0.243025
590 0.293056
595 0.201471
600 0.237331
Ex : 363
200 0.0869875
205 0.135966
210 0.105411
215 0.121423
220 0.0721232
225 0.0899893
230 0.144997
235 0.076243
240 0.143713
245 0.091094
250 0.117118
255 0.0953796
260 0.111566
265 0.188576
270 0.14245
275 0.160218
280 0.119302
285 0.0901167
290 0.16075
295 0.123228
300 0.0722042
305 0.107979
310 0.137251
315 0.0683816
320 0.079438
325 0.12766
330 0.087777
335 0.151952
340 0.154935
345 0.242083
350 8.99082
355 149.169
360 233.366
365 62.5895
370 8.76105
375 2.7019
380 2.63142
385 2.20687
390 2.91538
395 4.65662
400 9.19102
405 9.70957
410 7.86522
415 7.30771
420 6.85911
425 6.90606
430 7.12016
435 6.75825
440 6.79963
445 6.87093
450 6.29464
455 6.39678
460 5.76358
465 5.90711
470 5.32779
475 5.08545
480 4.80634
485 4.57275
490 4.28802
495 3.71895
500 3.53699
505 3.31073
510 2.72217
515 2.55522
520 2.30985
525 1.96362
530 1.79379
535 1.65679
540 1.36129
545 1.159
550 0.965431
555 0.819786
560 0.786733
565 0.689184
570 0.52916
575 0.49032
580 0.300715
585 0.271301
590 0.238672
595 0.197527
600 0.129357
Ex : 368
200 0.0670223
205 0.115006
210 0.0622212
215 0.0748655
220 0.143047
225 0.0941392
230 0.105342
235 0.112577
240 0.0845325
245 0.0779975
250 0.0756255
255 0.109708
260 0.122389
265 0.103979
270 0.0657077
275 0.0775501
280 0.158542
285 0.0872497
290 0.0757032
295 0.103114
300 0.131346
305 0.123095
310 0.0888127
315 0.102876
320 0.102061
325 0.143194
330 0.134307
335 0.212749
340 0.185629
345 0.180557
350 0.280933
355 7.61671
360 145.774
365 244.363
370 68.2617
375 9.08455
380 2.73186
385 2.86894
390 3.36901
395 3.85645
400 4.89617
405 8.5804
410 11.1132
415 9.17871
420 8.28008
425 7.50543
430 6.72122
435 6.56732
440 6.55738
445 6.72823
450 6.66898
455 6.32601
460 6.13988
465 5.83205
470 5.5367
475 5.36152
480 5.10004
485 4.59336
490 4.23739
495 3.89845
500 3.56097
505 3.24343
510 2.85233
515 2.49612
520 2.20691
525 2.26399
530 1.72488
535 1.40449
540 1.47898
545 1.217
550 0.990999
555 0.942136
560 0.770594
565 0.669825
570 0.504015
575 0.402023
580 0.314328
585 0.297864
590 0.255397
595 0.220088
600 0.285446
Ex : 373
200 0.100629
205 0.0805936
210 0.101019
215 0.102623
220 0.103711
225 0.0703823
230 0.0916169
235 0.081509
240 0.1249
245 0.0595218
250 0.0933549
255 0.0909746
260 0.0833241
265 0.0579807
270 0.111635
275 0.1074
280 0.0728424
285 0.0657579
290 0.0959441
295 0.0778636
300 0.0777083
305 0.0595659
310 0.0683831
315 0.160449
320 0.0930905
325 0.160708
330 0.105542
335 0.0918062
340 0.141137
345 0.101698
350 0.183911
355 0.248472
360 9.09933
365 151.765
370 244.885
375 67.2816
380 9.32632
385 3.20246
390 4.04401
395 4.39249
400 4.70512
405 4.9318
410 7.82927
415 10.7512
420 9.68336
425 8.39105
430 7.00042
435 6.68571
440 6.67677
445 6.48395
450 6.40402
455 6.01944
460 5.92871
465 5.56241
470 5.39904
475 5.2769
480 4.84307
485 4.6472
490 4.28587
495 3.93703
500 3.31581
505 3.18965
510 2.86882
515 2.80924
520 2.26262
525 1.91922
530 1.81832
535 1.5447
540 1.23495
545 1.15098
550 0.99195
555 0.738706
560 0.819791
565 0.653392
570 0.487256
575 0.401521
580 0.379537
585 0.261531
590 0.198584
595 0.215645
600 0.483326
Ex : 378
200 0.0788373
205 0.11987
210 0.083939
215 0.0934404
220 0.118978
225 0.0762487
230 0.123847
235 0.0735116
240 0.139868
245 0.0886301
250 0.0723643
255 0.127958
260 0.0779248
265 0.0871038
270 0.0883026
275 0.130218
280 0.107682
285 0.101869
290 0.0985081
295 0.107361
300 0.134727
305 0.0963339
310 0.0795388
315 0.0636385
320 0.0769422
325 0.114241
330 0.0620845
335 0.0991832
340 0.132891
345 0.132213
350 0.190988
355 0.175667
360 0.273623
365 8.7577
370 155.995
375 254.296
380 69.4321
385 9.74555
390 3.73997
395 3.9961
400 4.38797
405 4.18095
410 4.41227
415 6.4764
420 9.9943
425 9.54052
430 7.60539
435 6.70984
440 6.12287
445 5.82237
450 5.86206
455 5.61163
460 5.62711
465 5.41078
470 5.06127
475 4.79714
480 4.60852
485 4.45619
490 4.11025
495 3.50684
500 3.29022
505 3.43035
510 2.89504
515 2.3883
520 2.14541
525 1.9134
530 1.81298
535 1.45704
540 1.33878
545 1.1043
550 0.958039
555 0.919525
560 0.772441
565 0.599268
570 0.523754
575 0.50435
580 0.281645
585 0.224198
590 0.204572
595 0.19356
600 0.130009
Ex : 383
200 0.0732999
205 0.0978389
210 0.123135
215 0.0498321
220 0.0873069
225 0.0693716
230 0.101299
235 0.0909391
240 0.0854419
245 0.0669628
250 0.0773348
255 0.0909639
260 0.0679014
265 0.0948086
270 0.0825907
275 0.0825783
280 0.125761
285 0.0856032
290 0.0830345
295 0.0674123
300 0.0952759
305 0.0813279
310 0.0786003
315 0.0778638
320 0.0965627
325 0.118279
330 0.0874019
335 0.119239
340 0.114487
345 0.104355
350 0.144048
355 0.235073
360 0.167289
365 0.260239
370 8.04565
375 154.845
380 262.684
385 73.9909
390 10.687
395 4.04594
400 4.03071
405 3.95036
410 4.13681
415 4.12707
420 5.23647
425 8.54651
430 8.80436
435 7.13653
440 6.40006
445 5.75562
450 5.57417
455 5.19608
460 5.10857
465 4.93172
470 4.67434
475 4.6069
480 4.2619
485 4.25557
490 4.20781
495 3.80372
500 3.41414
505 3.00781
510 2.60154
515 2.48547
520 2.31872
525 1.99615
530 1.70173
535 1.54412
540 1.21641
545 1.11615
550 1.1255
555 1.08727
560 0.705377
565 0.670764
570 0.535203
575 0.463824
580 0.339966
585 0.269483
590 0.183835
595 0.164276
600 0.222662
Ex : 388
200 0.089328
205 0.0786423
210 0.0707228
215 0.103665
220 0.0610981
225 0.0741937
230 0.0643437
235 0.117278
240 0.134435
245 0.0686909
250 0.0530445
255 0.0869618
260 0.0910083
265 0.0834437
270 0.0573524
275 0.06136
280 0.103516
285 0.0707573
290 0.103398
295 0.105488
300 0.0917715
305 0.0924857
310 0.0854884
315 0.0462994
320 0.108628
325 0.10574
330 0.105868
335 0.113113
340 0.0959483
345 0.0907647
350 0.137622
355 0.0959288
360 0.161217
365 0.174299
370 0.343436
375 9.27971
380 163.545
385 271.845
390 76.663
395 11.8601
400 4.2805
405 4.02256
410 4.24615
415 4.33278
420 4.56818
425 5.08661
430 7.48357
435 9.2506
440 7.60648
445 6.26448
450 5.59312
455 5.21026
460 4.96462
465 4.83972
470 4.94943
475 4.35198
480 4.33962
485 4.2102
490 3.98796
495 3.72935
500 3.46335
505 3.22839
510 2.70247
515 2.483
520 2.2814
525 2.07431
530 1.82495
535 1.6047
540 1.33087
545 1.24561
550 0.988936
555 0.899124
560 0.868518
565 0.629645
570 0.626867
575 0.489431
580 0.393413
585 0.247518
590 0.2134
595 0.187407
600 0.14986
Ex : 393
200 0.111919
205 0.0648792
210 0.127155
215 0.0956452
220 0.0768567
225 0.079587
230 0.100063
235 0.0920414
240 0.0632278
245 0.0728255
250 0.119313
255 0.066919
260 0.0702232
265 0.0762669
270 0.0938658
275 0.0507743
280 0.051719
285 0.0621609
290 0.0960558
295 0.0858223
300 0.107494
305 0.0785108
310 0.109651
315 0.0908785
320 0.068541
325 0.0960139
330 0.0965358
335 0.099852
340 0.0850275
345 0.106374
350 0.123978
355 0.0823014
360 0.149649
365 0.150916
370 0.22089
375 0.335067
380 8.56938
385 165.192
390 280.754
395 80.2929
400 12.5016
405 4.40102
410 4.3875
415 5.06672
420 4.9005
425 4.51711
430 4.63607
435 6.32758
440 8.89444
445 7.61366
450 6.51263
455 5.51043
460 4.72481
465 4.77056
470 4.35948
475 4.31648
480 4.21601
485 3.89414
490 3.59035
495 3.52091
500 3.30272
505 3.05937
510 2.90077
515 2.60252
520 2.34613
525 1.9892
530 1.65722
535 1.53617
540 1.37345
545 1.26102
550 0.971083
555 0.991356
560 0.814177
565 0.616059
570 0.630057
575 0.424367
580 0.395609
585 0.258404
590 0.211531
595 0.212531
600 0.0718306
Ex : 398
200 0.107507
205 0.0913334
210 0.0827321
215 0.0869173
220 0.0726048
225 0.0610995
230 0.0776348
235 0.061172
240 0.0859737
245 0.0874939
250 0.0824057
255 0.0706425
260 0.0848702
265 0.0757225
270 0.0846351
275 0.0763409
280 0.0594575
285 0.0582987
290 0.0570491
295 0.0514191
300 0.0650909
305 0.0347407
310 0.0814033
315 0.072937
320 0.0965858
325 0.0639379
330 0.118169
335 0.11421
340 0.0765843
345 0.10787
350 0.156531
355 0.137677
360 0.121887
365 0.138008
370 0.152145
375 0.242768
380 0.334222
385 9.05061
390 169.223
395 291.525
400 82.0072
405 12.3198
410 3.98334
415 3.87488
420 4.3029
425 3.9726
430 3.8588
435 3.94318
440 4.7768
445 7.56102
450 7.16716
455 5.7279
460 5.21531
465 4.38909
470 4.12011
475 3.9248
480 3.78499
485 3.66165
490 3.36467
495 3.22092
500 3.17166
505 2.79169
510 2.57527
515 2.51558
520 1.97726
525 1.91176
530 1.60368
535 1.47747
540 1.29379
545 1.14713
550 1.01306
555 0.970114
560 0.846644
565 0.669304
570 0.499823
575 0.396043
580 0.311221
585 0.285706
590 0.197022
595 0.147069
600 0.147858
Ex : 403
200 0.0674947
205 0.120587
210 0.0739802
215 0.0702973
220 0.0735287
225 0.118357
230 0.0910428
235 0.100859
240 0.0934752
245 0.0959331
250 0.103549
255 0.0802349
260 0.0652905
265 0.0853001
270 0.0680356
275 0.0706407
280 0.0596182
285 0.0907719
290 0.108561
295 0.078544
300 0.0622226
305 0.0653634
310 0.0746969
315 0.0716553
320 0.100095
325 0.0966724
330 0.0898908
335 0.097662
340 0.104341
345 0.142788
350 0.0856919
355 0.082672
360 0.0889351
365 0.108442
370 0.15198
375 0.1315
380 0.204167
385 0.313916
390 10.0534
395 176.191
400 297.191
405 82.7874
410 11.4973
415 3.52026
420 3.13806
425 3.28581
430 3.07688
435 2.7807
440 2.96464
445 3.72557
450 6.2922
455 6.80991
460 5.07199
465 4.54064
470 3.77252
475 3.58204
480 3.24159
485 3.15828
490 3.1969
495 2.96929
500 2.6891
505 2.5336
510 2.29565
515 2.08875
520 2.0648
525 1.7391
530 1.65016
535 1.3371
540 1.28745
545 1.06255
550 0.910582
555 0.860847
560 0.771165
565 0.686086
570 0.540622
575 0.435418
580 0.301413
585 0.233345
590 0.189674
595 0.169164
600 0.1837
Ex : 408
200 0.0806217
205 0.0555828
210 0.0592155
215 0.0633772
220 0.0680897
225 0.0680151
230 0.0521381
235 0.079474
240 0.0892193
245 0.0773136
250 0.084895
255 0.0681577
260 0.0627768
265 0.0701841
270 0.0687946
275 0.0868762
280 0.0967291
285 0.0810756
290 0.0597152
295 0.131084
300 0.114188
305 0.116998
310 0.0865425
315 0.0682563
320 0.0574881
325 0.0619796
330 0.0919936
335 0.0650008
340 0.106285
345 0.106102
350 0.103002
355 0.077474
360 0.100226
365 0.0931975
370 0.0937301
375 0.115728
380 0.14727
385 0.207044
390 0.402853
395 9.56444
400 182.411
405 303.337
410 81.3496
415 11.4432
420 3.34817
425 2.64117
430 2.92845
435 2.88409
440 2.6442
445 2.59159
450 3.00645
455 4.9889
460 6.44731
465 5.0101
470 4.12353
475 3.6795
480 3.22944
485 2.87825
490 2.74017
495 2.76583
500 2.62366
505 2.35139
510 2.16116
515 2.05404
520 1.91182
525 1.73138
530 1.48915
535 1.53995
540 1.28707
545 1.03071
550 0.939006
555 0.850999
560 0.675427
565 0.633525
570 0.560683
575 0.362842
580 0.277645
585 0.286831
590 0.238135
595 0.170455
600 0.0193972
Ex : 413
200 0.0810465
205 0.0779941
210 0.088434
215 0.110837
220 0.0664901
225 0.0725574
230 0.0918487
235 0.082801
240 0.0474016
245 0.0936532
250 0.083028
255 0.074374
260 0.0805764
265 0.0777497
270 0.104897
275 0.0823647
280 0.10553
285 0.0644744
290 0.0819234
295 0.0702176
300 0.0778979
305 0.108101
310 0.0818998
315 0.0920322
320 0.116872
325 0.104964
330 0.053315
335 0.0896442
340 0.133628
345 0.0796472
350 0.0880885
355 0.113279
360 0.109442
365 0.0814302
370 0.0611131
375 0.133089
380 0.124977
385 0.176554
390 0.20895
395 0.424244
400 11.1132
405 187.273
410 302.441
415 80.3501
420 11.1543
425 3.08121
430 2.3289
435 2.7153
440 2.6526
445 2.4829
450 2.33875
455 2.47984
460 3.99907
465 6.00805
470 5.04266
475 3.86883
480 3.43721
485 3.00289
490 2.70059
495 2.3813
500 2.33732
505 2.24929
510 1.9414
515 1.81125
520 1.7308
525 1.55473
530 1.43
535 1.29644
540 1.20728
545 1.07827
550 0.941617
555 0.903413
560 0.740957
565 0.556813
570 0.492336
575 0.386678
580 0.327613
585 0.226003
590 0.219023
595 0.192046
600 0.134107
Ex : 418
200 0.11007
205 0.0638487
210 0.0534603
215 0.0682423
220 0.0923304
225 0.101299
230 0.135392
235 0.0798903
240 0.0951406
245 0.101388
250 0.074241
255 0.083034
260 0.0790903
265 0.0921237
270 0.0537917
275 0.0831672
280 0.0548293
285 0.0801191
290 0.107882
295 0.0767342
300 0.124632
305 0.112525
310 0.0781829
315 0.0787006
320 0.117691
325 0.0996237
330 0.0680759
335 0.0937328
340 0.0697561
345 0.0758466
350 0.102352
355 0.0557142
360 0.0971894
365 0.091483
370 0.0907364
375 0.0760326
380 0.151527
385 0.122533
390 0.166837
395 0.222041
400 0.416651
405 9.96681
410 182.83
415 304.185
420 83.4161
425 11.1879
430 2.85874
435 1.84875
440 2.40255
445 2.21587
450 2.00404
455 1.95461
460 1.96551
465 2.88771
470 5.19394
475 5.40626
480 3.67938
485 3.33813
490 2.72648
495 2.32479
500 2.19488
505 2.16716
510 1.91319
515 1.81644
520 1.72349
525 1.51083
530 1.35203
535 1.18515
540 1.07948
545 1.02332
550 0.960654
555 0.673324
560 0.639848
565 0.553487
570 0.468547
575 0.375817
580 0.322221
585 0.246106
590 0.241217
595 0.168894
600 0.0192195
Ex : 423
200 0.0788491
205 0.0713285
210 0.0791916
215 0.0687244
220 0.0695258
225 0.0621706
230 0.114689
235 0.12426
240 0.0453133
245 0.0499178
250 0.104186
255 0.112021
260 0.0881914
265 0.0747899
270 0.0695272
275 0.076935
280 0.1007
285 0.0639657
290 0.0913186
295 0.0799728
300 0.104967
305 0.0895741
310 0.0935819
315 0.0739645
320 0.113367
325 0.0661858
330 0.0940077
335 0.0980582
340 0.0935718
345 0.104461
350 0.0976354
355 0.0667404
360 0.0977526
365 0.0638023
370 0.105627
375 0.11804
380 0.13387
385 0.0987199
390 0.132042
395 0.191412
400 0.270611
405 0.385415
410 10.7055
415 192.829
420 306.687
425 80.2508
430 10.5661
435 2.51847
440 1.67932
445 1.86697
450 2.03022
455 1.61025
460 1.57332
465 1.60348
470 2.19565
475 4.14413
480 5.25847
485 3.71261
490 2.88696
495 2.51694
500 1.93634
505 1.85467
510 1.71351
515 1.64587
520 1.46545
525 1.44391
530 1.31394
535 1.18524
540 1.14254
545 1.08326
550 0.781017
555 0.796739
560 0.56506
565 0.555568
570 0.512419
575 0.389847
580 0.285625
585 0.213392
590 0.225557
595 0.145528
600 0.0165606
Ex : 428
200 0.074865
205 0.0995433
210 0.0667198
215 0.103429
220 0.0475085
225 0.0874648
230 0.0766897
235 0.0790052
240 0.0709245
245 0.0596324
250 0.0757208
255 0.0849758
260 0.0679031
265 0.0770957
270 0.0728077
275 0.0717274
280 0.0707345
285 0.0842369
290 0.0645041
295 0.0993763
300 0.0873279
305 0.0890857
310 0.0630305
315 0.0749882
320 0.0587106
325 0.0700576
330 0.07114
335 0.0668934
340 0.0721416
345 0.0780758
350 0.0704879
355 0.0987613
360 0.130512
365 0.112029
370 0.102979
375 0.0956015
380 0.094537
385 0.156421
390 0.193034
395 0.149696
400 0.173198
405 0.252932
410 0.385122
415 11.6747
420 194.546
425 309.846
430 82.9455
435 10.762
440 2.39346
445 1.43611
450 1.77043
455 1.80663
460 1.59763
465 1.46868
470 1.48504
475 1.60943
480 3.40647
485 4.79034
490 3.56362
495 2.59325
500 2.50463
505 2.07373
510 1.63748
515 1.54318
520 1.4626
525 1.30235
530 1.16652
535 1.1317
540 0.990212
545 0.917824
550 0.772033
555 0.661022
560 0.58538
565 0.544852
570 0.428856
575 0.35727
580 0.280944
585 0.192089
590 0.209456
595 0.178583
600 0.0557702
Ex : 433
200 0.100247
205 0.112599
210 0.0870566
215 0.0581004
220 0.058185
225 0.076467
230 0.0945261
235 0.111118
240 0.091209
245 0.0952484
250 0.0986044
255 0.120133
260 0.0723757
265 0.0636551
270 0.0737609
275 0.0722186
280 0.0743518
285 0.101264
290 0.0780439
295 0.0628034
300 0.0722182
305 0.140523
310 0.0814603
315 0.0810875
320 0.0974471
325 0.0653275
330 0.067273
335 0.111923
340 0.0622927
345 0.0842585
350 0.0619705
355 0.102577
360 0.0936864
365 0.12466
370 0.105526
375 0.0922471
380 0.100099
385 0.08115
390 0.102715
395 0.126778
400 0.164371
405 0.189153
410 0.28645
415 0.462358
420 12.8935
425 208.483
430 315.046
435 81.5196
440 10.5062
445 2.41928
450 1.29037
455 1.55206
460 1.76303
465 1.44484
470 1.26234
475 1.34129
480 1.50764
485 2.73609
490 4.5376
495 3.8739
500 2.67037
505 2.28551
510 1.92001
515 1.53267
520 1.3799
525 1.20833
530 1.22796
535 1.06115
540 0.939042
545 0.755841
550 0.834147
555 0.709933
560 0.621593
565 0.511599
570 0.410748
575 0.351383
580 0.270183
585 0.200543
590 0.184486
595 0.187871
600 0.0482336
Ex : 438
200 0.120664
205 0.104378
210 0.139314
215 0.0929269
220 0.137276
225 0.0885642
230 0.0493116
235 0.0627676
240 0.0856581
245 0.0516016
250 0.0957043
255 0.0754271
260 0.0922263
265 0.0935611
270 0.0762733
275 0.0690754
280 0.10729
285 0.100723
290 0.060184
295 0.0639844
300 0.0971215
305 0.113219
310 0.141582
315 0.106427
320 0.0977955
325 0.103869
330 0.0864401
335 0.136903
340 0.0874544
345 0.145998
350 0.0836884
355 0.119574
360 0.0828979
365 0.126393
370 0.137221
375 0.116831
380 0.0824889
385 0.153916
390 0.0864451
395 0.13381
400 0.110038
405 0.134333
410 0.177364
415 0.254946
420 0.421003
425 12.2105
430 205.561
435 331.351
440 85.4009
445 10.9953
450 2.28536
455 1.28542
460 1.46817
465 1.6329
470 1.568
475 1.39103
480 1.40621
485 1.45913
490 1.90066
495 3.81587
500 4.09866
505 2.38739
510 2.13527
515 1.86154
520 1.53176
525 1.30464
530 1.06249
535 1.04516
540 1.01847
545 0.950122
550 0.875096
555 0.681574
560 0.5902
565 0.561559
570 0.44845
575 0.353408
580 0.325385
585 0.214127
590 0.186602
595 0.199918
600 0.108416
Ex : 443
200 0.126196
205 0.0982746
210 0.0906395
215 0.123985
220 0.122708
225 0.118946
230 0.0733226
235 0.0765298
240 0.103476
245 0.0709556
250 0.0658596
255 0.0970303
260 0.089852
265 0.0975689
270 0.0821846
275 0.100497
280 0.0787319
285 0.112848
290 0.0746732
295 0.0715837
300 0.108614
305 0.1142
310 0.0728336
315 0.098165
320 0.08227
325 0.099204
330 0.12606
335 0.0866328
340 0.103772
345 0.0755052
350 0.118083
355 0.10706
360 0.116152
365 0.0857695
370 0.159664
375 0.108958
380 0.110232
385 0.109895
390 0.178066
395 0.0962134
400 0.165591
405 0.0841128
410 0.147931
415 0.162992
420 0.256415
425 0.422123
430 13.7487
435 220.518
440 333.251
445 84.4049
450 10.8534
455 2.33709
460 1.27266
465 1.3397
470 1.59431
475 1.43082
480 1.36588
485 1.27201
490 1.35751
495 1.48773
500 2.8292
505 3.96582
510 2.56676
515 2.00501
520 1.84042
525 1.64831
530 1.15407
535 1.07714
540 0.900139
545 0.938699
550 0.757899
555 0.682701
560 0.660366
565 0.687911
570 0.51407
575 0.422895
580 0.339991
585 0.237809
590 0.209795
595 0.141137
600 0.0160609
Ex : 448
200 0.110872
205 0.125146
210 0.0768927
215 0.0956944
220 0.0639183
225 0.0968802
230 0.0844554
235 0.0645636
240 0.0836522
245 0.0938483
250 0.0389581
255 0.0809462
260 0.126374
265 0.109059
270 0.0739999
275 0.0884472
280 0.119425
285 0.0807975
290 0.0838717
295 0.0866614
300 0.0709988
305 0.0766102
310 0.106301
315 0.142454
320 0.0902985
325 0.123046
330 0.0910789
335 0.0673646
340 0.0695971
345 0.080637
350 0.0995501
355 0.0902549
360 0.124321
365 0.0844536
370 0.132381
375 0.0835457
380 0.116071
385 0.117472
390 0.108576
395 0.107609
400 0.141819
405 0.117708
410 0.147975
415 0.117363
420 0.243734
425 0.199005
430 0.355348
435 14.0901
440 230.44
445 347.98
450 87.5258
455 11.0626
460 2.40446
465 1.30945
470 1.38229
475 1.77739
480 1.45764
485 1.26876
490 1.18844
495 1.16031
500 1.37539
505 2.3682
510 3.50119
515 2.91801
520 2.05146
525 1.92167
530 1.59283
535 1.14808
540 0.963783
545 0.894911
550 0.863146
555 0.643147
560 0.644666
565 0.474579
570 0.432802
575 0.426905
580 0.348473
585 0.26496
590 0.224776
595 0.163377
600 0.0393389
Ex : 453
200 0.0759901
205 0.0565177
210 0.070513
215 0.0818185
220 0.117615
225 0.0708288
230 0.0864612
235 0.134941
240 0.0634773
245 0.0687457
250 0.0681335
255 0.0935516
260 0.0751337
265 0.0780916
270 0.0976749
275 0.104251
280 0.0677264
285 0.0673198
290 0.0702335
295 0.0701314
300 0.0628962
305 0.102853
310 0.0846873
315 0.0721262
320 0.0651914
325 0.101693
330 0.0973971
335 0.0915565
340 0.0839042
345 0.0812475
350 0.123601
355 0.100047
360 0.0996038
365 0.124383
370 0.0980942
375 0.0968169
380 0.119503
385 0.100931
390 0.110138
395 0.144793
400 0.155044
405 0.12878
410 0.0992887
415 0.108603
420 0.163622
425 0.203068
430 0.211331
435 0.389749
440 14.8083
445 245.876
450 355.616
455 85.0353
460 10.8732
465 2.35531
470 1.22506
475 1.30387
480 1.5848
485 1.49776
490 1.2671
495 1.29502
500 1.17412
505 1.26097
510 1.60335
515 3.4658
520 3.28757
525 2.16178
530 1.72976
535 1.53312
540 1.19768
545 0.99134
550 0.766664
555 0.729249
560 0.626655
565 0.539162
570 0.458831
575 0.344884
580 0.316569
585 0.215496
590 0.188707
595 0.143269
600 0.0163035
Ex : 458
200 0.0633988
205 0.0978482
210 0.0759688
215 0.105152
220 0.0773604
225 0.0663337
230 0.131499
235 0.115669
240 0.0521328
245 0.077646
250 0.0728611
255 0.0927776
260 0.096045
265 0.093459
270 0.066258
275 0.100828
280 0.105356
285 0.0924143
290 0.104544
295 0.0865874
300 0.094807
305 0.0806901
310 0.0910932
315 0.0931665
320 0.100642
325 0.142644
330 0.0988287
335 0.126896
340 0.101096
345 0.0959512
350 0.108675
355 0.0689979
360 0.113514
365 0.100308
370 0.0915668
375 0.120277
380 0.0867403
385 0.0860441
390 0.0983633
395 0.103567
400 0.116216
405 0.0836955
410 0.0994652
415 0.101781
420 0.121339
425 0.16673
430 0.2156
435 0.244083
440 0.390503
445 15.4814
450 247.584
455 368.866
460 90.6205
465 11.6173
470 2.48367
475 1.27459
480 1.34646
485 1.64703
490 1.36885
495 1.15143
500 1.07571
505 0.950225
510 1.13135
515 1.36013
520 2.47798
525 3.48607
530 2.32361
535 1.66697
540 1.52123
545 1.12466
550 0.874066
555 0.752414
560 0.574
565 0.538804
570 0.478597
575 0.299289
580 0.36403
585 0.242632
590 0.198179
595 0.143533
600 0.107115
Ex : 463
200 0.0837632
205 0.093486
210 0.0968412
215 0.0719341
220 0.0631709
225 0.109987
230 0.1013
235 0.0582345
240 0.0790125
245 0.0974298
250 0.058449
255 0.064643
260 0.115558
265 0.097386
270 0.0806817
275 0.0668253
280 0.06349
285 0.0594352
290 0.0795281
295 0.0845559
300 0.0864182
305 0.0824131
310 0.0811446
315 0.116682
320 0.118313
325 0.127562
330 0.102783
335 0.0623015
340 0.0837973
345 0.0923854
350 0.100418
355 0.0504604
360 0.0758767
365 0.110611
370 0.135211
375 0.0914376
380 0.122002
385 0.0954136
390 0.0918369
395 0.0962523
400 0.115178
405 0.118131
410 0.140081
415 0.123115
420 0.122885
425 0.128678
430 0.161108
435 0.194951
440 0.267155
445 0.375885
450 15.3234
455 263.373
460 402.323
465 98.2794
470 12.5974
475 2.56584
480 1.33805
485 1.33229
490 1.55815
495 1.39526
500 1.17134
505 0.952938
510 0.969535
515 1.11265
520 1.25331
525 2.0713
530 3.19682
535 2.66592
540 1.62575
545 1.37304
550 1.21859
555 0.887074
560 0.731284
565 0.60816
570 0.562411
575 0.384766
580 0.305502
585 0.269573
590 0.258596
595 0.199308
600 0.0226805
Ex : 468
200 0.0622651
205 0.0973989
210 0.0692959
215 0.0788332
220 0.0858705
225 0.0966386
230 0.134822
235 0.0868857
240 0.0759545
245 0.0696845
250 0.0990686
255 0.0850271
260 0.0874038
265 0.0930969
270 0.0661707
275 0.0686115
280 0.0726363
285 0.0758772
290 0.0590207
295 0.0901203
300 0.0648991
305 0.0595833
310 0.0662478
315 0.0563455
320 0.103766
325 0.0911628
330 0.0598023
335 0.0882959
340 0.094804
345 0.0618465
350 0.0627184
355 0.0739238
360 0.0549176
365 0.074696
370 0.0799392
375 0.102795
380 0.129405
385 0.0982621
390 0.080598
395 0.0925024
400 0.109766
405 0.149094
410 0.139541
415 0.140857
420 0.0879618
425 0.111475
430 0.118286
435 0.162352
440 0.211835
445 0.271215
450 0.437025
455 16.8154
460 255.641
465 406.117
470 99.4921
475 12.5877
480 2.51662
485 1.2604
490 1.25627
495 1.35964
500 1.46231
505 1.26764
510 1.03121
515 1.10515
520 1.08553
525 1.15172
530 1.47762
535 2.84084
540 2.87773
545 1.81919
550 1.3814
555 1.18564
560 0.837439
565 0.685328
570 0.547971
575 0.435617
580 0.331939
585 0.265749
590 0.22102
595 0.187854
600 0.021377
Ex : 473
200 0.131931
205 0.120612
210 0.0828556
215 0.105053
220 0.0954524
225 0.0804867
230 0.0831028
235 0.0736718
240 0.115924
245 0.0738026
250 0.128544
255 0.0873372
260 0.0645541
265 0.0747766
270 0.0688804
275 0.0678302
280 0.0695828
285 0.122093
290 0.0827113
295 0.155228
300 0.118348
305 0.120903
310 0.0895533
315 0.086904
320 0.0785346
325 0.0815134
330 0.076651
335 0.0727193
340 0.0755367
345 0.0864708
350 0.0705911
355 0.0904132
360 0.0957763
365 0.0978554
370 0.0830799
375 0.102936
380 0.10798
385 0.123294
390 0.105698
395 0.0998075
400 0.121161
405 0.106225
410 0.0984058
415 0.109098
420 0.126094
425 0.121081
430 0.222643
435 0.166694
440 0.153547
445 0.225362
450 0.278039
455 0.462311
460 19.3307
465 281.327
470 394.283
475 91.485
480 11.5798
485 2.44124
490 1.22455
495 0.968214
500 1.20252
505 1.2569
510 1.22955
515 1.01401
520 1.01597
525 1.02808
530 1.08062
535 1.28761
540 2.1942
545 2.74947
550 1.88163
555 1.18887
560 1.09921
565 0.928254
570 0.678037
575 0.544819
580 0.33916
585 0.258912
590 0.199277
595 0.229669
600 0.0572304
Ex : 478
200 0.104959
205 0.0808361
210 0.131457
215 0.0946857
220 0.107273
225 0.0882849
230 0.117782
235 0.120995
240 0.0640414
245 0.130745
250 0.0659065
255 0.113112
260 0.116075
265 0.0918779
270 0.0937897
275 0.125922
280 0.0859426
285 0.135315
290 0.128895
295 0.0977704
300 0.146225
305 0.108829
310 0.0952405
315 0.105072
320 0.0746433
325 0.13311
330 0.10103
335 0.112232
340 0.164936
345 0.107083
350 0.102103
355 0.101096
360 0.131577
365 0.0847046
370 0.11556
375 0.112124
380 0.117788
385 0.103656
390 0.132638
395 0.116043
400 0.107752
405 0.15728
410 0.086785
415 0.14407
420 0.157365
425 0.18226
430 0.134862
435 0.167188
440 0.138593
445 0.173958
450 0.236956
455 0.299101
460 0.471947
465 19.8807
470 287.446
475 403.217
480 97.6136
485 12.2487
490 2.42115
495 1.15304
500 0.950653
505 1.2187
510 1.29234
515 1.21672
520 1.10886
525 1.09974
530 1.12762
535 0.994436
540 1.06172
545 1.62742
550 2.5223
555 2.02473
560 1.25416
565 0.987467
570 0.669842
575 0.545392
580 0.338071
585 0.319445
590 0.23197
595 0.149434
600 0.0916327
Ex : 483
200 0.169054
205 0.0747177
210 0.116589
215 0.128124
220 0.122623
225 0.133693
230 0.10661
235 0.0823452
240 0.0991081
245 0.111282
250 0.0851213
255 0.107432
260 0.102199
265 0.121981
270 0.128006
275 0.107609
280 0.148154
285 0.120607
290 0.11713
295 0.119924
300 0.0846704
305 0.0790075
310 0.0779833
315 0.116896
320 0.068179
325 0.0828943
330 0.145428
335 0.0955901
340 0.0873421
345 0.13536
350 0.12186
355 0.0525428
360 0.0918191
365 0.123254
370 0.118537
375 0.116498
380 0.0737086
385 0.1001
390 0.132002
395 0.141242
400 0.101982
405 0.125238
410 0.131457
415 0.174321
420 0.0982184
425 0.118558
430 0.153764
435 0.117407
440 0.133758
445 0.156697
450 0.183829
455 0.222118
460 0.353966
465 0.546133
470 15.7352
475 275.936
480 425.941
485 103.58
490 12.8268
495 2.40208
500 1.12094
505 0.844079
510 1.07263
515 1.32695
520 1.25832
525 1.21287
530 1.02193
535 1.02436
540 1.02569
545 0.969921
550 1.20222
555 2.09273
560 2.20719
565 1.18852
570 0.820992
575 0.675969
580 0.508744
585 0.328606
590 0.239848
595 0.251907
600 0.182521
Ex : 488
200 0.0760073
205 0.0851462
210 0.0849823
215 0.0998757
220 0.136929
225 0.103488
230 0.150138
235 0.0953538
240 0.0706216
245 0.055114
250 0.188701
255 0.0912353
260 0.138432
265 0.144263
270 0.107724
275 0.128851
280 0.125664
285 0.122497
290 0.113461
295 0.115497
300 0.0910466
305 0.086083
310 0.0949623
315 0.0910734
320 0.0751524
325 0.132155
330 0.11735
335 0.137033
340 0.12398
345 0.115083
350 0.138942
355 0.115521
360 0.0962582
365 0.090722
370 0.114133
375 0.123845
380 0.160443
385 0.14425
390 0.166135
395 0.124859
400 0.162961
405 0.166654
410 0.239487
415 0.144966
420 0.178336
425 0.14423
430 0.108547
435 0.16121
440 0.223991
445 0.164484
450 0.161606
455 0.176878
460 0.294217
465 0.367156
470 0.580707
475 19.7987
480 305.282
485 421.171
490 98.4372
495 12.1407
500 2.2029
505 1.07653
510 0.812385
515 1.20197
520 1.33416
525 1.14773
530 1.20053
535 1.08187
540 1.02177
545 1.03208
550 0.831673
555 0.959059
560 1.55571
565 2.0466
570 1.29913
575 0.752196
580 0.532492
585 0.454997
590 0.325568
595 0.263209
600 0.442612
Ex : 493
200 0.0865419
205 0.0752331
210 0.0778778
215 0.0678778
220 0.139273
225 0.100888
230 0.102461
235 0.117662
240 0.151057
245 0.109918
250 0.106929
255 0.146055
260 0.122209
265 0.106512
270 0.094789
275 0.0936725
280 0.103164
285 0.136496
290 0.0958842
295 0.125801
300 0.165849
305 0.111176
310 0.0808706
315 0.127965
320 0.0955144
325 0.143739
330 0.123409
335 0.0992275
340 0.144299
345 0.122
350 0.139251
355 0.0870476
360 0.0782911
365 0.10051
370 0.123229
375 0.107456
380 0.122963
385 0.117827
390 0.135921
395 0.113343
400 0.122969
405 0.101619
410 0.138787
415 0.0986966
420 0.113392
425 0.116248
430 0.115123
435 0.11
440 0.144351
445 0.200098
450 0.183986
455 0.202893
460 0.229686
465 0.305881
470 0.38945
475 0.614251
480 20.9305
485 311.332
490 436.072
495 99.5985
500 12.4154
505 2.26156
510 1.10187
515 0.908375
520 0.944321
525 1.27771
530 1.34532
535 1.18171
540 1.09962
545 0.971736
550 0.798105
555 0.785726
560 0.873701
565 1.03513
570 1.59116
575 1.34649
580 0.732778
585 0.455115
590 0.386281
595 0.289884
600 0.0363319
Ex : 498
200 0.103075
205 0.119506
210 0.106081
215 0.0956336
220 0.124499
225 0.153295
230 0.109783
235 0.0900123
240 0.117432
245 0.160457
250 0.149081
255 0.102136
260 0.140481
265 0.138752
270 0.121254
275 0.118518
280 0.147904
285 0.0943068
290 0.127408
295 0.0759133
300 0.0828891
305 0.158127
310 0.123901
315 0.117556
320 0.125761
325 0.139007
330 0.146188
335 0.122358
340 0.147175
345 0.148777
350 0.236156
355 0.0989169
360 0.160798
365 0.132379
370 0.110629
375 0.211187
380 0.0900101
385 0.103202
390 0.107605
395 0.117117
400 0.0865895
405 0.170764
410 0.171192
415 0.177914
420 0.131345
425 0.154986
430 0.102453
435 0.106393
440 0.169591
445 0.137978
450 0.157297
455 0.160784
460 0.211292
465 0.231459
470 0.303194
475 0.38378
480 0.580968
485 21.2235
490 306.139
495 414.36
500 96.0243
505 11.8673
510 2.18837
515 1.25413
520 0.968668
525 1.07815
530 1.27492
535 1.31739
540 1.03184
545 0.869144
550 0.795062
555 0.836065
560 0.848566
565 0.646388
570 0.706113
575 1.12093
580 1.28386
585 0.693781
590 0.335242
595 0.279477
600 0.14772
Ex : 503
200 0.16196
205 0.119221
210 0.126117
215 0.141559
220 0.154084
225 0.10007
230 0.0752993
235 0.106669
240 0.104796
245 0.108506
250 0.088421
255 0.0948892
260 0.0973329
265 0.135156
270 0.12625
275 0.123917
280 0.0748312
285 0.0958943
290 0.11581
295 0.136757
300 0.138266
305 0.118115
310 0.139611
315 0.155587
320 0.137126
325 0.142299
330 0.11785
335 0.100983
340 0.134591
345 0.120981
350 0.156898
355 0.129484
360 0.140051
365 0.126583
370 0.119352
375 0.0851275
380 0.105549
385 0.112285
390 0.132631
395 0.135274
400 0.127656
405 0.130349
410 0.139425
415 0.158076
420 0.150839
425 0.166717
430 0.158519
435 0.119731
440 0.152012
445 0.130965
450 0.156658
455 0.135286
460 0.148857
465 0.233479
470 0.181941
475 0.271725
480 0.361042
485 0.555021
490 18.577
495 301.792
500 424.433
505 98.3828
510 12.2415
515 2.26688
520 1.29574
525 1.04715
530 0.91995
535 1.2523
540 1.21879
545 0.965604
550 0.930059
555 0.775791
560 0.753171
565 0.599548
570 0.474772
575 0.398028
580 0.634784
585 0.877523
590 0.499859
595 0.32187
600 0.379293
Ex : 508
200 0.228916
205 0.12884
210 0.142108
215 0.136534
220 0.134073
225 0.0875546
230 0.103834
235 0.109702
240 0.0997199
245 0.116539
250 0.134253
255 0.159938
260 0.174133
265 0.136224
270 0.0922634
275 0.112712
280 0.0906874
285 0.112396
290 0.126678
295 0.128892
300 0.0946133
305 0.146553
310 0.132736
315 0.146733
320 0.0952835
325 0.118026
330 0.195696
335 0.123334
340 0.187924
345 0.117925
350 0.122845
355 0.132373
360 0.184348
365 0.164731
370 0.109579
375 0.114885
380 0.098125
385 0.262676
390 0.127624
395 0.111845
400 0.120655
405 0.110937
410 0.11107
415 0.144443
420 0.192296
425 0.138739
430 0.0926136
435 0.15766
440 0.109804
445 0.166311
450 0.152848
455 0.122298
460 0.172036
465 0.226394
470 0.225764
475 0.263391
480 0.256414
485 0.400891
490 0.635322
495 20.4561
500 296.745
505 424.589
510 104.178
515 12.7099
520 2.37662
525 1.23541
530 1.10357
535 1.09694
540 1.06368
545 1.1105
550 1.20144
555 0.927508
560 0.656728
565 0.621667
570 0.487872
575 0.512032
580 0.44742
585 0.456749
590 0.733447
595 0.688135
600 0.685296
Ex : 513
200 0.207426
205 0.13137
210 0.118183
215 0.128491
220 0.126353
225 0.135157
230 0.0836035
235 0.124215
240 0.158357
245 0.12128
250 0.138718
255 0.132007
260 0.0994649
265 0.138824
270 0.107611
275 0.147509
280 0.162178
285 0.153679
290 0.180979
295 0.0882706
300 0.124465
305 0.149524
310 0.116962
315 0.137943
320 0.121614
325 0.126661
330 0.116299
335 0.0895182
340 0.148802
345 0.120003
350 0.120996
355 0.0983067
360 0.12753
365 0.159832
370 0.134996
375 0.218226
380 0.147881
385 0.141812
390 0.129794
395 0.129917
400 0.140826
405 0.184555
410 0.128895
415 0.153938
420 0.188929
425 0.142677
430 0.144966
435 0.118827
440 0.135524
445 0.130693
450 0.140421
455 0.168979
460 0.136786
465 0.143397
470 0.132867
475 0.132789
480 0.284665
485 0.271511
490 0.376735
495 0.495138
500 18.5505
505 291.15
510 424.98
515 106.257
520 13.0645
525 2.48536
530 1.40601
535 1.08069
540 0.898457
545 1.1957
550 1.04394
555 1.02568
560 0.821084
565 0.581683
570 0.396172
575 0.395729
580 0.407503
585 0.398329
590 0.303298
595 0.451861
600 0.644303
Ex : 518
200 0.192365
205 0.113493
210 0.131042
215 0.134912
220 0.100206
225 0.146434
230 0.105998
235 0.147759
240 0.133257
245 0.151157
250 0.149254
255 0.115782
260 0.141212
265 0.149569
270 0.0980006
275 0.10326
280 0.136533
285 0.118874
290 0.110375
295 0.126215
300 0.127212
305 0.130544
310 0.138769
315 0.191933
320 0.166475
325 0.173281
330 0.102468
335 0.149177
340 0.143416
345 0.158641
350 0.103202
355 0.110878
360 0.126662
365 0.177915
370 0.183451
375 0.103014
380 0.154507
385 0.0976462
390 0.159393
395 0.117972
400 0.141354
405 0.187987
410 0.125082
415 0.163199
420 0.13159
425 0.141182
430 0.128962
435 0.222183
440 0.198032
445 0.184587
450 0.148624
455 0.166358
460 0.216342
465 0.188852
470 0.222018
475 0.195673
480 0.211028
485 0.194894
490 0.225939
495 0.30074
500 0.619272
505 18.3894
510 280.711
515 415.965
520 103.798
525 12.9258
530 2.41359
535 1.29182
540 1.0439
545 0.917608
550 1.04148
555 0.936361
560 0.992348
565 0.792029
570 0.54959
575 0.511692
580 0.338931
585 0.31425
590 0.247749
595 0.262857
600 0.0299122
Ex : 523
200 0.123256
205 0.085178
210 0.10719
215 0.147856
220 0.118016
225 0.105653
230 0.107395
235 0.122357
240 0.14346
245 0.177338
250 0.111537
255 0.0656487
260 0.171404
265 0.120489
270 0.144946
275 0.15677
280 0.107463
285 0.140517
290 0.112791
295 0.100312
300 0.112403
305 0.0640209
310 0.153554
315 0.13317
320 0.136149
325 0.14729
330 0.146578
335 0.153674
340 0.172431
345 0.119398
350 0.134619
355 0.141307
360 0.151762
365 0.128767
370 0.11026
375 0.14967
380 0.115721
385 0.0822768
390 0.13931
395 0.125738
400 0.126727
405 0.138082
410 0.121364
415 0.131587
420 0.108446
425 0.148953
430 0.15237
435 0.1571
440 0.145005
445 0.165689
450 0.150605
455 0.139842
460 0.15272
465 0.161309
470 0.13937
475 0.141938
480 0.200677
485 0.242268
490 0.210668
495 0.378371
500 0.346069
505 0.504492
510 15.8557
515 274.254
520 420.407
525 108.954
530 13.6399
535 2.49962
540 1.47847
545 1.23963
550 1.11468
555 0.887881
560 0.877781
565 0.780701
570 0.681149
575 0.498841
580 0.335915
585 0.280318
590 0.241291
595 0.239807
600 0.0272891
Ex : 528
200 0.107208
205 0.108855
210 0.129155
215 0.0910699
220 0.162423
225 0.117984
230 0.13984
235 0.163255
240 0.136608
245 0.105118
250 0.0983604
255 0.125183
260 0.0975692
265 0.140294
270 0.113805
275 0.119053
280 0.120211
285 0.132825
290 0.13463
295 0.195322
300 0.161777
305 0.176394
310 0.163128
315 0.125648
320 0.164315
325 0.117731
330 0.135974
335 0.148177
340 0.176086
345 0.281883
350 0.120071
355 0.14973
360 0.139767
365 0.195744
370 0.122716
375 0.155783
380 0.118909
385 0.136151
390 0.188163
395 0.150955
400 0.13734
405 0.163509
410 0.147493
415 0.149029
420 0.113523
425 0.192023
430 0.166611
435 0.239675
440 0.160905
445 0.199355
450 0.152966
455 0.181183
460 0.14657
465 0.178893
470 0.169274
475 0.16947
480 0.171659
485 0.164287
490 0.262306
495 0.225732
500 0.258118
505 0.34937
510 0.488333
515 15.9462
520 268.256
525 411.579
530 105.904
535 13.2907
540 2.46663
545 1.35702
550 1.14679
555 0.909992
560 0.882768
565 0.858118
570 0.777488
575 0.470355
580 0.507723
585 0.380239
590 0.224037
595 0.279083
600 0.16981
Ex : 533
200 0.121647
205 0.137224
210 0.150068
215 0.125619
220 0.150651
225 0.163289
230 0.138676
235 0.0722972
240 0.143203
245 0.154716
250 0.113138
255 0.0993985
260 0.164437
265 0.117689
270 0.113477
275 0.128046
280 0.108651
285 0.147947
290 0.157069
295 0.115759
300 0.0944893
305 0.157488
310 0.132594
315 0.197526
320 0.174491
325 0.134389
330 0.167377
335 0.105555
340 0.142122
345 0.0899304
350 0.171707
355 0.125612
360 0.182446
365 0.094808
370 0.135411
375 0.122209
380 0.209736
385 0.192443
390 0.156179
395 0.230297
400 0.176873
405 0.179942
410 0.166787
415 0.135515
420 0.19293
425 0.12641
430 0.123717
435 0.20141
440 0.185097
445 0.215577
450 0.243782
455 0.180386
460 0.192466
465 0.169099
470 0.155453
475 0.245926
480 0.206893
485 0.190264
490 0.168031
495 0.168689
500 0.20206
505 0.232858
510 0.306897
515 0.528005
520 15.3915
525 255.564
530 401.239
535 105.746
540 13.2615
545 2.468
550 1.20018
555 1.00259
560 0.792976
565 0.679999
570 0.695655
575 0.550679
580 0.527713
585 0.395287
590 0.21678
595 0.216121
600 0.173068
Ex : 538
200 0.117025
205 0.112927
210 0.120559
215 0.142083
220 0.101659
225 0.162404
230 0.143614
235 0.152884
240 0.101579
245 0.132938
250 0.14222
255 0.111466
260 0.140038
265 0.151841
270 0.171801
275 0.182977
280 0.168254
285 0.210183
290 0.148693
295 0.134544
300 0.29953
305 0.143321
310 0.159717
315 0.133402
320 0.137974
325 0.111189
330 0.206991
335 0.168088
340 0.151812
345 0.152442
350 0.111227
355 0.13439
360 0.129943
365 0.177089
370 0.161622
375 0.183363
380 0.173154
385 0.119069
390 0.164378
395 0.162971
400 0.131274
405 0.146529
410 0.17798
415 0.14231
420 0.169421
425 0.135728
430 0.134239
435 0.147972
440 0.255331
445 0.15229
450 0.132721
455 0.175501
460 0.130689
465 0.20644
470 0.179025
475 0.174374
480 0.157094
485 0.174523
490 0.180319
495 0.171672
500 0.135182
505 0.184577
510 0.221292
515 0.400566
520 0.5323
525 12.9083
530 244.785
535 396.952
540 108.361
545 13.5141
550 2.35935
555 1.07711
560 0.821218
565 0.688809
570 0.486433
575 0.489371
580 0.401642
585 0.288476
590 0.20869
595 0.18649
600 0.0212218
Ex : 543
200 0.130923
205 0.185349
210 0.135881
215 0.0953935
220 0.126601
225 0.194398
230 0.199244
235 0.16687
240 0.188149
245 0.148668
250 0.142437
255 0.11342
260 0.113856
265 0.162429
270 0.167281
275 0.136153
280 0.0827213
285 0.154689
290 0.160371
295 0.17249
300 0.136703
305 0.0983297
310 0.081864
315 0.10739
320 0.122347
325 0.108839
330 0.0979606
335 0.113212
340 0.176619
345 0.11507
350 0.199435
355 0.16532
360 0.125341
365 0.127459
370 0.163582
375 0.133901
380 0.162997
385 0.0887812
390 0.204448
395 0.221369
400 0.146905
405 0.11781
410 0.126601
415 0.125728
420 0.204478
425 0.170812
430 0.15078
435 0.176299
440 0.18641
445 0.208724
450 0.144162
455 0.166639
460 0.156585
465 0.159166
470 0.147514
475 0.171636
480 0.234515
485 0.135283
490 0.175285
495 0.25024
500 0.189147
505 0.220049
510 0.26684
515 0.207606
520 0.366957
525 0.576223
530 12.8721
535 232.243
540 400.03
545 113.354
550 13.9803
555 2.49391
560 0.918047
565 0.766238
570 0.462975
575 0.348752
580 0.331983
585 0.317256
590 0.297655
595 0.329391
600 0.0374834
Ex : 548
200 0.0598244
205 0.19753
210 0.190612
215 0.116555
220 0.198787
225 0.260525
230 0.130418
235 0.118837
240 0.109283
245 0.148263
250 0.208883
255 0.17575
260 0.159882
265 0.114068
270 0.156601
275 0.171571
280 0.254999
285 0.185421
290 0.161459
295 0.143802
300 0.157519
305 0.192794
310 0.148315
315 0.189775
320 0.140665
325 0.150105
330 0.0710157
335 0.138256
340 0.145811
345 0.110739
350 0.16727
355 0.162395
360 0.0983508
365 0.192109
370 0.158303
375 0.189051
380 0.18458
385 0.112176
390 0.1449
395 0.190138
400 0.256824
405 0.15837
410 0.188474
415 0.145947
420 0.116305
425 0.13508
430 0.119075
435 0.12109
440 0.172147
445 0.193196
450 0.206188
455 0.197155
460 0.191444
465 0.159798
470 0.160342
475 0.154511
480 0.207989
485 0.163392
490 0.192086
495 0.167584
500 0.172584
505 0.164562
510 0.182685
515 0.273697
520 0.253333
525 0.433215
530 0.511458
535 13.424
540 237.701
545 392.045
550 110.327
555 13.6242
560 2.0515
565 0.648645
570 0.417983
575 0.312278
580 0.204476
585 0.298197
590 0.360914
595 0.278564
600 0.530189
Ex : 553
200 0.227913
205 0.106079
210 0.120934
215 0.119967
220 0.164306
225 0.147227
230 0.13792
235 0.179415
240 0.181885
245 0.127636
250 0.121614
255 0.0990968
260 0.100683
265 0.17018
270 0.142318
275 0.23234
280 0.123459
285 0.194556
290 0.160816
295 0.141896
300 0.143459
305 0.138376
310 0.108002
315 0.148629
320 0.168174
325 0.118185
330 0.141372
335 0.197662
340 0.112164
345 0.136208
350 0.149039
355 0.163505
360 0.152455
365 0.114942
370 0.199387
375 0.147888
380 0.197493
385 0.128243
390 0.174436
395 0.101538
400 0.214215
405 0.159489
410 0.132829
415 0.125299
420 0.144247
425 0.221086
430 0.177302
435 0.174483
440 0.187916
445 0.172669
450 0.155144
455 0.200836
460 0.167745
465 0.204321
470 0.149443
475 0.144482
480 0.209089
485 0.134445
490 0.187949
495 0.132288
500 0.180435
505 0.231706
510 0.252627
515 0.230731
520 0.195942
525 0.217028
530 0.32272
535 0.530721
540 11.3186
545 223.044
550 387.002
555 110.817
560 13.4615
565 2.00248
570 0.683198
575 0.402728
580 0.208795
585 0.165553
590 0.275001
595 0.226012
600 0.0723616
Ex : 558
200 0.121734
205 0.10776
210 0.200644
215 0.212531
220 0.144932
225 0.14313
230 0.129511
235 0.190575
240 0.170139
245 0.16151
250 0.122775
255 0.180691
260 0.0905661
265 0.190334
270 0.19027
275 0.104762
280 0.13258
285 0.216661
290 0.183426
295 0.145058
300 0.14405
305 0.131033
310 0.154838
315 0.13513
320 0.135947
325 0.149117
330 0.216589
335 0.101664
340 0.222625
345 0.228473
350 0.155719
355 0.13498
360 0.164686
365 0.19634
370 0.217416
375 0.143151
380 0.192244
385 0.17353
390 0.177252
395 0.208932
400 0.115837
405 0.198016
410 0.231287
415 0.160912
420 0.133551
425 0.151942
430 0.183494
435 0.275072
440 0.242879
445 0.148666
450 0.165969
455 0.107133
460 0.168679
465 0.171825
470 0.17773
475 0.16653
480 0.170489
485 0.190389
490 0.189816
495 0.155338
500 0.140757
505 0.15319
510 0.212258
515 0.220745
520 0.183881
525 0.174824
530 0.296144
535 0.271991
540 0.706136
545 11.2535
550 321.807
555 523.281
560 126.844
565 15.2885
570 2.13487
575 0.603332
580 0.451887
585 0.269445
590 0.224298
595 0.235523
600 0.124068
Ex : 563
200 0.207342
205 0.17736
210 0.223014
215 0.213718
220 0.101662
225 0.153005
230 0.151425
235 0.15676
240 0.128697
245 0.165868
250 0.160292
255 0.130846
260 0.166609
265 0.212178
270 0.124342
275 0.159319
280 0.163051
285 0.192778
290 0.124919
295 0.114713
300 0.146024
305 0.145935
310 0.191451
315 0.130323
320 0.220466
325 0.199005
330 0.153955
335 0.218469
340 0.150684
345 0.198957
350 0.225326
355 0.159468
360 0.146443
365 0.138693
370 0.26291
375 0.252266
380 0.258857
385 0.173392
390 0.184572
395 0.169874
400 0.189252
405 0.235732
410 0.119731
415 0.213411
420 0.223251
425 0.177015
430 0.146725
435 0.138071
440 0.26112
445 0.188438
450 0.187714
455 0.132319
460 0.201325
465 0.184869
470 0.276543
475 0.184103
480 0.194031
485 0.286837
490 0.221186
495 0.299709
500 0.21711
505 0.141785
510 0.177068
515 0.146921
520 0.214463
525 0.186499
530 0.244886
535 0.320515
540 0.316552
545 0.543104
550 10.215
555 209.15
560 364.336
565 105.276
570 12.791
575 1.87038
580 0.408823
585 0.377124
590 0.307916
595 0.336989
600 0.0550689
Ex : 568
200 0.157539
205 0.175387
210 0.162279
215 0.193627
220 0.224828
225 0.199227
230 0.113095
235 0.15246
240 0.170275
245 0.217464
250 0.171834
255 0.136185
260 0.130495
265 0.207348
270 0.168273
275 0.138796
280 0.165982
285 0.145763
290 0.125943
295 0.12521
300 0.192992
305 0.117701
310 0.12482
315 0.129867
320 0.122589
325 0.158159
330 0.151347
335 0.134665
340 0.119132
345 0.212116
350 0.121739
355 0.136498
360 0.116061
365 0.220152
370 0.190926
375 0.137543
380 0.222051
385 0.172034
390 0.172706
395 0.215587
400 0.206441
405 0.17691
410 0.24857
415 0.144445
420 0.217953
425 0.176571
430 0.21497
435 0.204678
440 0.156823
445 0.161507
450 0.189401
455 0.208094
460 0.138644
465 0.13514
470 0.151644
475 0.166781
480 0.211001
485 0.194582
490 0.148005
495 0.131943
500 0.12543
505 0.232188
510 0.232277
515 0.228789
520 0.184787
525 0.216017
530 0.256934
535 0.30106
540 0.222561
545 0.253531
550 0.336046
555 7.68597
560 184.273
565 344.629
570 106.35
575 12.834
580 1.79828
585 0.474614
590 0.382461
595 0.25702
600 0.0917366
Ex : 573
200 0.162743
205 0.141119
210 0.0956891
215 0.198075
220 0.249707
225 0.149089
230 0.192025
235 0.170933
240 0.0923287
245 0.147614
250 0.23549
255 0.121884
260 0.15772
265 0.143261
270 0.148064
275 0.195327
280 0.21238
285 0.140408
290 0.199393
295 0.210554
300 0.174743
305 0.158236
310 0.165003
315 0.152511
320 0.108605
325 0.269762
330 0.165908
335 0.142595
340 0.182908
345 0.136911
350 0.156005
355 0.173029
360 0.165559
365 0.189936
370 0.199699
375 0.165483
380 0.227176
385 0.195822
390 0.163485
395 0.284073
400 0.208582
405 0.22478
410 0.263021
415 0.296909
420 0.215984
425 0.215924
430 0.164363
435 0.195521
440 0.237232
445 0.129158
450 0.166614
455 0.220492
460 0.164222
465 0.173213
470 0.173207
475 0.211608
480 0.222835
485 0.192229
490 0.166974
495 0.147436
500 0.103492
505 0.141682
510 0.148948
515 0.13961
520 0.177927
525 0.270387
530 0.228552
535 0.186068
540 0.22751
545 0.266636
550 0.377865
555 0.403365
560 7.0021
565 161.517
570 329.775
575 104.545
580 12.6382
585 1.67112
590 0.375979
595 0.301849
600 0.0343492
Ex : 578
200 0.140711
205 0.13095
210 0.104233
215 0.247036
220 0.162429
225 0.136326
230 0.18478
235 0.227162
240 0.130623
245 0.109841
250 0.156099
255 0.105193
260 0.166352
265 0.190421
270 0.202509
275 0.172219
280 0.174792
285 0.181137
290 0.198375
295 0.248873
300 0.184326
305 0.180123
310 0.156391
315 0.165763
320 0.196365
325 0.173164
330 0.240598
335 0.19806
340 0.203455
345 0.148797
350 0.125013
355 0.150087
360 0.189976
365 0.24933
370 0.180838
375 0.176244
380 0.218763
385 0.266863
390 0.192957
395 0.173787
400 0.170155
405 0.181728
410 0.244299
415 0.232208
420 0.217424
425 0.178474
430 0.295198
435 0.125109
440 0.18248
445 0.264522
450 0.153765
455 0.187009
460 0.195416
465 0.186183
470 0.223983
475 0.159353
480 0.230242
485 0.142555
490 0.137679
495 0.186948
500 0.190793
505 0.107155
510 0.174715
515 0.17216
520 0.194593
525 0.138132
530 0.210483
535 0.217155
540 0.267644
545 0.206855
550 0.33624
555 0.246269
560 0.45443
565 5.80668
570 144.502
575 285.269
580 88.2096
585 10.6923
590 1.50039
595 0.422113
600 0.0480349
Ex : 583
200 0.198635
205 0.218946
210 0.139537
215 0.166116
220 0.133536
225 0.186118
230 0.163594
235 0.131476
240 0.187051
245 0.145952
250 0.143337
255 0.163413
260 0.144772
265 0.167625
270 0.162554
275 0.141771
280 0.182184
285 0.145839
290 0.221961
295 0.184772
300 0.187013
305 0.125348
310 0.129338
315 0.198173
320 0.165598
325 0.213526
330 0.154658
335 0.193439
340 0.125247
345 0.15913
350 0.131609
355 0.140808
360 0.147698
365 0.123668
370 0.110315
375 0.22428
380 0.193436
385 0.193849
390 0.1946
395 0.12208
400 0.226909
405 0.232265
410 0.153308
415 0.261449
420 0.299369
425 0.189922
430 0.198011
435 0.3158
440 0.130919
445 0.207783
450 0.218232
455 0.169654
460 0.165667
465 0.18692
470 0.281435
475 0.200998
480 0.26378
485 0.229019
490 0.185299
495 0.180359
500 0.17152
505 0.179116
510 0.198218
515 0.185171
520 0.170999
525 0.140441
530 0.220941
535 0.243681
540 0.177397
545 0.200996
550 0.243903
555 0.29745
560 0.280611
565 0.370029
570 5.48873
575 128.582
580 250.293
585 73.4282
590 9.07553
595 1.20843
600 0.137515
Ex : 588
200 0.12268
205 0.127103
210 0.155955
215 0.136133
220 0.125692
225 0.135674
230 0.150894
235 0.229627
240 0.167345
245 0.199823
250 0.184564
255 0.17665
260 0.106846
265 0.141203
270 0.177489
275 0.2016
280 0.220947
285 0.186926
290 0.228083
295 0.150846
300 0.16839
305 0.136481
310 0.157201
315 0.222504
320 0.198485
325 0.174314
330 0.165126
335 0.232374
340 0.200824
345 0.135379
350 0.172058
355 0.178147
360 0.218106
365 0.199428
370 0.269357
375 0.143607
380 0.192353
385 0.18278
390 0.223102
395 0.223571
400 0.255676
405 0.234384
410 0.161281
415 0.203356
420 0.125136
425 0.174345
430 0.160445
435 0.164326
440 0.191866
445 0.298105
450 0.169401
455 0.207311
460 0.162171
465 0.175941
470 0.152355
475 0.159617
480 0.248543
485 0.182319
490 0.266195
495 0.267709
500 0.182315
505 0.149991
510 0.173214
515 0.134005
520 0.191382
525 0.153922
530 0.118186
535 0.172264
540 0.213919
545 0.155079
550 0.29074
555 0.161287
560 0.367275
565 0.335107
570 0.312604
575 4.52374
580 112.614
585 218.165
590 64.2587
595 7.83355
600 1.33453
Ex : 593
200 0.218722
205 0.254919
210 0.145951
215 0.236025
220 0.282569
225 0.16601
230 0.138826
235 0.142352
240 0.0993159
245 0.177927
250 0.125759
255 0.147756
260 0.233164
265 0.138456
270 0.146831
275 0.137243
280 0.168913
285 0.134005
290 0.160865
295 0.189721
300 0.153554
305 0.140647
310 0.217545
315 0.147252
320 0.172928
325 0.232773
330 0.167199
335 0.222825
340 0.249746
345 0.208197
350 0.142698
355 0.116709
360 0.265126
365 0.184828
370 0.160968
375 0.200379
380 0.142699
385 0.195853
390 0.151522
395 0.225241
400 0.226568
405 0.16476
410 0.166983
415 0.20205
420 0.181923
425 0.198233
430 0.17518
435 0.17086
440 0.177854
445 0.20949
450 0.296566
455 0.212344
460 0.131909
465 0.130916
470 0.16967
475 0.149031
480 0.256374
485 0.18938
490 0.171941
495 0.166086
500 0.125495
505 0.172463
510 0.172103
515 0.217093
520 0.244093
525 0.176466
530 0.1953
535 0.215458
540 0.135394
545 0.216875
550 0.253672
555 0.146739
560 0.170408
565 0.201855
570 0.183603
575 0.308445
580 3.99589
585 99.1407
590 186.281
595 55.8776
600 7.69294
Ex : 598
200 0.197138
205 0.164856
210 0.132187
215 0.201021
220 0.184494
225 0.301203
230 0.218192
235 0.116187
240 0.139678
245 0.206359
250 0.203287
255 0.191003
260 0.137648
265 0.115098
270 0.15291
275 0.280808
280 0.18364
285 0.205249
290 0.187493
295 0.238198
300 0.148059
305 0.147803
310 0.119132
315 0.118004
320 0.119349
325 0.179494
330 0.259694
335 0.162919
340 0.206563
345 0.123353
350 0.120643
355 0.190669
360 0.0909973
365 0.170995
370 0.204814
375 0.163784
380 0.248407
385 0.166096
390 0.182826
395 0.218112
400 0.163905
405 0.171637
410 0.213897
415 0.148844
420 0.136622
425 0.175512
430 0.120854
435 0.191027
440 0.305512
445 0.255814
450 0.206787
455 0.216934
460 0.166018
465 0.225858
470 0.162923
475 0.128768
480 0.193904
485 0.214174
490 0.242771
495 0.192007
500 0.138487
505 0.175175
510 0.191339
515 0.269999
520 0.174193
525 0.155462
530 0.207289
535 0.195285
540 0.177128
545 0.196323
550 0.27031
555 0.296872
560 0.257675
565 0.254685
570 0.279559
575 0.166831
580 0.218497
585 3.65459
590 87.9423
595 163.778
600 108.444
Ex : 603
200 0.163101
205 0.154198
210 0.193075
215 0.12655
220 0.278916
225 0.175099
230 0.12658
235 0.169765
240 0.178435
245 0.133781
250 0.124443
255 0.292732
260 0.217624
265 0.168692
270 0.196437
275 0.175262
280 0.138559
285 0.15987
290 0.158624
295 0.202887
300 0.15114
305 0.129441
310 0.145444
315 0.227968
320 0.235469
325 0.143053
330 0.182332
335 0.13954
340 0.12945
345 0.195896
350 0.25838
355 0.220957
360 0.14727
365 0.153741
370 0.195084
375 0.223301
380 0.204322
385 0.277775
390 0.180825
395 0.313132
400 0.186035
405 0.261915
410 0.210727
415 0.171651
420 0.201663
425 0.223427
430 0.175886
435 0.150062
440 0.216569
445 0.284021
450 0.129819
455 0.163558
460 0.1771
465 0.212228
470 0.170569
475 0.177191
480 0.188351
485 0.190658
490 0.218708
495 0.131871
500 0.187518
505 0.122861
510 0.120641
515 0.118049
520 0.232392
525 0.180805
530 0.207888
535 0.196755
540 0.159213
545 0.163101
550 0.198653
555 0.17951
560 0.202912
565 0.16569
570 0.148403
575 0.189249
580 0.339245
585 0.322393
590 3.16675
595 75.8438
600 164.041
