File format V 1.0
jeu. 5. janv. 21:31:09 2017
Operator : 
Comments : 

=============================================
SpectroFluorometer parameters
Mode : 3D measurement
Data : Fluorescence
Phospho. : Ordinary
Spectrum : Fluorescence

Scan speed : 2400 nm/mn
Response : 100 ms
PM Voltage : 700 V
Shutter : On

Lambda Ex. Start : 203
Lambda Ex. End : 603
Lambda Ex. Step : 5
Ex. Slit : 5 nm

Lambda Em. Start : 200
Lambda Em. End : 600
Lambda Em. Step : 5
Em. Slit : 5 nm

Repetition : 1
Decal lambda em : 10
=============================================
DATA
Ex : 203
200 7.38889
205 3.44798
210 4.6112
215 3.25669
220 7.46023
225 4.22442
230 7.01211
235 3.56082
240 5.0691
245 5.60801
250 5.22525
255 6.69043
260 4.62618
265 8.20687
270 8.14015
275 6.69511
280 5.02673
285 2.80183
290 7.47797
295 5.95771
300 4.07702
305 7.85876
310 5.03983
315 3.7403
320 5.31423
325 3.94944
330 3.89392
335 7.15209
340 7.23737
345 5.8211
350 4.7423
355 2.852
360 4.70094
365 5.63998
370 5.40021
375 3.75361
380 8.78958
385 4.8297
390 8.07905
395 3.70883
400 4.80227
405 5.92826
410 4.29218
415 4.62218
420 6.02168
425 3.9387
430 4.58787
435 5.01403
440 5.17536
445 5.92933
450 3.71239
455 4.30104
460 5.39185
465 5.75831
470 6.06766
475 3.92392
480 3.08741
485 4.07222
490 3.81314
495 5.0088
500 7.46847
505 5.29989
510 2.31759
515 7.30641
520 4.62621
525 5.34417
530 4.07343
535 9.09517
540 4.57981
545 4.54673
550 8.09873
555 7.56531
560 8.01251
565 8.50607
570 5.89256
575 3.39867
580 3.10367
585 4.25494
590 3.61626
595 13.2989
600 1.51337
Ex : 208
200 4.2875
205 4.67213
210 5.78243
215 6.00498
220 4.37307
225 5.93019
230 2.78898
235 4.6133
240 8.11038
245 2.92575
250 12.3994
255 3.76216
260 3.83705
265 6.44929
270 2.42375
275 3.08212
280 3.69924
285 2.38528
290 3.17869
295 5.44919
300 6.8478
305 3.80765
310 7.94271
315 8.48926
320 3.42526
325 8.07225
330 4.0836
335 8.81777
340 5.8394
345 7.60254
350 4.64628
355 4.62522
360 4.31951
365 9.57513
370 5.97975
375 5.25817
380 3.67167
385 8.41059
390 3.41676
395 7.78543
400 6.50635
405 6.87969
410 3.5796
415 9.12168
420 5.30578
425 3.9455
430 5.30411
435 6.13941
440 7.60988
445 6.59348
450 6.27391
455 4.40556
460 7.5139
465 4.57029
470 4.39516
475 6.00337
480 6.93838
485 6.40756
490 4.58601
495 8.59266
500 5.04686
505 4.47249
510 4.95712
515 4.29924
520 4.4605
525 4.01526
530 7.03439
535 4.61174
540 3.96397
545 9.89835
550 6.09156
555 10.8016
560 10.887
565 4.95982
570 6.14399
575 4.09628
580 2.66285
585 2.52436
590 4.0224
595 4.72464
600 0.537646
Ex : 213
200 6.5137
205 4.42991
210 10.5218
215 4.296
220 5.25622
225 6.8505
230 5.01427
235 5.9845
240 5.42895
245 2.85469
250 4.55267
255 5.19905
260 3.39794
265 3.15253
270 5.83863
275 4.59801
280 2.75323
285 4.64897
290 3.33824
295 7.41082
300 4.82577
305 6.81742
310 7.12197
315 3.29395
320 3.14022
325 4.47592
330 4.72722
335 4.80783
340 5.68478
345 2.58585
350 5.33133
355 3.51017
360 6.24139
365 6.76498
370 4.95561
375 6.41841
380 5.2743
385 4.68658
390 6.40852
395 4.88718
400 3.12776
405 2.83971
410 3.40069
415 6.72191
420 5.84202
425 5.34261
430 4.93222
435 4.62349
440 5.47081
445 5.11813
450 4.22991
455 4.05061
460 5.48867
465 2.97665
470 4.04971
475 3.54594
480 12.3673
485 4.94666
490 6.56183
495 4.46216
500 5.00578
505 4.31268
510 3.89882
515 3.59718
520 6.22797
525 4.15571
530 3.73904
535 8.43209
540 5.211
545 3.59688
550 6.57729
555 6.04897
560 4.14169
565 7.72046
570 2.92143
575 2.98545
580 3.25563
585 7.67885
590 4.85909
595 3.42893
600 0.61175
Ex : 218
200 3.76471
205 2.94905
210 4.33208
215 3.97042
220 5.30231
225 5.98666
230 3.71133
235 5.19463
240 2.51124
245 5.67324
250 2.39321
255 8.72844
260 6.36262
265 3.83109
270 4.00441
275 5.60178
280 3.966
285 2.20761
290 2.66865
295 6.406
300 5.70887
305 9.36399
310 7.74928
315 10.4929
320 5.27542
325 4.49218
330 6.3128
335 6.32726
340 3.10135
345 8.05608
350 2.82238
355 3.43585
360 6.60592
365 4.607
370 3.81037
375 5.21498
380 5.50039
385 6.91262
390 3.84433
395 6.43995
400 3.23137
405 2.20829
410 5.96839
415 5.81711
420 6.65998
425 4.66825
430 6.62831
435 2.57302
440 2.39483
445 4.37733
450 7.08303
455 4.09315
460 4.31334
465 5.22082
470 5.38191
475 2.05722
480 4.41019
485 2.93892
490 9.85082
495 6.12298
500 5.89194
505 6.35501
510 6.70643
515 10.7814
520 4.91527
525 6.19043
530 8.29445
535 5.97542
540 5.56268
545 4.03013
550 8.7482
555 2.6084
560 5.25844
565 5.19391
570 3.64353
575 5.79239
580 3.64812
585 4.28376
590 3.55733
595 3.77671
600 0.429775
Ex : 223
200 4.36076
205 4.71314
210 8.09324
215 5.2461
220 5.37427
225 4.66125
230 3.56885
235 6.87232
240 6.47212
245 1.95924
250 7.77448
255 7.00423
260 2.50654
265 3.75001
270 6.12882
275 5.21827
280 4.64423
285 8.11732
290 4.27468
295 3.43672
300 5.39297
305 6.06469
310 2.92358
315 5.43508
320 3.31076
325 10.7354
330 7.5312
335 8.43104
340 5.51925
345 4.85249
350 7.25816
355 4.12332
360 2.29701
365 2.73665
370 4.38904
375 6.68166
380 3.21969
385 2.44494
390 4.72046
395 4.42797
400 4.1828
405 5.14623
410 6.26432
415 6.44778
420 4.08942
425 5.94912
430 5.097
435 4.6072
440 9.49026
445 4.61319
450 6.40076
455 4.37933
460 4.1109
465 4.96367
470 4.75099
475 5.90136
480 6.4552
485 3.55282
490 3.37862
495 9.32959
500 7.5315
505 4.91228
510 4.14333
515 4.05533
520 5.44237
525 7.3569
530 4.74945
535 3.2946
540 2.41729
545 7.75072
550 5.04654
555 6.02596
560 3.68739
565 4.48373
570 6.37989
575 3.38462
580 6.19743
585 5.89749
590 4.9237
595 5.12808
600 16.3137
Ex : 228
200 4.45509
205 5.07792
210 2.45925
215 3.48612
220 2.45924
225 6.99578
230 4.45439
235 6.96423
240 3.39541
245 4.54769
250 4.02111
255 5.44445
260 4.30071
265 5.62512
270 4.78628
275 4.71824
280 1.71852
285 4.37338
290 5.0123
295 4.88935
300 2.24958
305 2.5441
310 4.06891
315 8.57128
320 3.54806
325 3.41284
330 4.21974
335 3.21891
340 4.61311
345 1.81848
350 4.31851
355 5.69015
360 5.18997
365 3.6027
370 2.67412
375 2.3704
380 2.14729
385 4.42146
390 9.40901
395 6.19407
400 6.62173
405 5.29802
410 6.81173
415 6.39832
420 5.60467
425 7.05736
430 2.96522
435 4.90479
440 8.18047
445 5.46336
450 5.16947
455 5.64455
460 5.85812
465 5.33001
470 5.86401
475 6.80103
480 5.18422
485 8.60008
490 5.55487
495 2.35331
500 3.08657
505 8.22664
510 2.80156
515 3.74515
520 4.18508
525 8.66456
530 5.33108
535 3.86476
540 3.39918
545 2.48303
550 4.39848
555 3.53011
560 6.63837
565 6.90702
570 3.77166
575 2.69036
580 5.17032
585 3.26271
590 1.73936
595 2.81962
600 0.320862
Ex : 233
200 2.82412
205 7.26641
210 4.51566
215 7.02222
220 5.27465
225 3.7859
230 4.5238
235 2.5442
240 2.56898
245 4.7383
250 5.63487
255 1.79973
260 4.02448
265 3.30456
270 3.7076
275 3.43779
280 3.85705
285 5.84716
290 2.52822
295 6.29209
300 3.31924
305 2.15012
310 3.29358
315 7.00267
320 6.27304
325 3.92634
330 3.48322
335 3.31346
340 4.0105
345 5.58703
350 5.47137
355 3.10774
360 3.26327
365 2.7169
370 4.65203
375 3.10577
380 3.3586
385 2.97383
390 5.59403
395 3.82509
400 2.38959
405 5.47669
410 4.79758
415 2.39444
420 5.25628
425 5.15976
430 4.26491
435 4.62977
440 5.42896
445 6.09529
450 3.26361
455 3.46229
460 4.65256
465 4.23821
470 3.42025
475 5.18744
480 6.40925
485 4.53814
490 1.16693
495 8.91019
500 4.6389
505 3.51636
510 7.2008
515 2.97451
520 3.83514
525 4.22741
530 5.95986
535 4.99653
540 3.98539
545 4.67284
550 4.33111
555 2.73666
560 3.15712
565 5.38578
570 4.20268
575 2.63636
580 6.70037
585 7.7052
590 5.16476
595 6.6244
600 2.82164
Ex : 238
200 2.30396
205 1.70922
210 2.10168
215 3.6758
220 2.64589
225 4.28032
230 4.95286
235 2.68883
240 3.41199
245 4.50095
250 4.31844
255 3.77795
260 2.22671
265 4.60096
270 3.09514
275 3.47131
280 3.07145
285 4.26942
290 4.85916
295 3.8804
300 3.08821
305 3.82275
310 1.90168
315 2.34957
320 3.64381
325 3.81638
330 4.64484
335 3.54598
340 2.41801
345 3.44204
350 3.70568
355 3.23014
360 1.84178
365 2.50778
370 3.36023
375 3.3171
380 3.05313
385 7.20102
390 5.39145
395 2.44705
400 2.73797
405 3.29825
410 3.67769
415 5.10041
420 4.69653
425 2.81861
430 3.7576
435 2.07042
440 2.82071
445 3.1906
450 1.5737
455 4.12205
460 4.17692
465 4.72565
470 4.55174
475 3.92714
480 4.13004
485 3.6578
490 4.46939
495 5.48783
500 5.52194
505 5.26589
510 3.33028
515 2.30883
520 4.36045
525 5.20182
530 2.39998
535 6.19534
540 5.48433
545 4.50341
550 3.13399
555 3.05305
560 2.53231
565 2.00438
570 5.4071
575 3.0059
580 4.80364
585 2.68575
590 3.47937
595 3.61269
600 0.41111
Ex : 243
200 3.875
205 2.90549
210 4.11925
215 5.99822
220 3.12237
225 2.94158
230 3.28875
235 3.28445
240 3.63056
245 3.91048
250 4.14236
255 3.32374
260 2.41238
265 1.33346
270 3.10698
275 1.40321
280 1.87884
285 2.3325
290 4.1813
295 5.24824
300 2.25504
305 2.00687
310 1.49598
315 1.86558
320 3.78754
325 1.82967
330 3.42795
335 3.48999
340 3.29157
345 6.27669
350 4.58001
355 4.81947
360 3.90335
365 2.02773
370 2.86711
375 1.99009
380 3.34559
385 4.38664
390 2.59018
395 4.35998
400 2.8473
405 3.96605
410 1.67692
415 4.04198
420 1.7148
425 4.777
430 2.23375
435 1.74597
440 2.58317
445 3.13933
450 1.81751
455 2.8512
460 5.23566
465 3.90603
470 3.1567
475 3.07921
480 4.87004
485 3.06196
490 5.82541
495 3.33924
500 3.50862
505 2.76986
510 2.76815
515 5.13552
520 3.54093
525 2.3969
530 2.10708
535 4.45503
540 4.84411
545 2.71831
550 1.8336
555 2.62489
560 4.351
565 4.24824
570 5.15648
575 2.62235
580 2.71464
585 3.69602
590 3.81771
595 3.67204
600 2.31687
Ex : 248
200 1.38276
205 2.92713
210 1.82397
215 1.88318
220 1.29316
225 3.66638
230 2.61776
235 2.94337
240 4.49233
245 4.44955
250 2.98528
255 1.84413
260 3.39621
265 1.66248
270 2.54404
275 3.75491
280 3.32509
285 3.62566
290 1.53294
295 4.01161
300 4.94553
305 1.33255
310 2.4248
315 1.16214
320 2.3144
325 1.64509
330 0.915721
335 2.79911
340 1.79761
345 2.69822
350 1.75159
355 2.11099
360 3.19637
365 2.26731
370 3.42872
375 3.25876
380 3.01321
385 3.19346
390 2.75777
395 2.72828
400 3.03105
405 4.13337
410 5.27725
415 2.47469
420 2.28723
425 2.10384
430 1.13514
435 2.37877
440 3.14933
445 2.8553
450 3.19311
455 4.77883
460 6.44651
465 3.51837
470 2.48762
475 4.00895
480 2.35117
485 1.91291
490 2.81564
495 2.94814
500 1.93909
505 2.98239
510 2.26436
515 2.64801
520 3.65296
525 5.42225
530 2.40228
535 2.05784
540 3.85811
545 3.50474
550 4.15609
555 1.39782
560 2.68081
565 4.20079
570 2.73354
575 2.29328
580 3.34546
585 3.59512
590 1.05877
595 1.54283
600 1.28332
Ex : 253
200 3.0056
205 3.09631
210 2.58932
215 1.27633
220 2.29144
225 2.28201
230 0.986322
235 1.32048
240 2.30961
245 2.19868
250 2.47322
255 1.6928
260 1.27548
265 1.22162
270 2.9052
275 0.796107
280 2.09352
285 2.00809
290 1.85448
295 2.28561
300 1.71398
305 1.82998
310 2.7603
315 1.79362
320 1.87445
325 2.45658
330 1.86021
335 1.36705
340 1.60503
345 1.50943
350 3.0739
355 2.12477
360 2.03923
365 1.4752
370 2.21932
375 2.59085
380 2.27752
385 1.22052
390 2.44197
395 1.84047
400 2.92251
405 3.72056
410 3.02694
415 3.84864
420 1.36193
425 2.52417
430 2.17919
435 2.42805
440 2.78423
445 1.04802
450 2.12352
455 2.65253
460 1.68873
465 2.67707
470 1.73519
475 3.71935
480 2.45485
485 2.89565
490 4.02747
495 2.77436
500 2.88695
505 3.40951
510 3.17648
515 2.29525
520 2.04655
525 2.10775
530 2.55647
535 4.12031
540 1.41017
545 1.45917
550 1.52591
555 1.05985
560 1.96997
565 2.21879
570 3.45153
575 1.86233
580 2.29741
585 3.07614
590 2.03758
595 1.76896
600 1.48137
Ex : 258
200 2.91778
205 1.34821
210 1.565
215 1.09186
220 0.888003
225 1.17264
230 2.42069
235 1.98515
240 3.10247
245 1.55916
250 3.3477
255 2.52891
260 2.17914
265 1.63526
270 1.66577
275 2.2795
280 1.69267
285 1.74701
290 1.27766
295 0.862147
300 1.68373
305 2.29684
310 2.39343
315 1.88695
320 1.4317
325 1.4496
330 1.40925
335 0.881016
340 3.58133
345 1.16537
350 1.3367
355 2.21026
360 1.08905
365 1.45324
370 1.82751
375 1.36124
380 2.2104
385 1.08915
390 1.18739
395 1.69865
400 1.50014
405 2.5439
410 1.90642
415 1.45925
420 2.28515
425 2.06336
430 2.29992
435 2.77798
440 1.43703
445 2.93764
450 2.01051
455 1.5234
460 1.72891
465 1.49823
470 2.04137
475 2.4468
480 1.59862
485 1.25209
490 2.29408
495 3.15705
500 1.3961
505 1.32449
510 1.89512
515 1.55008
520 1.67356
525 2.53713
530 3.20761
535 3.359
540 2.18176
545 1.89581
550 2.01609
555 1.48779
560 2.108
565 1.67971
570 1.14662
575 1.9131
580 2.0254
585 4.26515
590 1.81764
595 1.18229
600 2.23927
Ex : 263
200 2.87952
205 0.847455
210 1.24505
215 0.945194
220 0.6144
225 1.01479
230 0.847149
235 2.08355
240 1.038
245 1.3683
250 0.81997
255 1.23475
260 1.84827
265 1.06058
270 1.39003
275 3.04346
280 2.02379
285 1.7929
290 0.883917
295 0.384606
300 0.679857
305 1.56688
310 0.722326
315 1.48731
320 1.12802
325 1.11855
330 1.67573
335 2.83232
340 2.61021
345 1.64861
350 1.67289
355 1.90749
360 1.71561
365 2.33471
370 1.30781
375 1.0366
380 1.19792
385 1.36349
390 1.67666
395 2.23758
400 1.67255
405 2.8961
410 1.32199
415 0.850398
420 1.88168
425 1.02273
430 1.56583
435 1.62117
440 1.20106
445 1.47908
450 1.48753
455 1.46056
460 1.46587
465 2.2458
470 1.30246
475 2.02709
480 1.83692
485 0.942922
490 1.71443
495 1.44696
500 1.94335
505 2.56484
510 1.82385
515 1.21305
520 1.5494
525 2.00605
530 1.27021
535 1.53579
540 2.6483
545 1.56494
550 0.827967
555 0.977281
560 0.901609
565 0.908386
570 1.56051
575 1.07746
580 2.75786
585 2.4506
590 1.64439
595 2.52845
600 0.287728
Ex : 268
200 0.724234
205 0.931745
210 1.02262
215 1.14563
220 0.756289
225 0.84602
230 0.733654
235 0.889808
240 0.599207
245 0.772895
250 0.830284
255 0.868012
260 0.944926
265 0.583203
270 0.959996
275 1.86589
280 1.25944
285 0.625268
290 1.03233
295 0.823727
300 1.61811
305 1.22946
310 1.28469
315 0.591757
320 1.67577
325 0.944094
330 0.768688
335 1.02937
340 1.31015
345 1.3038
350 1.72963
355 1.21783
360 1.87912
365 1.00019
370 2.2412
375 1.89905
380 1.12696
385 0.689425
390 1.04477
395 1.53981
400 2.33904
405 0.795158
410 0.879332
415 1.10094
420 1.06112
425 1.2825
430 1.44998
435 1.21798
440 1.02356
445 2.0205
450 0.706057
455 1.45241
460 1.01164
465 1.25453
470 1.22714
475 0.993577
480 0.749442
485 1.4859
490 1.89842
495 0.779867
500 1.30974
505 0.918155
510 1.36923
515 1.12529
520 1.05658
525 1.90645
530 1.4951
535 0.713999
540 1.06481
545 0.88131
550 1.15687
555 1.44597
560 1.38323
565 0.89425
570 0.779739
575 1.68589
580 0.560595
585 0.940205
590 1.53284
595 0.774763
600 0.609461
Ex : 273
200 0.327051
205 0.617042
210 1.17129
215 1.04532
220 0.603504
225 0.505299
230 1.23911
235 0.584607
240 0.900423
245 0.601511
250 0.727601
255 1.79162
260 0.81756
265 0.650193
270 1.38377
275 1.24182
280 1.07358
285 1.10516
290 0.86343
295 0.871579
300 1.01172
305 1.0132
310 0.560887
315 0.500375
320 1.51292
325 1.22651
330 1.41646
335 0.716959
340 0.957755
345 1.59099
350 1.41284
355 1.03096
360 0.619038
365 0.997776
370 1.37626
375 0.890092
380 0.486508
385 1.02701
390 1.98675
395 0.967125
400 1.27407
405 1.64402
410 1.14054
415 0.761499
420 0.812452
425 1.53576
430 1.17771
435 0.767308
440 1.65637
445 1.04697
450 1.00329
455 1.48394
460 1.01894
465 0.868577
470 0.82936
475 0.53748
480 1.00146
485 1.26732
490 1.02941
495 0.768971
500 0.445801
505 0.91893
510 0.594422
515 0.717595
520 1.11288
525 1.19009
530 0.814326
535 0.858759
540 0.961822
545 0.932854
550 0.811706
555 0.693507
560 0.535023
565 0.66076
570 0.618704
575 0.659501
580 0.584892
585 0.63975
590 0.438756
595 0.619489
600 0.0704955
Ex : 278
200 0.342416
205 0.583949
210 0.975934
215 1.45489
220 0.557442
225 0.756773
230 0.80565
235 0.302642
240 0.871455
245 0.637652
250 0.803943
255 0.854922
260 0.888855
265 1.09273
270 0.914507
275 1.17954
280 0.58705
285 0.367824
290 0.781568
295 0.531637
300 0.366508
305 0.642195
310 0.663614
315 0.794326
320 0.898329
325 1.66356
330 0.534845
335 0.95695
340 0.569952
345 1.00343
350 1.46237
355 0.852348
360 0.895963
365 0.715168
370 0.942244
375 1.0065
380 0.725265
385 0.987249
390 0.745233
395 0.754215
400 1.21824
405 0.76003
410 0.894927
415 1.31513
420 1.31602
425 0.884619
430 0.934456
435 0.6594
440 1.04269
445 0.760784
450 1.44947
455 1.05195
460 0.801899
465 0.694002
470 0.53457
475 0.749924
480 0.657913
485 0.972465
490 1.27711
495 1.09483
500 0.931855
505 0.529878
510 1.28341
515 0.669529
520 1.16535
525 0.571205
530 0.925044
535 1.16562
540 0.549159
545 1.02889
550 0.868941
555 1.4553
560 0.733231
565 1.2566
570 1.00259
575 0.719126
580 0.649747
585 0.546744
590 0.867043
595 0.975976
600 0.111062
Ex : 283
200 0.75395
205 0.377818
210 0.249775
215 0.782597
220 0.748712
225 0.379033
230 0.812713
235 0.523427
240 0.677486
245 0.965327
250 0.605261
255 0.848601
260 0.341038
265 0.221976
270 0.396354
275 0.528001
280 0.562668
285 0.83879
290 0.649075
295 0.409985
300 0.379485
305 0.504551
310 0.624399
315 0.767022
320 0.413675
325 0.846964
330 0.532076
335 0.860095
340 1.08509
345 0.609786
350 0.654895
355 0.410948
360 0.905867
365 0.600272
370 0.676737
375 0.871561
380 0.693577
385 0.630625
390 0.691021
395 1.17558
400 0.732797
405 0.637934
410 0.646659
415 0.811425
420 0.929381
425 0.733989
430 0.928953
435 0.705459
440 0.636763
445 1.07996
450 0.926785
455 0.563869
460 0.570186
465 0.608904
470 0.81952
475 0.559435
480 0.694866
485 0.676312
490 0.664598
495 0.667768
500 0.43624
505 0.496736
510 0.240155
515 0.538729
520 0.841815
525 0.39478
530 0.861715
535 1.16044
540 0.642518
545 0.548181
550 1.1435
555 0.734417
560 0.91753
565 0.841566
570 0.706128
575 0.356153
580 0.929398
585 0.505488
590 0.443266
595 0.445432
600 1.43538
Ex : 288
200 0.294372
205 0.37286
210 0.317013
215 0.651231
220 0.425466
225 0.664518
230 0.473703
235 0.247096
240 0.460017
245 0.744975
250 0.472247
255 0.339576
260 0.57897
265 0.524593
270 0.476506
275 0.320308
280 0.244573
285 0.299266
290 0.473523
295 0.419866
300 0.249925
305 0.543557
310 0.542489
315 0.558274
320 0.572245
325 0.68641
330 0.869144
335 0.316962
340 0.597127
345 0.649212
350 0.491378
355 0.629243
360 0.693846
365 0.771787
370 0.747872
375 0.682426
380 0.819713
385 0.538065
390 0.560241
395 0.742785
400 0.643559
405 0.498411
410 0.674154
415 0.742762
420 0.815754
425 0.697823
430 0.689131
435 0.478212
440 0.516639
445 0.561787
450 0.549659
455 0.841569
460 0.783675
465 0.383104
470 0.54285
475 0.776907
480 0.522582
485 0.456635
490 0.491154
495 0.517317
500 0.656803
505 0.563276
510 0.556868
515 0.351358
520 0.517561
525 0.561711
530 0.674941
535 0.561509
540 0.741485
545 0.578009
550 0.685279
555 0.492174
560 0.474273
565 0.71135
570 0.892887
575 0.64692
580 1.17719
585 0.606862
590 0.508234
595 0.441507
600 0.306774
Ex : 293
200 0.372476
205 0.631446
210 0.314586
215 0.173748
220 0.419609
225 0.411003
230 0.7444
235 0.671099
240 0.643425
245 0.31764
250 0.357054
255 0.260756
260 0.378697
265 0.551121
270 0.734314
275 0.583225
280 0.366512
285 0.383835
290 0.634325
295 0.253908
300 0.398344
305 0.360951
310 0.357576
315 0.293209
320 0.228656
325 0.240585
330 0.421139
335 0.315646
340 0.310585
345 0.640774
350 0.456892
355 0.645339
360 0.705224
365 0.80203
370 0.460361
375 0.970275
380 0.656717
385 0.43444
390 0.459004
395 0.485216
400 0.579616
405 0.825017
410 0.747001
415 0.552764
420 0.515978
425 0.679772
430 0.545901
435 0.788024
440 0.591254
445 0.332048
450 0.416229
455 0.458393
460 0.481723
465 0.273746
470 0.288112
475 0.272582
480 0.455311
485 0.867255
490 0.542266
495 0.337847
500 0.408014
505 0.347834
510 0.481732
515 0.273753
520 0.603592
525 0.354467
530 0.406346
535 0.689668
540 0.490592
545 0.390955
550 0.353397
555 0.29532
560 0.525836
565 0.377179
570 0.287489
575 0.447422
580 0.737162
585 0.645117
590 0.70358
595 0.30233
600 0.034404
Ex : 298
200 0.215596
205 0.245468
210 0.248235
215 0.327094
220 0.25119
225 0.451956
230 0.542841
235 0.455276
240 0.312992
245 0.264808
250 0.302149
255 0.276746
260 0.561735
265 0.15597
270 0.222353
275 0.68379
280 0.457263
285 0.238863
290 0.548575
295 0.629563
300 0.371994
305 0.239311
310 0.318361
315 0.348517
320 0.563061
325 0.409006
330 0.573721
335 0.487092
340 0.562779
345 0.515005
350 0.460977
355 0.49307
360 0.394613
365 0.341532
370 0.318545
375 0.449535
380 0.404072
385 0.733066
390 0.575528
395 0.527538
400 0.673811
405 0.376193
410 0.431366
415 0.805744
420 0.748675
425 0.444869
430 0.69563
435 0.639536
440 0.578238
445 0.519438
450 0.450775
455 0.497884
460 0.711642
465 0.505613
470 0.500846
475 0.275652
480 0.46077
485 0.170649
490 0.417307
495 0.476005
500 0.405094
505 0.391463
510 0.476761
515 0.582938
520 0.367086
525 0.536042
530 0.339173
535 0.394054
540 0.571563
545 0.338037
550 0.484668
555 0.224817
560 0.509603
565 0.283157
570 0.280706
575 0.371902
580 0.267585
585 0.349795
590 0.869749
595 0.465778
600 0.713312
Ex : 303
200 0.41345
205 0.475263
210 0.387775
215 0.253503
220 0.312662
225 0.32427
230 0.369093
235 0.388838
240 0.292
245 0.263742
250 0.208398
255 0.22918
260 0.274814
265 0.322876
270 0.158357
275 0.18753
280 0.281802
285 0.343986
290 0.15559
295 0.495411
300 0.313314
305 0.390276
310 0.260873
315 0.225277
320 0.301643
325 0.599021
330 0.442548
335 0.302034
340 0.35799
345 0.393454
350 0.434547
355 0.420635
360 0.367785
365 0.485489
370 0.409226
375 0.452937
380 0.459041
385 0.601449
390 0.583727
395 0.42303
400 0.472934
405 0.850226
410 0.521249
415 0.431465
420 0.487615
425 0.490257
430 0.455139
435 0.778944
440 0.621357
445 0.49875
450 0.427634
455 0.495137
460 0.33993
465 0.513119
470 0.606858
475 0.328278
480 0.402889
485 0.574209
490 0.508266
495 0.31415
500 0.253749
505 0.176043
510 0.277067
515 0.424138
520 0.243939
525 0.434751
530 0.466573
535 0.243274
540 0.233852
545 0.325696
550 0.298443
555 0.136828
560 0.387966
565 0.194221
570 0.638374
575 0.334007
580 0.256472
585 0.280199
590 0.410724
595 0.449815
600 0.441718
Ex : 308
200 0.217604
205 0.149476
210 0.206224
215 0.229127
220 0.244115
225 0.324324
230 0.117159
235 0.247825
240 0.343968
245 0.205752
250 0.173434
255 0.377969
260 0.279914
265 0.435945
270 0.235591
275 0.134725
280 0.242507
285 0.25855
290 0.264869
295 0.159043
300 0.344448
305 0.463519
310 0.380209
315 0.521654
320 0.38529
325 0.27005
330 0.300785
335 0.333345
340 0.528094
345 0.376619
350 0.498753
355 0.585842
360 0.266164
365 0.238278
370 0.264607
375 0.445996
380 0.496197
385 0.424964
390 0.551197
395 0.491082
400 0.566915
405 0.550616
410 0.436306
415 0.691405
420 0.449375
425 0.549803
430 0.501576
435 0.511565
440 0.418525
445 0.653548
450 0.300217
455 0.384777
460 0.501111
465 0.520415
470 0.534405
475 0.51435
480 0.422374
485 0.406403
490 0.289409
495 0.514382
500 0.403448
505 0.284014
510 0.336805
515 0.417153
520 0.241715
525 0.379867
530 0.23102
535 0.366301
540 0.240273
545 0.182467
550 0.286625
555 0.372531
560 0.376011
565 0.444118
570 0.21678
575 0.377963
580 0.583924
585 0.531713
590 0.349133
595 0.381463
600 2.6134
Ex : 313
200 0.152068
205 0.173163
210 0.135154
215 0.169145
220 0.170464
225 0.214543
230 0.380324
235 0.239306
240 0.361152
245 0.400681
250 0.194389
255 0.170681
260 0.293653
265 0.155181
270 0.162679
275 0.158697
280 0.145398
285 0.111962
290 0.221484
295 0.150631
300 0.326999
305 0.262036
310 0.262386
315 0.193193
320 0.357858
325 0.323269
330 0.325305
335 0.276408
340 0.462551
345 0.346946
350 0.498174
355 0.532977
360 0.366116
365 0.512595
370 0.527546
375 0.567568
380 0.577437
385 0.798443
390 0.60502
395 0.748408
400 0.612363
405 0.816393
410 0.657124
415 0.635814
420 0.955841
425 0.552689
430 0.607146
435 0.783754
440 0.578532
445 0.566981
450 0.632761
455 0.718658
460 0.514161
465 0.57705
470 0.602247
475 0.737565
480 0.387071
485 0.343563
490 0.194652
495 0.367272
500 0.348851
505 0.276728
510 0.363231
515 0.431851
520 0.339253
525 0.226671
530 0.350362
535 0.231711
540 0.223938
545 0.264793
550 0.190363
555 0.396961
560 0.255632
565 0.207208
570 0.219053
575 0.261737
580 0.133916
585 0.399007
590 0.152915
595 0.314712
600 0.035813
Ex : 318
200 0.150923
205 0.212639
210 0.399204
215 0.194987
220 0.264802
225 0.247717
230 0.184607
235 0.302697
240 0.171233
245 0.147641
250 0.148501
255 0.141567
260 0.082569
265 0.235908
270 0.229021
275 0.261966
280 0.265971
285 0.113943
290 0.33338
295 0.162406
300 0.111305
305 0.141175
310 0.369635
315 0.875756
320 0.509085
325 0.419391
330 0.611562
335 0.922138
340 0.643727
345 1.23022
350 1.94514
355 2.00374
360 3.12627
365 3.95462
370 4.9293
375 5.21411
380 6.54409
385 7.42919
390 8.14053
395 8.54085
400 8.31873
405 8.78203
410 8.60115
415 8.72734
420 8.4958
425 8.19951
430 8.13911
435 7.29762
440 7.50906
445 7.1931
450 6.26803
455 5.90788
460 5.24965
465 5.10919
470 4.58778
475 4.47622
480 4.01176
485 3.28525
490 3.11959
495 2.86839
500 2.48844
505 2.1507
510 1.62175
515 1.25804
520 1.10918
525 0.910512
530 1.04552
535 0.888664
540 0.588682
545 0.809046
550 0.47436
555 0.612967
560 0.38074
565 0.297969
570 0.422779
575 0.490363
580 0.360675
585 0.30565
590 0.208999
595 0.192331
600 0.0218865
Ex : 323
200 0.24233
205 0.19652
210 0.173352
215 0.177479
220 0.170104
225 0.268341
230 0.202451
235 0.180006
240 0.119855
245 0.139352
250 0.198116
255 0.169673
260 0.280083
265 0.246063
270 0.244534
275 0.21174
280 0.113556
285 0.282141
290 0.148369
295 0.145926
300 0.179888
305 0.197711
310 0.251841
315 7.34495
320 35.0536
325 14.7572
330 3.01907
335 2.98883
340 3.78961
345 4.9824
350 8.09844
355 11.3561
360 13.5304
365 17.0372
370 19.2847
375 22.1333
380 25.3413
385 28.6625
390 30.897
395 32.5218
400 33.7216
405 34.8464
410 34.397
415 35.7127
420 34.2783
425 33.0487
430 30.3514
435 29.628
440 28.1575
445 26.6056
450 25.7077
455 23.0967
460 22.3221
465 19.7228
470 18.9236
475 17.0789
480 15.1469
485 14.3231
490 12.6455
495 11.0662
500 9.59379
505 8.6447
510 7.25904
515 6.73007
520 5.46831
525 4.74736
530 4.47699
535 3.29749
540 2.73639
545 2.37491
550 2.03427
555 1.56808
560 1.39569
565 1.31321
570 0.926061
575 0.859266
580 0.649938
585 0.371802
590 0.456588
595 0.299206
600 0.0340485
Ex : 328
200 0.083691
205 0.0480376
210 0.124652
215 0.38557
220 0.160037
225 0.123013
230 0.362732
235 0.293512
240 0.101066
245 0.125063
250 0.160041
255 0.295524
260 0.148158
265 0.101095
270 0.112588
275 0.163085
280 0.214503
285 0.117013
290 0.274639
295 0.213447
300 0.230514
305 0.452235
310 0.350285
315 1.7794
320 80.0628
325 184.755
330 54.5571
335 9.62035
340 6.05494
345 6.94145
350 8.62633
355 12.9428
360 16.4574
365 18.8716
370 21.5577
375 24.4051
380 26.863
385 30.4334
390 33.4967
395 34.7381
400 36.7347
405 37.2503
410 37.5435
415 35.709
420 35.5646
425 33.3034
430 33.2494
435 30.8855
440 29.551
445 27.7274
450 27.1324
455 25.0962
460 22.5485
465 20.8206
470 19.3675
475 18.4761
480 15.3314
485 14.2777
490 12.6948
495 11.8456
500 10.2476
505 8.99768
510 7.85179
515 6.88117
520 6.02638
525 5.24554
530 4.3583
535 3.9478
540 2.81303
545 2.78574
550 2.61646
555 2.07728
560 1.78864
565 1.40146
570 1.06681
575 0.905608
580 0.64691
585 0.592181
590 0.50558
595 0.465615
600 0.0529852
Ex : 333
200 0.156771
205 0.10328
210 0.0994129
215 0.167958
220 0.136435
225 0.146646
230 0.178376
235 0.116151
240 0.122425
245 0.181643
250 0.254269
255 0.217571
260 0.250732
265 0.211001
270 0.247395
275 0.263673
280 0.276348
285 0.215245
290 0.13438
295 0.189916
300 0.230736
305 0.158516
310 0.162012
315 0.223681
320 10.2446
325 208.987
330 354.574
335 91.5714
340 14.1217
345 5.76378
350 5.51375
355 5.93996
360 9.77753
365 13.8153
370 14.563
375 14.452
380 15.0972
385 17.6026
390 19.8466
395 21.5636
400 21.347
405 22.2934
410 22.5809
415 22.3893
420 21.5601
425 19.8316
430 19.1448
435 18.0225
440 18.0424
445 16.5743
450 15.2471
455 13.9484
460 12.9744
465 11.8828
470 10.738
475 10.4485
480 8.97741
485 8.31406
490 7.35399
495 6.66658
500 5.74355
505 5.33662
510 4.86802
515 3.97486
520 3.48696
525 2.81727
530 2.65081
535 2.25913
540 1.88118
545 1.57007
550 1.44896
555 1.39955
560 0.963937
565 1.03907
570 0.924056
575 0.78063
580 0.69753
585 0.477495
590 0.278779
595 0.286843
600 0.158187
Ex : 338
200 0.108055
205 0.11716
210 0.0629535
215 0.108885
220 0.145846
225 0.134462
230 0.20776
235 0.0994256
240 0.112731
245 0.178853
250 0.130194
255 0.22858
260 0.172899
265 0.208977
270 0.180142
275 0.155786
280 0.21972
285 0.175894
290 0.114585
295 0.22194
300 0.19635
305 0.208353
310 0.216081
315 0.219605
320 0.290439
325 18.603
330 303.054
335 444.013
340 110.657
345 15.5221
350 5.30203
355 3.7601
360 3.69192
365 5.53785
370 9.57732
375 10.4804
380 8.95165
385 10.0059
390 11.8591
395 12.9577
400 12.9396
405 12.7017
410 13.2653
415 14.1284
420 13.9193
425 12.6347
430 11.6404
435 11.1954
440 10.2563
445 10.414
450 9.31857
455 8.25027
460 7.45375
465 7.45685
470 6.87339
475 6.02239
480 5.56747
485 5.10143
490 4.68248
495 4.18954
500 3.74757
505 3.11416
510 3.00559
515 2.69102
520 2.32185
525 2.0865
530 1.76545
535 1.66689
540 1.34543
545 1.04184
550 1.11089
555 0.915957
560 0.827209
565 0.702105
570 0.542147
575 0.581581
580 0.537761
585 0.497281
590 0.344933
595 0.288898
600 0.0857832
Ex : 343
200 0.130217
205 0.224846
210 0.136543
215 0.0916634
220 0.149244
225 0.121617
230 0.124687
235 0.176075
240 0.202167
245 0.177248
250 0.2016
255 0.109178
260 0.138323
265 0.154387
270 0.212066
275 0.20291
280 0.116859
285 0.240887
290 0.133251
295 0.160716
300 0.176265
305 0.213672
310 0.185351
315 0.14279
320 0.222104
325 0.530519
330 21.8099
335 344.944
340 501.152
345 121.804
350 16.268
355 4.40369
360 3.08883
365 2.18534
370 3.15001
375 7.04005
380 9.54841
385 9.28747
390 10.1289
395 10.2716
400 9.73704
405 10.1521
410 11.3582
415 12.3227
420 11.419
425 10.1845
430 9.44076
435 9.28035
440 9.02917
445 8.49571
450 7.77462
455 6.94839
460 6.50633
465 5.99236
470 5.6217
475 5.45442
480 5.03976
485 4.61883
490 3.76387
495 3.58859
500 3.11041
505 2.97021
510 2.85994
515 2.4479
520 2.18794
525 1.83647
530 1.70573
535 1.42845
540 1.25409
545 1.12033
550 1.07549
555 0.998386
560 0.845401
565 0.772764
570 0.608358
575 0.514699
580 0.357053
585 0.349203
590 0.414743
595 0.342645
600 0.0389918
Ex : 348
200 0.130416
205 0.113015
210 0.163518
215 0.218915
220 0.130707
225 0.157002
230 0.134942
235 0.0916254
240 0.147552
245 0.135622
250 0.145491
255 0.147382
260 0.170951
265 0.124796
270 0.211224
275 0.160082
280 0.151201
285 0.140714
290 0.120716
295 0.193127
300 0.0966647
305 0.105576
310 0.122657
315 0.158669
320 0.22481
325 0.217234
330 0.516361
335 21.6469
340 348.786
345 533.903
350 136.607
355 17.7239
360 4.04681
365 2.49738
370 1.9981
375 2.22263
380 6.85182
385 12.0205
390 13.3442
395 12.8739
400 11.1531
405 11.2065
410 13.564
415 14.319
420 13.795
425 12.0796
430 10.8901
435 10.5656
440 10.6897
445 10.0117
450 8.96957
455 8.13136
460 7.80528
465 6.56936
470 6.49579
475 5.98114
480 5.42065
485 4.53619
490 4.37954
495 3.81991
500 3.50676
505 3.11016
510 2.80763
515 2.57603
520 2.15492
525 2.00295
530 1.58718
535 1.51694
540 1.4712
545 1.29794
550 0.929871
555 1.11314
560 0.918767
565 0.818464
570 0.629528
575 0.50856
580 0.469685
585 0.394613
590 0.424745
595 0.261861
600 0.52585
Ex : 353
200 0.154639
205 0.0966
210 0.0597712
215 0.135029
220 0.0866344
225 0.0902782
230 0.103077
235 0.0880524
240 0.120182
245 0.0639243
250 0.0803898
255 0.155351
260 0.120239
265 0.111468
270 0.0694487
275 0.11547
280 0.135518
285 0.138119
290 0.103121
295 0.142486
300 0.113727
305 0.165984
310 0.111014
315 0.171252
320 0.165378
325 0.207363
330 0.271207
335 0.563246
340 22.8307
345 364.22
350 534.266
355 132.689
360 17.2295
365 3.90011
370 2.34931
375 1.9852
380 3.35351
385 8.66878
390 16.2252
395 16.406
400 13.761
405 12.6215
410 13.9279
415 16.4737
420 15.5596
425 14.0203
430 12.0512
435 11.7193
440 12.0438
445 11.2095
450 9.87722
455 8.86119
460 7.89174
465 7.58036
470 7.03643
475 6.53256
480 5.65479
485 5.67598
490 4.59987
495 4.35677
500 3.94165
505 3.48309
510 3.21421
515 2.87118
520 2.51595
525 2.32827
530 2.1018
535 1.68207
540 1.5269
545 1.3365
550 1.06485
555 1.02818
560 1.13355
565 0.781168
570 0.700277
575 0.565656
580 0.445256
585 0.462199
590 0.379622
595 0.439691
600 0.091495
Ex : 358
200 0.126088
205 0.111767
210 0.15011
215 0.0611881
220 0.144395
225 0.202588
230 0.129421
235 0.0915818
240 0.114854
245 0.142739
250 0.114622
255 0.110402
260 0.130012
265 0.143314
270 0.117974
275 0.0817692
280 0.127595
285 0.0993873
290 0.0851412
295 0.11262
300 0.087837
305 0.0726863
310 0.122132
315 0.151507
320 0.168478
325 0.23369
330 0.187304
335 0.338705
340 0.604188
345 21.7436
350 355.577
355 543.183
360 135.599
365 17.2504
370 3.77784
375 2.69026
380 3.24448
385 5.7707
390 10.7241
395 15.7313
400 14.4691
405 13.1305
410 14.186
415 15.8242
420 14.6305
425 12.8107
430 11.5442
435 11.3471
440 11.5139
445 10.7516
450 9.50151
455 8.45653
460 7.61813
465 7.34598
470 6.70197
475 6.39514
480 5.96168
485 5.22505
490 4.99695
495 4.41097
500 3.8899
505 3.45851
510 3.10682
515 3.01875
520 2.48254
525 2.18964
530 2.01537
535 1.90252
540 1.54904
545 1.32534
550 1.14735
555 1.01699
560 1.01154
565 0.854707
570 0.743829
575 0.596681
580 0.442025
585 0.412865
590 0.404789
595 0.284881
600 0.343532
Ex : 363
200 0.115832
205 0.0805497
210 0.0953323
215 0.243302
220 0.113843
225 0.0904568
230 0.0875178
235 0.0867053
240 0.160495
245 0.118293
250 0.0828412
255 0.0450107
260 0.0485041
265 0.110722
270 0.146229
275 0.0680452
280 0.101284
285 0.0994041
290 0.123329
295 0.133254
300 0.173906
305 0.147797
310 0.09997
315 0.125367
320 0.161914
325 0.192383
330 0.184154
335 0.225302
340 0.302224
345 0.456465
350 19.6646
355 343.658
360 542.458
365 140.462
370 17.882
375 3.88993
380 4.25632
385 7.54567
390 11.0156
395 12.3584
400 15.1977
405 16.4936
410 16.9428
415 17.6322
420 15.3553
425 13.2089
430 12.8012
435 12.258
440 12.4503
445 11.6177
450 10.6579
455 9.34686
460 8.47264
465 8.3124
470 7.89537
475 6.9559
480 6.43858
485 5.93666
490 5.58052
495 4.86037
500 4.52144
505 3.94267
510 3.68426
515 3.06681
520 2.70983
525 2.37589
530 2.13404
535 1.8887
540 1.55291
545 1.47678
550 1.50361
555 1.24027
560 1.05878
565 0.912396
570 0.614021
575 0.48928
580 0.45092
585 0.419999
590 0.388479
595 0.278011
600 0.0316366
Ex : 368
200 0.0760978
205 0.0777055
210 0.104182
215 0.121533
220 0.0504254
225 0.0625015
230 0.186951
235 0.0882831
240 0.0908273
245 0.0785205
250 0.0703769
255 0.0930978
260 0.119072
265 0.129404
270 0.0749281
275 0.110452
280 0.0710797
285 0.124003
290 0.117163
295 0.13786
300 0.0596328
305 0.079489
310 0.146697
315 0.13048
320 0.124805
325 0.172428
330 0.151443
335 0.204852
340 0.218864
345 0.25288
350 0.561905
355 15.9626
360 334.929
365 561.226
370 150.786
375 19.2719
380 5.86505
385 9.05497
390 13.8845
395 15.8289
400 15.0066
405 17.6221
410 22.2696
415 23.1022
420 21.1958
425 17.4272
430 15.477
435 14.83
440 15.5138
445 14.6067
450 13.0937
455 11.4789
460 9.90323
465 9.4368
470 8.89509
475 8.38224
480 7.5654
485 6.70556
490 5.98704
495 5.44742
500 4.78925
505 4.59039
510 4.1121
515 3.61115
520 3.13265
525 2.50744
530 2.19829
535 2.13877
540 1.94823
545 1.66191
550 1.47056
555 1.29693
560 1.09376
565 0.963226
570 0.795191
575 0.609279
580 0.513275
585 0.37096
590 0.293097
595 0.286512
600 0.127407
Ex : 373
200 0.110133
205 0.107216
210 0.122708
215 0.149039
220 0.107158
225 0.0672013
230 0.0670895
235 0.0494612
240 0.0423609
245 0.073142
250 0.0855024
255 0.0759523
260 0.109881
265 0.0815951
270 0.0926123
275 0.0903636
280 0.0846164
285 0.0939762
290 0.157465
295 0.143025
300 0.131945
305 0.126105
310 0.0761351
315 0.187677
320 0.116683
325 0.132987
330 0.155783
335 0.144994
340 0.184064
345 0.272824
350 0.307103
355 0.520611
360 19.0771
365 340.5
370 555.851
375 147.933
380 19.9716
385 8.54397
390 13.8447
395 16.8704
400 15.2407
405 14.0566
410 18.5544
415 24.0696
420 23.312
425 18.9068
430 15.3476
435 14.6873
440 14.8603
445 14.7803
450 12.8113
455 10.8289
460 9.68263
465 9.18383
470 8.77229
475 8.22575
480 7.68455
485 6.7748
490 6.07568
495 5.27728
500 4.88661
505 4.64706
510 4.05996
515 3.70171
520 3.41718
525 2.84223
530 2.44579
535 2.16356
540 1.92089
545 1.57319
550 1.48163
555 1.34962
560 1.18029
565 1.01175
570 0.695708
575 0.599776
580 0.506876
585 0.470962
590 0.334694
595 0.264723
600 0.0301245
Ex : 378
200 0.0632949
205 0.0895088
210 0.135485
215 0.0641413
220 0.0773045
225 0.14733
230 0.119145
235 0.0753947
240 0.0926223
245 0.106463
250 0.0745873
255 0.074362
260 0.0939146
265 0.108062
270 0.091589
275 0.152646
280 0.0986988
285 0.103177
290 0.106509
295 0.0554033
300 0.113185
305 0.158127
310 0.133756
315 0.0731398
320 0.133208
325 0.125151
330 0.0909828
335 0.137839
340 0.152923
345 0.145351
350 0.147253
355 0.258281
360 0.671301
365 17.9951
370 343.891
375 567.411
380 152.072
385 22.8832
390 11.6224
395 12.077
400 11.7942
405 10.7331
410 12.84
415 16.0064
420 18.1706
425 15.983
430 13.2733
435 12.1519
440 11.826
445 11.5229
450 10.4715
455 8.90045
460 8.09534
465 7.83348
470 7.38058
475 7.23072
480 6.69834
485 5.9803
490 5.36775
495 4.89078
500 4.62561
505 4.21466
510 3.70794
515 3.22754
520 3.01795
525 2.52438
530 2.40809
535 1.98125
540 2.12785
545 1.78566
550 1.47259
555 1.34054
560 1.10496
565 0.961726
570 0.842432
575 0.627145
580 0.461427
585 0.336048
590 0.32485
595 0.276208
600 0.0314315
Ex : 383
200 0.0972639
205 0.0757995
210 0.0470391
215 0.102815
220 0.0963331
225 0.120672
230 0.0951422
235 0.0731466
240 0.0626534
245 0.0818819
250 0.130822
255 0.128533
260 0.0564998
265 0.0871987
270 0.0591189
275 0.0755865
280 0.114
285 0.0920499
290 0.0677389
295 0.0668111
300 0.103757
305 0.0902494
310 0.0961978
315 0.123571
320 0.0693447
325 0.12533
330 0.136514
335 0.10539
340 0.157227
345 0.151446
350 0.199118
355 0.279852
360 0.34521
365 0.601622
370 16.5272
375 341.756
380 595.661
385 165.859
390 28.3926
395 12.9347
400 10.6984
405 11.1183
410 13.4229
415 14.9767
420 14.774
425 15.3817
430 14.6807
435 13.316
440 12.8287
445 11.0617
450 10.2892
455 9.0215
460 8.44283
465 8.37504
470 7.80417
475 6.86471
480 6.66939
485 6.14427
490 5.39148
495 5.13847
500 4.65997
505 4.27963
510 3.78553
515 3.2801
520 2.83006
525 2.65229
530 2.36893
535 2.11607
540 1.97236
545 1.75278
550 1.41076
555 1.26269
560 1.1207
565 0.933772
570 0.782018
575 0.640262
580 0.437323
585 0.435458
590 0.337385
595 0.25902
600 0.0294755
Ex : 388
200 0.0637697
205 0.109748
210 0.0518829
215 0.106613
220 0.087876
225 0.0539346
230 0.0614486
235 0.0645036
240 0.0654971
245 0.0841549
250 0.0457761
255 0.112137
260 0.0610654
265 0.0414376
270 0.0738387
275 0.112908
280 0.103997
285 0.0688654
290 0.154141
295 0.0867614
300 0.0521234
305 0.0880966
310 0.137411
315 0.108328
320 0.11795
325 0.096572
330 0.104784
335 0.0675604
340 0.0907824
345 0.160421
350 0.150964
355 0.135824
360 0.205821
365 0.325213
370 0.625644
375 18.6948
380 351.745
385 601.207
390 169.659
395 32.1333
400 14.4049
405 13.7349
410 16.4851
415 18.1149
420 17.2616
425 15.0254
430 15.7984
435 16.4194
440 15.8026
445 14.5262
450 12.3431
455 10.4139
460 9.28854
465 8.77793
470 8.30332
475 8.02813
480 7.2033
485 6.53332
490 6.1179
495 5.47529
500 5.13458
505 4.6327
510 3.99553
515 3.47682
520 3.12962
525 2.7772
530 2.62392
535 2.20516
540 2.24701
545 1.87112
550 1.5724
555 1.19644
560 1.00798
565 0.996534
570 0.822625
575 0.683435
580 0.503606
585 0.406201
590 0.305757
595 0.241155
600 0.345393
Ex : 393
200 0.0664089
205 0.0756262
210 0.18096
215 0.100661
220 0.097813
225 0.100447
230 0.055613
235 0.0770187
240 0.0609847
245 0.0835244
250 0.133287
255 0.0697103
260 0.0580503
265 0.0608007
270 0.0543914
275 0.0689249
280 0.0821153
285 0.0967997
290 0.118462
295 0.0592397
300 0.0977849
305 0.0887048
310 0.100659
315 0.0701467
320 0.0501717
325 0.101143
330 0.101031
335 0.0860924
340 0.0920923
345 0.141271
350 0.153877
355 0.140034
360 0.130636
365 0.294985
370 0.274597
375 0.606874
380 17.0728
385 351.399
390 612.049
395 176.492
400 32.5294
405 14.7457
410 15.4139
415 18.5875
420 18.3796
425 15.7365
430 13.0977
435 13.6323
440 16.085
445 15.2405
450 13.0376
455 10.8929
460 8.76878
465 8.37505
470 7.83326
475 7.70395
480 6.97305
485 6.2297
490 5.84617
495 5.32856
500 4.74766
505 4.59159
510 3.98779
515 3.70423
520 3.21652
525 2.67888
530 2.48707
535 2.27935
540 2.05361
545 1.69325
550 1.5297
555 1.26927
560 1.14862
565 1.01087
570 0.735107
575 0.60586
580 0.514075
585 0.350314
590 0.240143
595 0.223341
600 0.778212
Ex : 398
200 0.0428699
205 0.0775109
210 0.0365528
215 0.0809553
220 0.0841141
225 0.0626661
230 0.0505296
235 0.113476
240 0.100138
245 0.0349764
250 0.0822793
255 0.125311
260 0.0929145
265 0.103714
270 0.066977
275 0.0855809
280 0.0767942
285 0.0726322
290 0.0743191
295 0.0866708
300 0.0498802
305 0.0858397
310 0.0865186
315 0.0659877
320 0.0970137
325 0.0803627
330 0.0508538
335 0.0558468
340 0.151078
345 0.103882
350 0.108064
355 0.129388
360 0.127239
365 0.178736
370 0.248006
375 0.402684
380 0.779971
385 18.6791
390 358.914
395 619.877
400 171.352
405 26.5376
410 11.0381
415 11.8189
420 12.137
425 9.95846
430 8.57637
435 8.35546
440 9.39126
445 11.3891
450 10.7227
455 8.449
460 7.1334
465 6.28557
470 6.11655
475 5.8762
480 5.25975
485 5.11293
490 4.69001
495 4.42245
500 3.92155
505 3.79761
510 3.51992
515 3.18697
520 2.95176
525 2.49788
530 2.41351
535 2.01338
540 1.78683
545 1.6178
550 1.5245
555 1.28988
560 1.09514
565 0.975363
570 0.86486
575 0.567724
580 0.460448
585 0.503033
590 0.338458
595 0.282636
600 0.190841
Ex : 403
200 0.0620971
205 0.0729552
210 0.0576812
215 0.0788564
220 0.0719607
225 0.096904
230 0.0541179
235 0.053481
240 0.0577073
245 0.0755174
250 0.0481654
255 0.106964
260 0.0379584
265 0.0693754
270 0.0595899
275 0.100058
280 0.0950442
285 0.0842901
290 0.0638418
295 0.159478
300 0.134019
305 0.117739
310 0.0775779
315 0.0690555
320 0.1033
325 0.108246
330 0.111591
335 0.0679816
340 0.0648143
345 0.0843702
350 0.0697821
355 0.0677869
360 0.123265
365 0.142816
370 0.181823
375 0.255597
380 0.354353
385 0.910049
390 20.6178
395 364.215
400 610.579
405 166.948
410 23.283
415 7.73529
420 6.21873
425 5.75742
430 4.93252
435 4.89024
440 5.5887
445 5.83147
450 7.68848
455 7.72722
460 6.1204
465 5.75995
470 5.20618
475 4.79151
480 4.64625
485 4.30661
490 4.15829
495 3.85715
500 3.61301
505 3.28954
510 2.93711
515 2.97059
520 2.45009
525 2.4397
530 2.05202
535 1.85047
540 1.82263
545 1.60975
550 1.40898
555 1.11558
560 1.06384
565 0.91435
570 0.783504
575 0.5677
580 0.463321
585 0.324045
590 0.276765
595 0.236294
600 0.591389
Ex : 408
200 0.0646211
205 0.0791104
210 0.0887471
215 0.0740399
220 0.0718395
225 0.0510372
230 0.0741122
235 0.142676
240 0.0940228
245 0.0512689
250 0.0593512
255 0.0896207
260 0.11046
265 0.0775167
270 0.0584299
275 0.0952911
280 0.0423358
285 0.0404469
290 0.078441
295 0.076917
300 0.0723952
305 0.054257
310 0.0630644
315 0.106096
320 0.0466385
325 0.115141
330 0.0744215
335 0.0725073
340 0.11841
345 0.103365
350 0.108801
355 0.111338
360 0.095824
365 0.0806934
370 0.109044
375 0.133734
380 0.208969
385 0.32944
390 0.889169
395 18.7622
400 373.393
405 619.55
410 164.803
415 23.347
420 7.08542
425 4.70516
430 4.82649
435 4.73041
440 4.71552
445 5.34249
450 5.08911
455 6.4165
460 7.26365
465 6.03987
470 5.62201
475 5.38194
480 4.77888
485 4.42038
490 3.8292
495 3.79441
500 3.66765
505 3.40315
510 3.08207
515 2.77495
520 2.53158
525 2.30942
530 2.03192
535 1.99378
540 1.85268
545 1.50092
550 1.27139
555 1.12901
560 1.02515
565 0.866901
570 0.598169
575 0.583067
580 0.508545
585 0.380113
590 0.300459
595 0.285535
600 0.602195
Ex : 413
200 0.0831754
205 0.0802193
210 0.0393619
215 0.129716
220 0.0717605
225 0.0750574
230 0.104349
235 0.0793989
240 0.0985537
245 0.0911443
250 0.0876517
255 0.134204
260 0.122983
265 0.0758695
270 0.0630584
275 0.067938
280 0.075644
285 0.072111
290 0.0740878
295 0.0473716
300 0.107631
305 0.116118
310 0.0535475
315 0.0613342
320 0.0845393
325 0.0535914
330 0.0405859
335 0.0655848
340 0.15653
345 0.129005
350 0.149053
355 0.0997186
360 0.104539
365 0.132325
370 0.087234
375 0.129961
380 0.158941
385 0.222301
390 0.400725
395 0.826753
400 21.2224
405 384.162
410 624.695
415 162.059
420 22.6778
425 5.8965
430 4.3445
435 4.4458
440 4.58682
445 4.51198
450 4.45808
455 4.38002
460 5.24024
465 6.65434
470 5.988
475 5.18059
480 4.77509
485 4.08954
490 3.78257
495 3.55191
500 3.30921
505 3.12811
510 2.84535
515 2.61059
520 2.57103
525 2.32994
530 1.89696
535 1.81207
540 1.70917
545 1.54237
550 1.36378
555 1.27227
560 1.02723
565 0.924458
570 0.698808
575 0.617345
580 0.52428
585 0.396068
590 0.316757
595 0.246772
600 0.0788072
Ex : 418
200 0.0857076
205 0.0615625
210 0.0946406
215 0.101173
220 0.0846878
225 0.119814
230 0.0583721
235 0.0700227
240 0.0704168
245 0.0817991
250 0.124686
255 0.089372
260 0.0754259
265 0.0629788
270 0.0628054
275 0.0485852
280 0.0704522
285 0.141845
290 0.0607074
295 0.10033
300 0.101008
305 0.116899
310 0.048253
315 0.0684699
320 0.101269
325 0.0850469
330 0.0810192
335 0.0589068
340 0.0575291
345 0.134143
350 0.0967929
355 0.062127
360 0.072205
365 0.155917
370 0.0837359
375 0.131138
380 0.198721
385 0.16725
390 0.271759
395 0.404437
400 0.786385
405 20.2026
410 378.162
415 629.129
420 168.195
425 21.9473
430 4.74725
435 3.17237
440 3.29814
445 3.11342
450 3.00586
455 2.92231
460 2.9517
465 3.68486
470 5.37449
475 5.39191
480 4.44449
485 3.95052
490 3.2302
495 2.80148
500 2.72854
505 2.63645
510 2.72443
515 2.3283
520 2.19086
525 1.89675
530 1.82944
535 1.6523
540 1.57526
545 1.31341
550 1.2452
555 1.17333
560 0.948735
565 0.803994
570 0.683087
575 0.524689
580 0.521897
585 0.317866
590 0.264956
595 0.229965
600 0.418088
Ex : 423
200 0.100567
205 0.0807865
210 0.0763045
215 0.0524797
220 0.09592
225 0.119419
230 0.108026
235 0.0812634
240 0.10192
245 0.0704791
250 0.109891
255 0.0728362
260 0.0443763
265 0.0440406
270 0.0890994
275 0.10398
280 0.0709174
285 0.0675586
290 0.0655414
295 0.0460373
300 0.0604222
305 0.0340059
310 0.0651746
315 0.055864
320 0.0823648
325 0.0880463
330 0.0641509
335 0.087002
340 0.117211
345 0.103943
350 0.0408579
355 0.0744244
360 0.105626
365 0.103247
370 0.154357
375 0.153033
380 0.126469
385 0.130605
390 0.158586
395 0.245598
400 0.379443
405 0.707135
410 20.4276
415 393.293
420 624.248
425 158.33
430 20.0534
435 3.84284
440 2.04686
445 2.22239
450 2.25238
455 1.80099
460 1.88668
465 1.91457
470 2.43956
475 3.91608
480 4.90493
485 3.48838
490 3.21112
495 3.04583
500 2.42014
505 2.232
510 2.01735
515 2.09229
520 1.86203
525 1.71945
530 1.62448
535 1.51197
540 1.43923
545 1.37364
550 1.23691
555 1.06262
560 0.902535
565 0.835229
570 0.636246
575 0.513315
580 0.431526
585 0.344137
590 0.246167
595 0.216723
600 0.419822
Ex : 428
200 0.0619687
205 0.0732162
210 0.0626774
215 0.0483991
220 0.0553778
225 0.0896352
230 0.0517085
235 0.0504965
240 0.0457971
245 0.0622758
250 0.0549035
255 0.0672242
260 0.0961638
265 0.0502842
270 0.0818509
275 0.081513
280 0.123969
285 0.114586
290 0.0677845
295 0.115664
300 0.0202834
305 0.0423107
310 0.0765311
315 0.10709
320 0.0883701
325 0.0646997
330 0.0923
335 0.0828969
340 0.0696622
345 0.0897187
350 0.0743718
355 0.0731589
360 0.0823702
365 0.100262
370 0.168604
375 0.16958
380 0.159057
385 0.136698
390 0.168515
395 0.169556
400 0.214311
405 0.410546
410 0.760681
415 22.1824
420 390.873
425 627.801
430 163.309
435 20.2283
440 3.51454
445 1.70412
450 1.65243
455 1.62924
460 1.48391
465 1.39241
470 1.5796
475 1.87124
480 3.08839
485 4.45864
490 3.76819
495 2.95338
500 2.61462
505 2.13628
510 1.87718
515 1.85283
520 1.81661
525 1.51549
530 1.42881
535 1.51485
540 1.25163
545 1.14258
550 1.04692
555 0.925745
560 0.952379
565 0.78183
570 0.669224
575 0.502888
580 0.380314
585 0.370147
590 0.279666
595 0.331038
600 0.129551
Ex : 433
200 0.0656001
205 0.077961
210 0.0271395
215 0.0589229
220 0.0578186
225 0.0662546
230 0.0590161
235 0.0791682
240 0.0803499
245 0.0640487
250 0.052555
255 0.0714854
260 0.0867716
265 0.112228
270 0.0920667
275 0.0417688
280 0.0701857
285 0.089174
290 0.104894
295 0.0942268
300 0.111529
305 0.0642401
310 0.0483422
315 0.0455454
320 0.0744097
325 0.0678084
330 0.0902676
335 0.0736288
340 0.0710525
345 0.107765
350 0.0631519
355 0.103836
360 0.0762855
365 0.0937486
370 0.0813387
375 0.123945
380 0.105057
385 0.0650789
390 0.110595
395 0.149089
400 0.190599
405 0.220754
410 0.463965
415 0.693995
420 24.188
425 419.417
430 638.171
435 159.705
440 19.6875
445 3.51119
450 1.38629
455 1.53793
460 1.51641
465 1.56318
470 1.47389
475 1.52397
480 1.56009
485 2.65074
490 4.15776
495 3.74748
500 2.91237
505 2.59283
510 1.94461
515 1.76302
520 1.61954
525 1.49924
530 1.44854
535 1.35795
540 1.20042
545 1.16178
550 0.988955
555 0.874617
560 0.844036
565 0.702151
570 0.56119
575 0.547944
580 0.361893
585 0.394704
590 0.28462
595 0.218491
600 0.228451
Ex : 438
200 0.0779835
205 0.0906885
210 0.082115
215 0.0719974
220 0.0722857
225 0.0531353
230 0.116083
235 0.0758828
240 0.0560508
245 0.0754057
250 0.0482007
255 0.0562024
260 0.0492444
265 0.0421075
270 0.0655603
275 0.0730765
280 0.0923359
285 0.0634512
290 0.0796952
295 0.0784535
300 0.0572687
305 0.0843706
310 0.111809
315 0.0546773
320 0.0907501
325 0.0702047
330 0.0907632
335 0.0674325
340 0.0640606
345 0.0597872
350 0.0706639
355 0.130264
360 0.105527
365 0.0763682
370 0.11089
375 0.0993158
380 0.117519
385 0.117861
390 0.107709
395 0.130143
400 0.189598
405 0.22162
410 0.203211
415 0.436837
420 0.692273
425 23.2945
430 415.951
435 679.216
440 171.37
445 21.0282
450 3.56892
455 1.46089
460 1.47726
465 1.61866
470 1.59505
475 1.48242
480 1.36792
485 1.59741
490 1.92567
495 3.51468
500 3.87135
505 2.76143
510 2.29642
515 2.00742
520 1.74737
525 1.50042
530 1.23243
535 1.31828
540 1.02151
545 0.978716
550 0.927895
555 1.01754
560 0.890279
565 0.701129
570 0.555291
575 0.540659
580 0.458689
585 0.461447
590 0.298186
595 0.30247
600 0.164397
Ex : 443
200 0.0515178
205 0.0326719
210 0.0771864
215 0.0627597
220 0.0668546
225 0.126221
230 0.104483
235 0.0627948
240 0.0420396
245 0.0657815
250 0.113822
255 0.0717858
260 0.0953471
265 0.0364254
270 0.0452781
275 0.101513
280 0.0809486
285 0.06928
290 0.0575408
295 0.0836277
300 0.0791107
305 0.116913
310 0.0644383
315 0.065587
320 0.0997512
325 0.0978538
330 0.0971404
335 0.0912366
340 0.10521
345 0.115285
350 0.118456
355 0.0811399
360 0.058025
365 0.0939423
370 0.112068
375 0.0948419
380 0.0823091
385 0.0976168
390 0.162934
395 0.198432
400 0.0973666
405 0.141991
410 0.159413
415 0.317445
420 0.444708
425 0.736125
430 26.3189
435 446.609
440 684.509
445 170.307
450 20.7839
455 3.51464
460 1.4744
465 1.38897
470 1.58141
475 1.48535
480 1.3326
485 1.40349
490 1.4986
495 1.61375
500 2.89992
505 3.62794
510 2.68713
515 2.21997
520 1.83567
525 1.5183
530 1.30889
535 1.13624
540 1.09848
545 1.06949
550 0.933529
555 0.726724
560 0.738252
565 0.647691
570 0.566183
575 0.542332
580 0.422152
585 0.248173
590 0.271006
595 0.244958
600 0.0278753
Ex : 448
200 0.0448117
205 0.0772356
210 0.0393356
215 0.0660905
220 0.0875318
225 0.0761755
230 0.0833309
235 0.0624708
240 0.0526664
245 0.0671329
250 0.0529028
255 0.0630755
260 0.0839221
265 0.0827497
270 0.0757749
275 0.0388758
280 0.060833
285 0.0564028
290 0.107187
295 0.113758
300 0.0900904
305 0.0929175
310 0.0814643
315 0.0721792
320 0.11576
325 0.0793087
330 0.08162
335 0.0632841
340 0.0767551
345 0.0979296
350 0.0630315
355 0.109905
360 0.117547
365 0.0883552
370 0.11186
375 0.0906199
380 0.0909927
385 0.113443
390 0.0987055
395 0.1471
400 0.162464
405 0.110071
410 0.202472
415 0.221109
420 0.200177
425 0.349997
430 0.618438
435 27.1187
440 472.843
445 724.52
450 180.338
455 22.0946
460 3.71513
465 1.54911
470 1.46809
475 1.56035
480 1.50267
485 1.34767
490 1.41218
495 1.26362
500 1.36634
505 2.12222
510 3.22633
515 2.75696
520 2.17885
525 1.87634
530 1.66615
535 1.31742
540 1.14912
545 0.974066
550 0.883574
555 0.799296
560 0.734668
565 0.636691
570 0.594099
575 0.430102
580 0.358447
585 0.30995
590 0.264134
595 0.263351
600 0.642579
Ex : 453
200 0.0892657
205 0.0542592
210 0.114411
215 0.0845546
220 0.0634351
225 0.039157
230 0.0587862
235 0.0860713
240 0.0533123
245 0.0398473
250 0.058665
255 0.0760955
260 0.0587202
265 0.0660031
270 0.0475399
275 0.0431693
280 0.0885596
285 0.0782937
290 0.0811869
295 0.058435
300 0.069259
305 0.0708947
310 0.0787955
315 0.117957
320 0.0923178
325 0.0804354
330 0.0360304
335 0.0612918
340 0.0747362
345 0.0537212
350 0.0412583
355 0.0499129
360 0.0719063
365 0.0876932
370 0.079558
375 0.075193
380 0.066133
385 0.0808283
390 0.0753375
395 0.106809
400 0.0988447
405 0.1024
410 0.12342
415 0.194425
420 0.16576
425 0.219544
430 0.384822
435 0.624179
440 28.7692
445 509.062
450 754.713
455 177.275
460 21.7905
465 3.90909
470 1.53846
475 1.27493
480 1.62754
485 1.52291
490 1.23473
495 1.20388
500 1.1501
505 1.30626
510 1.62266
515 2.97032
520 2.94585
525 2.01085
530 1.86497
535 1.58921
540 1.34406
545 1.0138
550 0.944299
555 0.905895
560 0.803605
565 0.645274
570 0.629824
575 0.589347
580 0.459694
585 0.346723
590 0.275312
595 0.281106
600 0.277839
Ex : 458
200 0.111752
205 0.118399
210 0.072035
215 0.0442083
220 0.106345
225 0.0820578
230 0.132944
235 0.12474
240 0.0906788
245 0.0799353
250 0.127465
255 0.0850017
260 0.0624346
265 0.0668985
270 0.103503
275 0.127303
280 0.083929
285 0.085385
290 0.0687596
295 0.0665811
300 0.0878761
305 0.0992539
310 0.0872273
315 0.0968048
320 0.143665
325 0.056267
330 0.0771089
335 0.053019
340 0.0737357
345 0.141342
350 0.0812053
355 0.129184
360 0.100203
365 0.0790815
370 0.0807039
375 0.069654
380 0.115362
385 0.108738
390 0.089405
395 0.107332
400 0.121413
405 0.0844769
410 0.111774
415 0.163317
420 0.217717
425 0.192111
430 0.21846
435 0.380104
440 0.774376
445 31.5564
450 530.551
455 800.75
460 192.932
465 23.7202
470 4.05809
475 1.61276
480 1.35111
485 1.54307
490 1.44012
495 1.24368
500 1.15017
505 0.992636
510 1.1202
515 1.32758
520 2.36381
525 2.86544
530 2.17822
535 1.63876
540 1.47488
545 1.36702
550 1.01564
555 0.808534
560 0.676658
565 0.660932
570 0.579711
575 0.465113
580 0.409419
585 0.29057
590 0.308894
595 0.248544
600 0.211335
Ex : 463
200 0.105339
205 0.0509797
210 0.0649772
215 0.0635478
220 0.0538874
225 0.114663
230 0.082289
235 0.0610047
240 0.0700888
245 0.0518351
250 0.0644234
255 0.0470963
260 0.0484446
265 0.0829891
270 0.0797363
275 0.064165
280 0.0781928
285 0.133465
290 0.126669
295 0.0707927
300 0.0705022
305 0.0733537
310 0.130968
315 0.119809
320 0.0602112
325 0.116577
330 0.115344
335 0.0952607
340 0.0733112
345 0.0808744
350 0.0561199
355 0.0923294
360 0.0810319
365 0.0532549
370 0.0647483
375 0.0833525
380 0.0923942
385 0.0627428
390 0.0552607
395 0.0381597
400 0.0858198
405 0.118883
410 0.142252
415 0.143652
420 0.173732
425 0.140068
430 0.190698
435 0.296489
440 0.362203
445 0.716552
450 31.2123
455 554.11
460 855.888
465 207.969
470 25.5634
475 4.22223
480 1.5485
485 1.37743
490 1.51439
495 1.52619
500 1.2678
505 1.12877
510 1.02273
515 1.05639
520 1.10248
525 1.83331
530 2.77574
535 2.43183
540 1.50258
545 1.37179
550 1.25335
555 1.04313
560 0.805468
565 0.781916
570 0.665021
575 0.453335
580 0.407433
585 0.388463
590 0.313422
595 0.29503
600 0.409129
Ex : 468
200 0.0631627
205 0.0479474
210 0.0473131
215 0.0761253
220 0.0493431
225 0.0874756
230 0.114466
235 0.0740532
240 0.0773204
245 0.0887157
250 0.0605393
255 0.100619
260 0.0378374
265 0.0655593
270 0.0919689
275 0.0344657
280 0.058273
285 0.0661346
290 0.070876
295 0.0713408
300 0.0551473
305 0.0409913
310 0.054221
315 0.0896447
320 0.0752603
325 0.097231
330 0.0656571
335 0.0660664
340 0.0454741
345 0.0772168
350 0.0588501
355 0.068905
360 0.0621225
365 0.0831428
370 0.0975604
375 0.107479
380 0.102963
385 0.110599
390 0.115888
395 0.147029
400 0.133823
405 0.100131
410 0.107716
415 0.0602869
420 0.0909523
425 0.15639
430 0.137515
435 0.19241
440 0.261138
445 0.379971
450 0.784866
455 35.9549
460 573.102
465 914.493
470 220.014
475 26.7115
480 4.29396
485 1.6017
490 1.112
495 1.36563
500 1.36795
505 1.16456
510 1.04578
515 0.899476
520 1.029
525 1.10812
530 1.4548
535 2.45174
540 2.52697
545 1.65199
550 1.28824
555 1.22751
560 0.986248
565 0.878826
570 0.623757
575 0.576137
580 0.485474
585 0.368988
590 0.318378
595 0.304271
600 0.426879
Ex : 473
200 0.105281
205 0.0773553
210 0.0321514
215 0.062883
220 0.0646001
225 0.0626509
230 0.0743835
235 0.0941747
240 0.0873944
245 0.0910847
250 0.118212
255 0.0643429
260 0.10583
265 0.0569296
270 0.0430025
275 0.0600157
280 0.0897349
285 0.0768853
290 0.0688413
295 0.0623391
300 0.0866669
305 0.071406
310 0.0847105
315 0.118979
320 0.0699437
325 0.0856651
330 0.0640663
335 0.0689384
340 0.0741986
345 0.0662984
350 0.0919595
355 0.076783
360 0.110535
365 0.0577923
370 0.0786651
375 0.0633262
380 0.135787
385 0.111557
390 0.111311
395 0.089443
400 0.0698053
405 0.117902
410 0.148026
415 0.140142
420 0.154425
425 0.123132
430 0.160322
435 0.146561
440 0.177286
445 0.249659
450 0.473074
455 0.739581
460 40.2469
465 634.65
470 897.294
475 208.246
480 25.2823
485 4.20363
490 1.52772
495 1.16646
500 1.36587
505 1.32118
510 1.1565
515 0.994903
520 0.935736
525 1.01139
530 1.16492
535 1.28975
540 2.11114
545 2.62308
550 1.6231
555 1.24734
560 1.22806
565 0.986673
570 0.707137
575 0.594075
580 0.431466
585 0.376073
590 0.328835
595 0.341211
600 0.29313
Ex : 478
200 0.101292
205 0.0878874
210 0.0848854
215 0.13211
220 0.0679124
225 0.057426
230 0.104416
235 0.0845829
240 0.0879929
245 0.0769008
250 0.0901257
255 0.148536
260 0.0833607
265 0.0978457
270 0.0956236
275 0.0871921
280 0.0710396
285 0.0451986
290 0.101857
295 0.127179
300 0.0984969
305 0.0643167
310 0.086451
315 0.0561298
320 0.0870873
325 0.128784
330 0.102198
335 0.098105
340 0.0967717
345 0.0577881
350 0.114719
355 0.0966728
360 0.133622
365 0.180499
370 0.0962352
375 0.0852535
380 0.0883825
385 0.0813433
390 0.0695369
395 0.0905492
400 0.1024
405 0.154246
410 0.146226
415 0.1632
420 0.19258
425 0.149342
430 0.126734
435 0.173081
440 0.214568
445 0.293468
450 0.402678
455 0.548013
460 1.00444
465 45.2534
470 664.893
475 932.785
480 226.198
485 27.4422
490 4.38317
495 1.42581
500 1.00321
505 1.21254
510 1.34155
515 1.15178
520 0.911611
525 1.03209
530 1.06372
535 0.915022
540 1.04796
545 1.49561
550 2.1813
555 1.83139
560 1.22244
565 1.01336
570 0.909854
575 0.682476
580 0.462497
585 0.386417
590 0.284791
595 0.279892
600 0.305486
Ex : 483
200 0.109079
205 0.0784436
210 0.0543767
215 0.0787598
220 0.105082
225 0.0723558
230 0.0947685
235 0.0398026
240 0.0891747
245 0.052096
250 0.0698355
255 0.0926322
260 0.0935649
265 0.0569174
270 0.0778609
275 0.167421
280 0.0737366
285 0.085819
290 0.114082
295 0.0565245
300 0.0449887
305 0.049649
310 0.0757581
315 0.10502
320 0.098379
325 0.0869283
330 0.0882019
335 0.0866481
340 0.103869
345 0.0739616
350 0.0790731
355 0.10314
360 0.0712295
365 0.13132
370 0.0767101
375 0.11145
380 0.132713
385 0.144497
390 0.125182
395 0.0927426
400 0.0907895
405 0.11595
410 0.0750948
415 0.0887061
420 0.160862
425 0.1572
430 0.112252
435 0.15032
440 0.201738
445 0.18782
450 0.225295
455 0.421502
460 0.618194
465 1.06841
470 36.0039
475 663.5
480 1020.12
485 243.925
490 29.4685
495 4.46107
500 1.46741
505 0.976222
510 1.12178
515 1.29117
520 1.29448
525 1.13839
530 0.918377
535 0.933551
540 0.868365
545 1.02048
550 1.23809
555 1.85895
560 2.00615
565 1.30432
570 0.912153
575 0.797328
580 0.583175
585 0.4195
590 0.371486
595 0.281434
600 0.111754
Ex : 488
200 0.0773837
205 0.109708
210 0.093385
215 0.0696907
220 0.0958563
225 0.103481
230 0.0924875
235 0.11429
240 0.0877577
245 0.0697433
250 0.123198
255 0.0841571
260 0.110641
265 0.117283
270 0.0993189
275 0.0949356
280 0.0976605
285 0.0482455
290 0.0914201
295 0.133901
300 0.0918502
305 0.0856566
310 0.0539721
315 0.100852
320 0.0761475
325 0.122342
330 0.114327
335 0.116413
340 0.131159
345 0.0782139
350 0.102138
355 0.115925
360 0.148918
365 0.0864413
370 0.109477
375 0.0984069
380 0.0658569
385 0.144923
390 0.10786
395 0.102282
400 0.106558
405 0.0889913
410 0.152116
415 0.164299
420 0.124875
425 0.136943
430 0.210138
435 0.227854
440 0.130667
445 0.127481
450 0.16921
455 0.263615
460 0.395948
465 0.630685
470 1.0818
475 44.5877
480 727.538
485 1026.79
490 240.824
495 29.2391
500 4.36408
505 1.36961
510 0.921359
515 1.09231
520 1.34286
525 1.20579
530 1.06694
535 0.919619
540 0.823926
545 0.812582
550 0.811187
555 0.932837
560 1.54684
565 1.86627
570 1.24379
575 0.954396
580 0.741912
585 0.509275
590 0.374408
595 0.243493
600 0.260654
Ex : 493
200 0.0718665
205 0.0951353
210 0.0591264
215 0.0973081
220 0.0958659
225 0.0938671
230 0.0812067
235 0.0577065
240 0.0619144
245 0.110228
250 0.121618
255 0.131349
260 0.18104
265 0.0817664
270 0.107996
275 0.114445
280 0.0788833
285 0.111543
290 0.0810114
295 0.0815275
300 0.101064
305 0.133938
310 0.0882956
315 0.066662
320 0.13307
325 0.157476
330 0.162781
335 0.0997559
340 0.103237
345 0.114609
350 0.122148
355 0.076179
360 0.0868633
365 0.084213
370 0.121146
375 0.0955721
380 0.0849201
385 0.105813
390 0.102381
395 0.110306
400 0.10468
405 0.15149
410 0.142108
415 0.110803
420 0.116787
425 0.108335
430 0.143986
435 0.148859
440 0.130553
445 0.154996
450 0.166889
455 0.179812
460 0.227235
465 0.453773
470 0.572306
475 1.10605
480 41.1051
485 722.804
490 1081.76
495 249.923
500 29.9971
505 4.57825
510 1.41755
515 1.0476
520 0.920045
525 1.25019
530 1.17895
535 1.04648
540 0.819081
545 0.778535
550 0.782467
555 0.70456
560 0.797076
565 1.06922
570 1.56396
575 1.45308
580 0.826806
585 0.509155
590 0.453121
595 0.372454
600 0.786524
Ex : 498
200 0.0968806
205 0.139864
210 0.0757527
215 0.0759451
220 0.0694172
225 0.104872
230 0.123627
235 0.0734376
240 0.0783321
245 0.0888614
250 0.0998993
255 0.094051
260 0.11516
265 0.0863932
270 0.0931207
275 0.109865
280 0.0471363
285 0.0630673
290 0.0915519
295 0.0595134
300 0.0686708
305 0.0742976
310 0.104758
315 0.0945827
320 0.0993747
325 0.120261
330 0.0990646
335 0.14303
340 0.0717583
345 0.0742872
350 0.0992757
355 0.0981939
360 0.111176
365 0.150181
370 0.118011
375 0.112751
380 0.130837
385 0.117457
390 0.1068
395 0.16396
400 0.188625
405 0.162516
410 0.119598
415 0.101917
420 0.130044
425 0.13354
430 0.112545
435 0.235543
440 0.163205
445 0.14974
450 0.130287
455 0.158215
460 0.213488
465 0.296204
470 0.405512
475 0.669008
480 1.16461
485 50.7529
490 775.063
495 1066.43
500 247.112
505 29.7317
510 4.50988
515 1.45069
520 0.961214
525 0.986071
530 1.13468
535 1.06699
540 0.973138
545 0.925687
550 0.699693
555 0.718606
560 0.663745
565 0.602254
570 0.747658
575 1.11607
580 1.12592
585 0.655948
590 0.475709
595 0.425313
600 0.242023
Ex : 503
200 0.0935169
205 0.0677676
210 0.0535515
215 0.0816253
220 0.128511
225 0.114586
230 0.0792474
235 0.163764
240 0.0947439
245 0.127042
250 0.119136
255 0.0905614
260 0.0747926
265 0.124532
270 0.121424
275 0.0740972
280 0.112873
285 0.143888
290 0.0997115
295 0.197583
300 0.118987
305 0.115636
310 0.130969
315 0.0996662
320 0.139083
325 0.105337
330 0.0753546
335 0.114149
340 0.134015
345 0.112807
350 0.0879311
355 0.124165
360 0.0813613
365 0.124316
370 0.198127
375 0.143623
380 0.103853
385 0.125246
390 0.227103
395 0.191226
400 0.127161
405 0.12868
410 0.177109
415 0.204486
420 0.142536
425 0.123551
430 0.146522
435 0.131581
440 0.210266
445 0.205259
450 0.157043
455 0.169601
460 0.240733
465 0.307657
470 0.325944
475 0.351855
480 0.703012
485 1.1952
490 46.6596
495 787.67
500 1128.06
505 260.645
510 31.3715
515 4.6842
520 1.57542
525 1.05083
530 1.06699
535 1.17894
540 1.16221
545 0.985479
550 0.792659
555 0.638069
560 0.61918
565 0.606173
570 0.587752
575 0.508107
580 0.644469
585 0.924686
590 0.654334
595 0.5653
600 0.536711
Ex : 508
200 0.0493558
205 0.0949547
210 0.133817
215 0.140342
220 0.120046
225 0.0896017
230 0.0747601
235 0.0648792
240 0.0807407
245 0.0924033
250 0.102262
255 0.115621
260 0.0841933
265 0.0590678
270 0.0857375
275 0.134852
280 0.0671103
285 0.100819
290 0.0907561
295 0.125019
300 0.162057
305 0.133716
310 0.128407
315 0.0935626
320 0.0707254
325 0.107886
330 0.130856
335 0.146429
340 0.158553
345 0.116175
350 0.161793
355 0.121533
360 0.116069
365 0.0954173
370 0.0784524
375 0.114049
380 0.200116
385 0.168652
390 0.116873
395 0.106732
400 0.134149
405 0.203189
410 0.151281
415 0.12136
420 0.170409
425 0.120647
430 0.173525
435 0.178963
440 0.140041
445 0.171399
450 0.16158
455 0.168088
460 0.21377
465 0.260052
470 0.273352
475 0.456453
480 0.46837
485 0.541974
490 1.04679
495 50.5361
500 787.495
505 1121.2
510 271.862
515 32.7541
520 4.93992
525 1.74865
530 1.08872
535 0.972354
540 1.09163
545 0.959839
550 0.791421
555 0.711394
560 0.796846
565 0.582074
570 0.534099
575 0.536491
580 0.313974
585 0.476021
590 0.737112
595 0.643441
600 0.622017
Ex : 513
200 0.102052
205 0.0729827
210 0.0903537
215 0.121008
220 0.0740015
225 0.0620671
230 0.094797
235 0.214891
240 0.125273
245 0.103403
250 0.0759484
255 0.167552
260 0.0952693
265 0.134102
270 0.10192
275 0.155014
280 0.19114
285 0.122787
290 0.0973836
295 0.164132
300 0.130182
305 0.122045
310 0.105496
315 0.0955268
320 0.0982778
325 0.0911486
330 0.0874598
335 0.134292
340 0.149968
345 0.136045
350 0.137854
355 0.109407
360 0.114204
365 0.0994695
370 0.11239
375 0.101688
380 0.165076
385 0.120303
390 0.120173
395 0.140871
400 0.119934
405 0.123937
410 0.0578925
415 0.0778275
420 0.0877013
425 0.123025
430 0.101958
435 0.106468
440 0.208895
445 0.181791
450 0.233336
455 0.170721
460 0.320846
465 0.227872
470 0.247954
475 0.309298
480 0.323265
485 0.491904
490 0.94308
495 1.27471
500 46.677
505 785.853
510 1145.58
515 281.509
520 33.7094
525 4.98973
530 1.67872
535 0.993661
540 0.950051
545 0.916318
550 0.911285
555 0.785557
560 0.72352
565 0.685175
570 0.539366
575 0.538137
580 0.413701
585 0.342612
590 0.390901
595 0.531556
600 0.247715
Ex : 518
200 0.114387
205 0.119791
210 0.0962977
215 0.0772986
220 0.0791704
225 0.0785716
230 0.162269
235 0.102779
240 0.0753233
245 0.124701
250 0.136041
255 0.131271
260 0.0943741
265 0.133622
270 0.11779
275 0.140413
280 0.187904
285 0.14063
290 0.144685
295 0.078205
300 0.0544424
305 0.105435
310 0.0980225
315 0.166294
320 0.0913335
325 0.0916993
330 0.135638
335 0.0728277
340 0.157591
345 0.132361
350 0.0932717
355 0.147457
360 0.223367
365 0.0819606
370 0.098306
375 0.0973767
380 0.151142
385 0.149024
390 0.103063
395 0.0892736
400 0.104429
405 0.0898524
410 0.20099
415 0.160932
420 0.124884
425 0.162539
430 0.174182
435 0.161042
440 0.185532
445 0.189636
450 0.164635
455 0.175733
460 0.269045
465 0.262085
470 0.233773
475 0.177766
480 0.274894
485 0.35802
490 0.435929
495 0.619704
500 1.22967
505 47.9796
510 778.87
515 1159.97
520 286.265
525 34.5781
530 5.21359
535 1.55669
540 1.00942
545 0.795628
550 0.885092
555 0.920058
560 0.697275
565 0.567724
570 0.555093
575 0.511013
580 0.366938
585 0.388825
590 0.331847
595 0.303563
600 0.359486
Ex : 523
200 0.0597436
205 0.149132
210 0.142113
215 0.133297
220 0.0984617
225 0.176212
230 0.10054
235 0.157515
240 0.142458
245 0.127567
250 0.155444
255 0.171802
260 0.102441
265 0.114872
270 0.0809988
275 0.0752235
280 0.158883
285 0.0952648
290 0.115597
295 0.0739899
300 0.143841
305 0.120967
310 0.0660251
315 0.0990041
320 0.128787
325 0.107808
330 0.129809
335 0.0995573
340 0.106905
345 0.121785
350 0.189609
355 0.117152
360 0.113468
365 0.0804056
370 0.0820534
375 0.174281
380 0.161777
385 0.118611
390 0.151806
395 0.115648
400 0.203793
405 0.20081
410 0.179173
415 0.132016
420 0.244619
425 0.173953
430 0.171825
435 0.134024
440 0.120104
445 0.196802
450 0.180191
455 0.190876
460 0.209002
465 0.212347
470 0.292147
475 0.194421
480 0.323629
485 0.310505
490 0.308562
495 0.380682
500 0.705146
505 1.05773
510 45.0476
515 755.934
520 1163.32
525 297.526
530 35.6045
535 5.25511
540 1.46711
545 0.89729
550 0.826216
555 0.711177
560 0.692945
565 0.613213
570 0.455642
575 0.423563
580 0.437758
585 0.468998
590 0.297181
595 0.280857
600 0.18912
Ex : 528
200 0.150881
205 0.178879
210 0.0927478
215 0.138089
220 0.118089
225 0.12607
230 0.118638
235 0.138414
240 0.136612
245 0.152243
250 0.114792
255 0.131834
260 0.151107
265 0.113722
270 0.130071
275 0.144085
280 0.142392
285 0.0896003
290 0.0953308
295 0.115605
300 0.149729
305 0.105345
310 0.101368
315 0.113064
320 0.178258
325 0.134333
330 0.0767605
335 0.109191
340 0.167035
345 0.167987
350 0.261348
355 0.182179
360 0.101689
365 0.0904349
370 0.254971
375 0.171688
380 0.0869967
385 0.112146
390 0.0943429
395 0.203948
400 0.183784
405 0.101024
410 0.185481
415 0.114208
420 0.136951
425 0.186397
430 0.128087
435 0.146206
440 0.0764988
445 0.161372
450 0.172401
455 0.162389
460 0.216548
465 0.206592
470 0.23653
475 0.171258
480 0.163661
485 0.249831
490 0.317348
495 0.343935
500 0.440017
505 0.613813
510 1.06684
515 41.9428
520 747.155
525 1149.12
530 289.299
535 34.7787
540 5.0078
545 1.44295
550 0.916034
555 0.711138
560 0.596414
565 0.589678
570 0.652786
575 0.368743
580 0.421393
585 0.387919
590 0.372953
595 0.344723
600 0.502781
Ex : 533
200 0.142122
205 0.177585
210 0.129043
215 0.0967488
220 0.133935
225 0.127403
230 0.15368
235 0.0826453
240 0.104447
245 0.137575
250 0.0955169
255 0.130533
260 0.133487
265 0.16097
270 0.200428
275 0.0829448
280 0.154292
285 0.119054
290 0.113257
295 0.126809
300 0.127409
305 0.129897
310 0.146791
315 0.107746
320 0.108249
325 0.0767552
330 0.194365
335 0.121307
340 0.155271
345 0.113161
350 0.145225
355 0.0972624
360 0.114947
365 0.129977
370 0.159636
375 0.134763
380 0.116013
385 0.125603
390 0.155349
395 0.0722445
400 0.131577
405 0.242889
410 0.258366
415 0.201376
420 0.123216
425 0.115863
430 0.147451
435 0.152456
440 0.169866
445 0.164224
450 0.161855
455 0.231314
460 0.256767
465 0.118063
470 0.198121
475 0.187046
480 0.256972
485 0.18177
490 0.280577
495 0.268339
500 0.32356
505 0.446913
510 0.562304
515 1.10796
520 41.4794
525 723.017
530 1150.15
535 299.301
540 35.6796
545 4.92708
550 1.29396
555 0.805881
560 0.589289
565 0.540999
570 0.669972
575 0.50454
580 0.362956
585 0.329845
590 0.380405
595 0.3248
600 0.714373
Ex : 538
200 0.238138
205 0.155805
210 0.128607
215 0.115034
220 0.124803
225 0.119056
230 0.208912
235 0.126844
240 0.0793772
245 0.105014
250 0.11909
255 0.0954565
260 0.147255
265 0.0905497
270 0.0976489
275 0.147487
280 0.0723521
285 0.0465183
290 0.149949
295 0.123122
300 0.177891
305 0.0923308
310 0.0943758
315 0.16272
320 0.151442
325 0.146579
330 0.181722
335 0.110751
340 0.0759775
345 0.125971
350 0.181911
355 0.197434
360 0.198462
365 0.138692
370 0.132352
375 0.107762
380 0.145488
385 0.203367
390 0.156653
395 0.157219
400 0.208296
405 0.234119
410 0.253471
415 0.17346
420 0.108854
425 0.174363
430 0.171988
435 0.171706
440 0.111838
445 0.190703
450 0.158846
455 0.152209
460 0.123272
465 0.20899
470 0.155557
475 0.283275
480 0.193227
485 0.185702
490 0.182334
495 0.263722
500 0.222388
505 0.273172
510 0.465788
515 0.736125
520 1.19713
525 35.7654
530 691.567
535 1146.66
540 309.52
545 36.8682
550 5.07763
555 1.2661
560 0.627659
565 0.431381
570 0.379851
575 0.385429
580 0.449071
585 0.362237
590 0.479178
595 0.399349
600 0.216968
Ex : 543
200 0.232001
205 0.167124
210 0.0943966
215 0.183715
220 0.172793
225 0.101631
230 0.105445
235 0.162574
240 0.105448
245 0.103367
250 0.0692623
255 0.0720328
260 0.142934
265 0.188321
270 0.163736
275 0.109385
280 0.134626
285 0.148882
290 0.104493
295 0.0824621
300 0.0875505
305 0.125137
310 0.172709
315 0.144029
320 0.186983
325 0.175529
330 0.152911
335 0.118526
340 0.119634
345 0.119684
350 0.129653
355 0.129076
360 0.22104
365 0.186324
370 0.0853967
375 0.167399
380 0.143149
385 0.117871
390 0.13214
395 0.112065
400 0.133299
405 0.109764
410 0.189637
415 0.136138
420 0.135256
425 0.159072
430 0.186471
435 0.142846
440 0.152867
445 0.220848
450 0.181049
455 0.171819
460 0.225864
465 0.166033
470 0.232773
475 0.197879
480 0.192038
485 0.112916
490 0.194577
495 0.220999
500 0.208407
505 0.222652
510 0.243221
515 0.515284
520 0.682464
525 1.04949
530 33.0908
535 666.692
540 1145.16
545 316.374
550 37.8555
555 5.08788
560 1.23827
565 0.729474
570 0.617773
575 0.305454
580 0.467392
585 0.411214
590 0.414007
595 0.456854
600 0.0519882
Ex : 548
200 0.171731
205 0.237817
210 0.293639
215 0.124954
220 0.117407
225 0.181379
230 0.198125
235 0.142917
240 0.134796
245 0.103863
250 0.136299
255 0.111035
260 0.144737
265 0.105748
270 0.0777812
275 0.083625
280 0.17747
285 0.164155
290 0.189691
295 0.110935
300 0.102757
305 0.123531
310 0.113023
315 0.155443
320 0.112484
325 0.154963
330 0.130957
335 0.177506
340 0.16788
345 0.151907
350 0.111167
355 0.11175
360 0.154432
365 0.139383
370 0.102083
375 0.153492
380 0.147397
385 0.111094
390 0.177249
395 0.13885
400 0.140191
405 0.142536
410 0.164182
415 0.158053
420 0.119833
425 0.180525
430 0.150053
435 0.148095
440 0.147145
445 0.106251
450 0.148411
455 0.120088
460 0.235034
465 0.25574
470 0.148929
475 0.178737
480 0.119963
485 0.133705
490 0.249619
495 0.164623
500 0.21365
505 0.24429
510 0.368048
515 0.216641
520 0.309106
525 0.646782
530 1.08571
535 35.6425
540 667.845
545 1119.91
550 311.42
555 37.0845
560 4.89843
565 1.17375
570 0.566544
575 0.423358
580 0.323201
585 0.379143
590 0.412478
595 0.401078
600 0.15705
Ex : 553
200 0.104295
205 0.167387
210 0.162
215 0.118166
220 0.107342
225 0.129771
230 0.102767
235 0.122019
240 0.239128
245 0.126557
250 0.0992656
255 0.114168
260 0.207747
265 0.20281
270 0.145461
275 0.201689
280 0.104516
285 0.250256
290 0.143442
295 0.191179
300 0.185445
305 0.199019
310 0.0799549
315 0.105583
320 0.114598
325 0.205476
330 0.0979252
335 0.181289
340 0.149281
345 0.121165
350 0.193912
355 0.208069
360 0.145546
365 0.131659
370 0.139362
375 0.169727
380 0.181419
385 0.101481
390 0.119521
395 0.152051
400 0.214487
405 0.131747
410 0.145643
415 0.228962
420 0.126036
425 0.142722
430 0.206557
435 0.205278
440 0.174636
445 0.173485
450 0.137461
455 0.169977
460 0.210761
465 0.219892
470 0.174616
475 0.198664
480 0.219999
485 0.12766
490 0.192894
495 0.345026
500 0.192186
505 0.205653
510 0.290466
515 0.240147
520 0.322562
525 0.401651
530 0.54185
535 0.983403
540 30.298
545 640.859
550 1104.73
555 313.206
560 37.3312
565 4.8963
570 1.00632
575 0.536133
580 0.294387
585 0.32865
590 0.354204
595 0.282124
600 1.16332
Ex : 558
200 0.141967
205 0.120369
210 0.170859
215 0.092864
220 0.131331
225 0.159403
230 0.1268
235 0.103347
240 0.0989557
245 0.0587614
250 0.162729
255 0.154649
260 0.121501
265 0.0793946
270 0.13806
275 0.0847353
280 0.154812
285 0.113586
290 0.127503
295 0.135817
300 0.101359
305 0.126463
310 0.156374
315 0.114832
320 0.130327
325 0.161221
330 0.167698
335 0.122714
340 0.115713
345 0.194923
350 0.179835
355 0.157042
360 0.152325
365 0.192382
370 0.190908
375 0.119332
380 0.195418
385 0.183719
390 0.196955
395 0.250617
400 0.19813
405 0.145796
410 0.119479
415 0.131499
420 0.2037
425 0.175079
430 0.193013
435 0.243806
440 0.117162
445 0.226351
450 0.12706
455 0.251694
460 0.1232
465 0.156466
470 0.173268
475 0.17619
480 0.19364
485 0.138481
490 0.256087
495 0.336828
500 0.200253
505 0.155318
510 0.191107
515 0.282373
520 0.251851
525 0.37047
530 0.334092
535 0.589806
540 1.01586
545 29.0511
550 601.058
555 1086.39
560 309.172
565 36.7738
570 4.82259
575 1.05948
580 0.668532
585 0.277776
590 0.325158
595 0.335586
600 0.340795
Ex : 563
200 0.140809
205 0.230008
210 0.15497
215 0.141273
220 0.190121
225 0.149095
230 0.13182
235 0.193014
240 0.171849
245 0.157722
250 0.102557
255 0.122546
260 0.109567
265 0.105718
270 0.105126
275 0.127046
280 0.102865
285 0.26991
290 0.254433
295 0.14764
300 0.118294
305 0.137857
310 0.123175
315 0.1829
320 0.126209
325 0.0645246
330 0.215409
335 0.168568
340 0.0892296
345 0.129955
350 0.164823
355 0.194232
360 0.127882
365 0.133492
370 0.118768
375 0.189267
380 0.1448
385 0.0843799
390 0.126816
395 0.0979826
400 0.215556
405 0.230537
410 0.154323
415 0.189046
420 0.100384
425 0.160165
430 0.128884
435 0.12793
440 0.181194
445 0.17514
450 0.111096
455 0.15863
460 0.131578
465 0.312808
470 0.157081
475 0.201777
480 0.193777
485 0.302024
490 0.226844
495 0.149198
500 0.180957
505 0.167429
510 0.254779
515 0.28106
520 0.222906
525 0.223234
530 0.368471
535 0.418851
540 0.615291
545 0.855119
550 29.5054
555 593.389
560 1051.8
565 301.89
570 35.7302
575 4.6548
580 0.971601
585 0.397285
590 0.303328
595 0.365677
600 0.120137
Ex : 568
200 0.165081
205 0.162317
210 0.186316
215 0.108493
220 0.180625
225 0.17842
230 0.268064
235 0.20824
240 0.13449
245 0.15957
250 0.23441
255 0.208259
260 0.0886371
265 0.192267
270 0.133099
275 0.189052
280 0.0872242
285 0.1558
290 0.174377
295 0.169831
300 0.282392
305 0.187821
310 0.112273
315 0.243972
320 0.13792
325 0.132047
330 0.213155
335 0.127494
340 0.147336
345 0.184986
350 0.297156
355 0.209392
360 0.167314
365 0.116743
370 0.198362
375 0.217308
380 0.217632
385 0.148939
390 0.194546
395 0.17794
400 0.220479
405 0.151357
410 0.137037
415 0.130602
420 0.163982
425 0.178673
430 0.216836
435 0.123447
440 0.161886
445 0.193099
450 0.187217
455 0.172282
460 0.181633
465 0.155607
470 0.202197
475 0.144079
480 0.124473
485 0.124974
490 0.229862
495 0.220367
500 0.216459
505 0.237782
510 0.241112
515 0.179159
520 0.177776
525 0.258002
530 0.28446
535 0.283735
540 0.580864
545 0.519682
550 0.943278
555 21.4494
560 532.142
565 1021.67
570 308.485
575 36.8709
580 4.69137
585 0.981489
590 0.4999
595 0.311831
600 0.0354852
Ex : 573
200 0.227738
205 0.130649
210 0.177357
215 0.0798853
220 0.118086
225 0.138524
230 0.118781
235 0.133453
240 0.149177
245 0.186524
250 0.137709
255 0.209325
260 0.1177
265 0.0920326
270 0.188788
275 0.15683
280 0.205166
285 0.201263
290 0.156504
295 0.107224
300 0.0883841
305 0.109983
310 0.100343
315 0.107243
320 0.151878
325 0.227627
330 0.0966403
335 0.19176
340 0.161853
345 0.242301
350 0.165927
355 0.203898
360 0.231579
365 0.192755
370 0.134673
375 0.189878
380 0.169968
385 0.174448
390 0.118957
395 0.156656
400 0.200944
405 0.120802
410 0.192199
415 0.24254
420 0.254103
425 0.116811
430 0.200778
435 0.133641
440 0.231321
445 0.212026
450 0.208824
455 0.140488
460 0.202081
465 0.239198
470 0.130119
475 0.175355
480 0.13135
485 0.192414
490 0.230332
495 0.134639
500 0.219029
505 0.145796
510 0.226886
515 0.197025
520 0.250266
525 0.242449
530 0.220547
535 0.153874
540 0.347496
545 0.370282
550 0.533879
555 0.637599
560 18.4755
565 467.181
570 941.158
575 292.471
580 35.1403
585 4.58781
590 0.901756
595 0.49603
600 0.267727
Ex : 578
200 0.118746
205 0.127025
210 0.108658
215 0.285356
220 0.122836
225 0.152416
230 0.133426
235 0.144376
240 0.116571
245 0.217205
250 0.23339
255 0.27866
260 0.131145
265 0.165236
270 0.0962174
275 0.227825
280 0.121213
285 0.167922
290 0.142661
295 0.174968
300 0.198283
305 0.1359
310 0.111986
315 0.154164
320 0.176349
325 0.0924435
330 0.11996
335 0.212408
340 0.135128
345 0.139961
350 0.186558
355 0.182914
360 0.189297
365 0.139711
370 0.224306
375 0.236381
380 0.136876
385 0.173252
390 0.183029
395 0.125867
400 0.17291
405 0.180275
410 0.114739
415 0.162162
420 0.111087
425 0.190056
430 0.118722
435 0.144896
440 0.106023
445 0.117541
450 0.202863
455 0.201286
460 0.183809
465 0.12837
470 0.196647
475 0.137616
480 0.155587
485 0.203783
490 0.177325
495 0.275932
500 0.259161
505 0.219713
510 0.243718
515 0.219098
520 0.340034
525 0.184782
530 0.122061
535 0.25545
540 0.260739
545 0.24636
550 0.339161
555 0.526
560 0.70784
565 16.3201
570 421.625
575 833.406
580 253.19
585 30.3453
590 4.02236
595 0.893375
600 0.234292
Ex : 583
200 0.0745746
205 0.195744
210 0.13204
215 0.102916
220 0.116975
225 0.1692
230 0.118509
235 0.0978578
240 0.144156
245 0.13036
250 0.112668
255 0.152543
260 0.191224
265 0.130333
270 0.168464
275 0.0968452
280 0.132457
285 0.164892
290 0.218581
295 0.137845
300 0.0995062
305 0.127976
310 0.086571
315 0.10984
320 0.150652
325 0.149715
330 0.109059
335 0.153829
340 0.098491
345 0.0720567
350 0.187204
355 0.103928
360 0.0932446
365 0.0748889
370 0.115496
375 0.113746
380 0.161764
385 0.169216
390 0.188649
395 0.117801
400 0.198678
405 0.17343
410 0.0947083
415 0.136846
420 0.164287
425 0.176967
430 0.106667
435 0.183959
440 0.151886
445 0.141131
450 0.168721
455 0.245086
460 0.22164
465 0.236897
470 0.197902
475 0.17518
480 0.199462
485 0.168156
490 0.257735
495 0.278323
500 0.190253
505 0.160706
510 0.152164
515 0.183545
520 0.179628
525 0.229924
530 0.183348
535 0.284093
540 0.231419
545 0.253528
550 0.334146
555 0.39343
560 0.429552
565 0.644456
570 13.9157
575 368.848
580 708.737
585 208.347
590 24.8032
595 3.24934
600 0.565993
Ex : 588
200 0.140633
205 0.139939
210 0.0742982
215 0.106527
220 0.150268
225 0.190214
230 0.234372
235 0.237525
240 0.142105
245 0.125656
250 0.175737
255 0.118863
260 0.143135
265 0.166332
270 0.215828
275 0.0970426
280 0.133342
285 0.0968729
290 0.0833763
295 0.0925502
300 0.173715
305 0.171143
310 0.219417
315 0.100665
320 0.164786
325 0.227879
330 0.276163
335 0.127896
340 0.183281
345 0.129923
350 0.155841
355 0.255759
360 0.16292
365 0.0768406
370 0.147315
375 0.131634
380 0.167291
385 0.10941
390 0.153374
395 0.151208
400 0.180277
405 0.125598
410 0.281128
415 0.199132
420 0.231034
425 0.194821
430 0.142315
435 0.252887
440 0.232549
445 0.17731
450 0.243842
455 0.13781
460 0.190575
465 0.17698
470 0.112632
475 0.178225
480 0.152594
485 0.144844
490 0.150104
495 0.199052
500 0.355423
505 0.186034
510 0.301985
515 0.181273
520 0.243068
525 0.213263
530 0.305147
535 0.181658
540 0.163514
545 0.232685
550 0.225068
555 0.252244
560 0.343734
565 0.398739
570 0.649892
575 12.3044
580 311.963
585 606.332
590 184.894
595 22.1318
600 3.14784
Ex : 593
200 0.159091
205 0.083337
210 0.141916
215 0.141453
220 0.164708
225 0.123779
230 0.0988698
235 0.230623
240 0.129471
245 0.160827
250 0.130489
255 0.210104
260 0.236591
265 0.220388
270 0.183709
275 0.199305
280 0.215032
285 0.160561
290 0.18047
295 0.224848
300 0.181236
305 0.14787
310 0.12303
315 0.124412
320 0.066609
325 0.115847
330 0.119624
335 0.107323
340 0.212094
345 0.157179
350 0.109874
355 0.0883437
360 0.170494
365 0.116529
370 0.0892071
375 0.110374
380 0.112099
385 0.10995
390 0.169062
395 0.104695
400 0.14474
405 0.168938
410 0.102387
415 0.130331
420 0.176544
425 0.256486
430 0.132342
435 0.187645
440 0.264215
445 0.0941935
450 0.140027
455 0.261612
460 0.155105
465 0.223546
470 0.144615
475 0.20119
480 0.138886
485 0.23106
490 0.178118
495 0.164318
500 0.150388
505 0.264223
510 0.202742
515 0.267112
520 0.161728
525 0.281085
530 0.104349
535 0.217074
540 0.219011
545 0.168975
550 0.273026
555 0.246053
560 0.379278
565 0.347657
570 0.43193
575 0.460408
580 11.0072
585 274.644
590 514.848
595 158.112
600 21.3134
Ex : 598
200 0.384702
205 0.194757
210 0.170342
215 0.257775
220 0.142172
225 0.112831
230 0.155644
235 0.167161
240 0.228056
245 0.117171
250 0.145199
255 0.155446
260 0.1264
265 0.155704
270 0.247713
275 0.162136
280 0.118191
285 0.159577
290 0.197927
295 0.207874
300 0.173797
305 0.162752
310 0.0974692
315 0.101924
320 0.221471
325 0.215309
330 0.0971326
335 0.196456
340 0.154441
345 0.082956
350 0.14315
355 0.119717
360 0.182504
365 0.136983
370 0.251315
375 0.182162
380 0.116394
385 0.197787
390 0.150049
395 0.0920628
400 0.149807
405 0.159734
410 0.113947
415 0.142952
420 0.187616
425 0.159788
430 0.206655
435 0.16455
440 0.192722
445 0.189427
450 0.210638
455 0.243958
460 0.171689
465 0.200871
470 0.19399
475 0.170594
480 0.231262
485 0.238404
490 0.256256
495 0.313736
500 0.15421
505 0.109225
510 0.227956
515 0.194854
520 0.282851
525 0.241222
530 0.181243
535 0.217784
540 0.212019
545 0.307476
550 0.171186
555 0.206422
560 0.229779
565 0.338986
570 0.370923
575 0.475207
580 0.399187
585 10.9031
590 253.749
595 458.606
600 292.504
Ex : 603
200 0.253781
205 0.225425
210 0.205175
215 0.216986
220 0.126595
225 0.111762
230 0.242612
235 0.18408
240 0.0891306
245 0.259305
250 0.242561
255 0.186723
260 0.0940581
265 0.0906259
270 0.12726
275 0.137263
280 0.112376
285 0.063858
290 0.122614
295 0.0855743
300 0.167733
305 0.251609
310 0.246718
315 0.0703258
320 0.310905
325 0.15508
330 0.225811
335 0.113405
340 0.0851337
345 0.176192
350 0.196198
355 0.0940009
360 0.221632
365 0.17781
370 0.165943
375 0.0831751
380 0.263345
385 0.180673
390 0.265959
395 0.141173
400 0.144951
405 0.272677
410 0.234268
415 0.149388
420 0.166749
425 0.179895
430 0.198456
435 0.190536
440 0.240415
445 0.266026
450 0.164824
455 0.175986
460 0.160914
465 0.155611
470 0.207821
475 0.258646
480 0.114337
485 0.153021
490 0.202345
495 0.275752
500 0.170024
505 0.129223
510 0.155328
515 0.206999
520 0.152776
525 0.129428
530 0.278976
535 0.193799
540 0.134958
545 0.271353
550 0.227794
555 0.175616
560 0.163426
565 0.323695
570 0.296928
575 0.273446
580 0.36421
585 0.452879
590 9.35554
595 215.212
600 425.716
