File format V 1.0
jeu. 5. janv. 20:43:50 2017
Operator : 
Comments : 

=============================================
SpectroFluorometer parameters
Mode : 3D measurement
Data : Fluorescence
Phospho. : Ordinary
Spectrum : Fluorescence

Scan speed : 2400 nm/mn
Response : 100 ms
PM Voltage : 700 V
Shutter : On

Lambda Ex. Start : 203
Lambda Ex. End : 603
Lambda Ex. Step : 5
Ex. Slit : 5 nm

Lambda Em. Start : 200
Lambda Em. End : 600
Lambda Em. Step : 5
Em. Slit : 5 nm

Repetition : 1
Decal lambda em : 10
=============================================
DATA
Ex : 203
200 6.01124
205 3.18698
210 5.61402
215 7.39062
220 2.99986
225 5.2738
230 3.55617
235 4.85143
240 3.72062
245 3.14765
250 2.80691
255 5.3618
260 8.01024
265 5.03756
270 3.48584
275 3.90867
280 6.84645
285 3.8592
290 2.62144
295 2.67648
300 3.4861
305 2.44984
310 2.33565
315 2.51234
320 4.39013
325 4.10729
330 5.02339
335 4.84055
340 4.84058
345 7.33276
350 5.27118
355 4.8751
360 4.76424
365 7.12538
370 7.0678
375 3.98763
380 5.18203
385 5.45576
390 7.37131
395 5.44824
400 10.1945
405 4.86603
410 6.33333
415 4.90494
420 3.34996
425 5.03233
430 4.56626
435 3.76156
440 3.79188
445 2.9461
450 4.62425
455 2.71289
460 3.2798
465 9.41569
470 8.57055
475 2.73021
480 3.13255
485 5.9367
490 5.38103
495 6.70987
500 2.97291
505 3.71987
510 6.34476
515 4.99412
520 7.58594
525 9.40035
530 4.82037
535 3.28148
540 2.70931
545 6.32183
550 5.0925
555 5.87947
560 6.16352
565 5.5172
570 3.43593
575 5.44129
580 4.51296
585 7.19701
590 3.65823
595 5.92859
600 0.674651
Ex : 208
200 4.24699
205 5.03771
210 3.16529
215 3.77916
220 3.51801
225 4.4873
230 2.35737
235 6.11941
240 7.45699
245 5.35298
250 3.4811
255 4.62761
260 3.72008
265 4.77424
270 3.84161
275 6.72004
280 2.62449
285 3.12377
290 6.28087
295 2.9524
300 5.60655
305 8.52738
310 5.08123
315 5.7891
320 3.99776
325 4.60008
330 5.3218
335 6.16142
340 3.96425
345 5.21313
350 4.85571
355 2.28668
360 3.36193
365 5.9377
370 6.69034
375 3.69305
380 5.6738
385 5.0656
390 8.87608
395 4.53365
400 7.08586
405 2.33517
410 6.62139
415 5.62479
420 4.34452
425 6.02898
430 5.56295
435 4.73458
440 4.13317
445 4.75735
450 4.4864
455 8.76652
460 7.84906
465 9.0234
470 4.69824
475 5.29002
480 5.36345
485 4.09815
490 7.8069
495 8.51387
500 6.16572
505 3.89302
510 3.8337
515 6.44808
520 13.5837
525 10.1256
530 5.21402
535 7.47976
540 8.37282
545 7.82361
550 4.11823
555 4.74161
560 4.47768
565 3.52148
570 3.22584
575 3.86646
580 4.40344
585 4.19174
590 3.41329
595 6.90462
600 0.78572
Ex : 213
200 4.62581
205 4.63724
210 8.10665
215 5.05429
220 5.25559
225 5.25064
230 6.34601
235 4.44739
240 6.19077
245 5.07261
250 3.1399
255 8.70848
260 5.36108
265 3.74421
270 3.44247
275 5.17152
280 3.28662
285 2.44902
290 6.61123
295 6.03411
300 4.42483
305 3.57338
310 3.91117
315 5.62419
320 3.9156
325 5.10383
330 5.27177
335 4.79974
340 6.61028
345 8.65241
350 4.09208
355 5.37523
360 3.05618
365 3.26278
370 8.61299
375 11.3875
380 7.70708
385 6.27084
390 4.64164
395 7.10245
400 6.74346
405 6.38191
410 7.93218
415 8.52513
420 6.53793
425 8.16388
430 5.69657
435 6.78998
440 6.35307
445 6.02335
450 4.56328
455 4.09632
460 6.58364
465 5.3328
470 6.36452
475 4.91624
480 8.26557
485 5.22481
490 4.03961
495 3.40334
500 5.70451
505 4.54049
510 5.97352
515 7.18593
520 4.1063
525 4.46335
530 6.45814
535 9.93961
540 5.74174
545 4.26069
550 6.35325
555 4.03728
560 7.13168
565 4.63159
570 4.80649
575 8.20309
580 7.85159
585 3.53578
590 3.7628
595 8.16498
600 0.929144
Ex : 218
200 3.96341
205 3.80956
210 3.395
215 7.24859
220 5.57969
225 4.62286
230 2.91116
235 8.26657
240 4.96617
245 4.14339
250 5.5025
255 5.22193
260 8.86938
265 3.99441
270 5.04166
275 5.16241
280 2.94705
285 3.75908
290 4.5503
295 3.12271
300 5.19782
305 3.1903
310 4.93318
315 5.90008
320 5.39236
325 6.81152
330 6.45024
335 5.56947
340 7.19057
345 7.63866
350 4.88022
355 3.65706
360 3.78156
365 3.94892
370 5.84189
375 3.43491
380 5.5622
385 7.13548
390 4.87751
395 3.19764
400 6.36197
405 4.2854
410 3.74744
415 4.78848
420 4.53283
425 3.28979
430 7.77034
435 7.33351
440 6.69239
445 5.88248
450 4.074
455 3.032
460 10.2319
465 11.1482
470 5.23465
475 3.54258
480 6.6236
485 5.89161
490 3.47123
495 3.82095
500 6.65475
505 5.26986
510 4.90244
515 5.98451
520 4.83218
525 5.8228
530 6.99347
535 8.20926
540 11.9663
545 5.48373
550 2.66751
555 5.8099
560 4.94534
565 3.57079
570 6.81343
575 4.95083
580 4.25416
585 6.90355
590 3.82951
595 5.47202
600 0.622695
Ex : 223
200 3.60234
205 5.64659
210 5.31096
215 3.30757
220 3.88115
225 2.6892
230 4.79953
235 3.08919
240 2.58366
245 4.68875
250 7.87315
255 6.94454
260 4.03094
265 2.23111
270 8.474
275 7.80777
280 6.0956
285 5.90079
290 4.88962
295 5.19366
300 4.98278
305 6.86641
310 5.04236
315 5.70924
320 7.18404
325 11.6106
330 7.20654
335 2.98394
340 3.35567
345 4.47655
350 9.19313
355 7.68676
360 3.19773
365 4.60982
370 4.89879
375 4.03411
380 4.07817
385 3.39377
390 6.36527
395 2.79762
400 5.10697
405 11.5364
410 5.02345
415 4.26588
420 4.59025
425 4.03351
430 4.8372
435 9.49306
440 7.18468
445 9.14378
450 8.02004
455 6.28294
460 5.30712
465 8.99221
470 8.28374
475 3.23571
480 3.71258
485 7.28001
490 6.71996
495 4.05957
500 6.24444
505 3.97056
510 2.6266
515 3.56414
520 5.91788
525 4.25255
530 6.34819
535 4.82953
540 4.64131
545 7.64009
550 5.33608
555 2.97385
560 6.82885
565 4.49802
570 4.38396
575 6.12309
580 5.93627
585 6.05043
590 3.96923
595 3.33311
600 5.69652
Ex : 228
200 3.37079
205 6.27015
210 4.0821
215 5.69883
220 7.67192
225 5.38697
230 6.35788
235 4.10621
240 4.01739
245 3.28906
250 6.94168
255 4.99686
260 3.06935
265 2.95403
270 4.56058
275 3.26811
280 4.37233
285 5.71845
290 3.50962
295 3.85356
300 2.54387
305 3.67364
310 5.182
315 3.86183
320 4.6675
325 7.39005
330 4.77964
335 3.36868
340 3.54836
345 5.08801
350 4.44067
355 5.29186
360 7.54768
365 8.84013
370 5.10663
375 5.32623
380 4.00814
385 3.67633
390 3.66116
395 3.99165
400 8.0391
405 5.40219
410 5.77715
415 6.30509
420 4.12713
425 2.44578
430 5.63269
435 2.61789
440 2.72252
445 4.57372
450 6.64029
455 5.13508
460 5.69194
465 4.33165
470 5.86858
475 5.23251
480 4.9083
485 6.96893
490 3.29903
495 6.36968
500 3.25481
505 4.93216
510 5.16851
515 3.45587
520 5.70508
525 7.49625
530 6.32697
535 5.90126
540 4.31368
545 6.97283
550 4.42423
555 4.45613
560 5.21079
565 4.87863
570 2.39341
575 7.29616
580 4.77649
585 3.37165
590 5.7009
595 3.10831
600 6.77869
Ex : 233
200 3.3198
205 3.32178
210 2.71392
215 5.85105
220 3.50982
225 4.95018
230 5.7572
235 2.30286
240 3.23819
245 3.47477
250 3.35108
255 3.5573
260 6.85948
265 5.54035
270 3.62779
275 2.46134
280 2.32625
285 2.58422
290 2.18904
295 4.13263
300 6.15183
305 5.56485
310 3.49785
315 4.0729
320 2.11773
325 4.37142
330 5.15945
335 3.75627
340 5.86922
345 5.45532
350 3.67889
355 2.27784
360 7.06383
365 4.75147
370 4.3428
375 7.5933
380 4.56303
385 4.66917
390 5.14143
395 5.70488
400 3.67451
405 4.7777
410 7.65639
415 8.22929
420 7.58544
425 4.04696
430 3.09829
435 5.63644
440 3.91887
445 8.39834
450 5.04182
455 5.51978
460 3.74559
465 3.31852
470 6.99703
475 3.08994
480 4.64971
485 3.36141
490 2.21431
495 4.38923
500 8.18316
505 4.32753
510 4.05633
515 4.8233
520 3.71729
525 5.25942
530 8.26128
535 5.37985
540 3.56138
545 6.46711
550 4.20731
555 2.99746
560 6.08151
565 3.71341
570 8.0895
575 6.84201
580 3.65404
585 5.05096
590 5.50521
595 3.27124
600 23.4136
Ex : 238
200 3.89474
205 1.38129
210 3.14967
215 4.86365
220 3.03484
225 3.91255
230 2.8762
235 3.56216
240 6.22521
245 3.79887
250 4.16322
255 3.02009
260 2.74847
265 6.85909
270 5.22404
275 3.30349
280 2.98365
285 3.76496
290 4.35892
295 5.02123
300 2.14826
305 2.52146
310 4.65753
315 2.53202
320 4.5213
325 3.01043
330 5.96786
335 3.57758
340 3.93093
345 6.19921
350 5.96411
355 3.58462
360 5.44768
365 5.58185
370 6.27631
375 6.63528
380 4.18485
385 3.58211
390 3.66257
395 6.56596
400 3.05563
405 4.19248
410 2.83276
415 6.7343
420 5.06667
425 3.8641
430 3.4788
435 3.07186
440 6.72834
445 5.83313
450 7.50611
455 3.57243
460 3.15887
465 5.35957
470 4.61933
475 3.47967
480 7.1202
485 3.79925
490 8.08365
495 3.3675
500 3.83606
505 5.05904
510 3.64014
515 3.99504
520 3.72091
525 5.44228
530 5.45026
535 6.13197
540 5.73835
545 2.9828
550 2.54454
555 2.94817
560 3.3461
565 3.89927
570 4.91818
575 3.11586
580 3.68003
585 3.52862
590 4.4841
595 3.99711
600 0.454856
Ex : 243
200 2.43388
205 2.76118
210 6.00772
215 3.62119
220 2.60001
225 5.16815
230 3.59898
235 3.55881
240 2.83288
245 3.19884
250 4.18208
255 2.88025
260 2.5829
265 2.24624
270 3.04293
275 3.52464
280 4.16382
285 2.50455
290 3.71258
295 3.37768
300 1.6029
305 3.31957
310 5.95648
315 2.23739
320 4.58588
325 4.77957
330 6.39678
335 4.28022
340 3.79962
345 5.0921
350 3.16211
355 2.53375
360 3.41833
365 4.55079
370 3.77106
375 3.75615
380 3.19594
385 2.39442
390 5.33909
395 4.30133
400 6.30806
405 5.51033
410 5.66689
415 4.52471
420 4.40498
425 5.30982
430 6.27289
435 2.98892
440 2.41168
445 3.28526
450 3.48722
455 4.92008
460 3.42878
465 4.45651
470 3.64652
475 4.33611
480 4.78896
485 3.44015
490 6.26532
495 4.15083
500 2.91408
505 3.36375
510 3.53046
515 2.96609
520 2.71648
525 2.76824
530 4.88474
535 4.26181
540 3.16261
545 4.90883
550 2.90466
555 4.42396
560 2.31307
565 1.85294
570 3.70196
575 2.09521
580 6.46287
585 3.35186
590 3.88837
595 4.34248
600 0.494158
Ex : 248
200 4.30389
205 2.9899
210 2.65003
215 2.87125
220 1.9219
225 3.73544
230 3.15579
235 2.67448
240 3.02537
245 2.56598
250 3.06961
255 3.00172
260 2.30074
265 2.55832
270 4.04575
275 4.20011
280 3.29602
285 5.00989
290 3.04891
295 1.86258
300 1.39045
305 3.79386
310 3.1568
315 1.55465
320 1.71787
325 2.87924
330 3.36879
335 2.33901
340 4.01475
345 2.33928
350 3.28816
355 4.8052
360 2.99087
365 2.77276
370 4.46099
375 2.36353
380 2.01027
385 5.20344
390 3.29338
395 3.21501
400 3.5255
405 3.00517
410 3.26012
415 2.31235
420 2.80574
425 3.42733
430 2.42268
435 4.08042
440 3.74551
445 2.7117
450 3.32532
455 3.01912
460 3.85269
465 3.23027
470 2.75609
475 2.89478
480 2.71046
485 3.21685
490 3.36156
495 3.6229
500 3.47627
505 2.67531
510 4.92601
515 2.43381
520 2.22221
525 3.13592
530 2.04001
535 3.65737
540 2.23942
545 2.32368
550 2.41618
555 2.8561
560 2.48273
565 4.89261
570 3.91484
575 3.00149
580 1.70425
585 5.14988
590 2.11675
595 1.2001
600 0.136567
Ex : 253
200 3.53409
205 2.30725
210 1.61439
215 4.4563
220 2.3386
225 3.24722
230 2.00402
235 2.25965
240 1.99113
245 2.88519
250 2.83055
255 3.03497
260 2.03469
265 2.20309
270 3.31662
275 2.78575
280 2.31692
285 2.85506
290 4.62453
295 2.82629
300 1.19787
305 1.83487
310 1.82078
315 1.41731
320 2.15851
325 1.99995
330 2.23051
335 3.03518
340 1.97652
345 2.67607
350 3.60811
355 2.55438
360 1.77869
365 3.23934
370 4.40523
375 2.22651
380 1.75387
385 2.63083
390 1.75022
395 4.13185
400 1.36635
405 2.86262
410 3.5641
415 2.18817
420 2.5506
425 2.00274
430 1.3941
435 1.88308
440 2.82092
445 2.29301
450 3.11621
455 3.77283
460 3.40782
465 1.74471
470 2.97664
475 3.68143
480 2.12532
485 2.49719
490 3.31645
495 2.61122
500 2.85448
505 3.54942
510 4.09042
515 2.15939
520 2.49044
525 2.14947
530 3.95772
535 2.26076
540 3.19774
545 2.60119
550 1.83702
555 2.19912
560 2.45057
565 4.46
570 3.04645
575 3.07659
580 2.407
585 2.47911
590 1.89553
595 2.75939
600 0.314008
Ex : 258
200 2.87557
205 1.23811
210 2.14829
215 1.6337
220 1.25816
225 4.37297
230 1.34565
235 1.77912
240 1.31812
245 1.74718
250 3.15874
255 1.74736
260 2.81717
265 1.81969
270 2.231
275 1.38215
280 0.972274
285 2.00965
290 1.24236
295 3.06644
300 1.57723
305 1.16548
310 1.45789
315 1.61605
320 1.61639
325 1.66229
330 2.0741
335 1.76842
340 1.7873
345 2.73858
350 1.74926
355 1.52435
360 1.60518
365 2.42909
370 2.43963
375 2.6279
380 3.07768
385 2.81258
390 1.28217
395 2.65749
400 2.40611
405 3.52942
410 2.23395
415 2.17977
420 1.64095
425 2.08923
430 1.64844
435 2.30948
440 2.92142
445 1.5617
450 1.58087
455 2.86113
460 2.1641
465 3.00041
470 2.07145
475 1.30278
480 1.88074
485 2.47579
490 1.88823
495 1.68577
500 3.1155
505 3.79006
510 1.92044
515 1.66326
520 1.5286
525 1.4704
530 2.52512
535 1.94547
540 1.74615
545 1.5646
550 1.78822
555 1.41874
560 3.27906
565 1.42121
570 2.25137
575 2.86411
580 2.35581
585 1.7265
590 1.83022
595 1.39387
600 0.158617
Ex : 263
200 1.13817
205 1.28523
210 1.69913
215 0.741881
220 1.12711
225 1.18826
230 1.43519
235 2.57611
240 1.00887
245 1.22894
250 1.65142
255 1.59121
260 1.33883
265 1.25363
270 1.98705
275 1.93757
280 1.70476
285 1.08956
290 0.754526
295 1.04228
300 1.59719
305 2.02606
310 1.48679
315 2.33547
320 2.91637
325 1.18036
330 1.23683
335 2.16154
340 1.58212
345 1.83638
350 1.58538
355 2.02967
360 2.83745
365 1.44097
370 1.62956
375 1.2384
380 1.5687
385 1.29211
390 1.33758
395 1.93065
400 1.62088
405 1.54507
410 2.29199
415 2.03956
420 1.5336
425 2.27416
430 1.39865
435 1.35842
440 1.92856
445 1.88798
450 1.00205
455 1.15303
460 2.04263
465 2.13256
470 1.78962
475 2.31411
480 1.56279
485 1.85142
490 1.20298
495 1.80361
500 1.89853
505 1.59891
510 1.63663
515 1.16971
520 2.02118
525 1.30701
530 1.67194
535 1.47669
540 1.78304
545 1.56459
550 2.12193
555 1.18788
560 1.13649
565 0.867832
570 1.57735
575 2.01564
580 0.788338
585 2.02492
590 1.39524
595 1.09046
600 1.6011
Ex : 268
200 0.712692
205 0.840705
210 1.59664
215 1.73224
220 1.26749
225 0.943312
230 1.07232
235 1.06665
240 1.54524
245 0.706842
250 1.49617
255 1.83079
260 1.2061
265 2.08294
270 1.20413
275 1.68547
280 0.789241
285 1.70973
290 1.31384
295 1.26276
300 1.11729
305 1.95953
310 0.98259
315 0.810264
320 0.800671
325 0.640659
330 1.66435
335 1.33438
340 2.05871
345 1.96037
350 2.18441
355 2.57979
360 1.69703
365 1.8824
370 1.70487
375 1.45514
380 2.2545
385 1.19063
390 1.11346
395 0.913755
400 1.84089
405 0.904211
410 1.63865
415 1.50896
420 2.18898
425 1.49823
430 1.57572
435 1.79695
440 1.7744
445 1.76071
450 1.35193
455 0.873433
460 1.19426
465 1.7269
470 1.54934
475 1.28593
480 1.09845
485 0.9503
490 0.993122
495 1.09124
500 1.319
505 0.938378
510 1.47438
515 2.11892
520 1.43744
525 1.79821
530 1.49491
535 1.33829
540 1.09619
545 1.06572
550 1.94224
555 1.02899
560 1.51656
565 1.6284
570 1.29213
575 1.11753
580 1.26939
585 0.982519
590 0.684431
595 1.35905
600 0.154655
Ex : 273
200 0.992239
205 0.771729
210 0.935537
215 1.08531
220 0.736801
225 1.18184
230 1.44817
235 0.745686
240 0.759964
245 0.859069
250 1.44374
255 0.834664
260 0.424143
265 1.43589
270 0.959582
275 0.80104
280 1.32825
285 0.665108
290 1.41797
295 0.336806
300 0.624771
305 1.33123
310 1.18124
315 0.595126
320 1.49353
325 0.714854
330 1.78118
335 1.05962
340 0.943195
345 1.0295
350 1.07092
355 0.935645
360 0.735036
365 1.12093
370 0.728374
375 1.21356
380 0.91975
385 0.963081
390 1.68836
395 1.24675
400 1.11488
405 1.39131
410 0.966898
415 1.28867
420 1.2095
425 0.660167
430 0.97457
435 1.37265
440 1.38187
445 0.901065
450 0.999695
455 1.64115
460 1.06793
465 1.60829
470 1.543
475 2.03957
480 1.10829
485 1.24766
490 0.920916
495 1.32629
500 1.24647
505 0.55514
510 1.53017
515 0.899022
520 1.58528
525 1.6945
530 1.75462
535 1.1106
540 2.20921
545 2.19665
550 0.667781
555 0.815161
560 1.03473
565 0.945071
570 0.554604
575 1.21397
580 0.977497
585 1.16423
590 1.28011
595 1.97889
600 0.35179
Ex : 278
200 1.09412
205 0.459893
210 0.620122
215 0.767573
220 0.338098
225 0.544413
230 0.911197
235 0.710724
240 0.660699
245 0.812323
250 0.579526
255 0.818144
260 0.453072
265 0.949957
270 0.672495
275 0.654592
280 0.464485
285 0.604111
290 0.544609
295 1.00661
300 0.590533
305 0.831085
310 0.530834
315 0.453553
320 0.515428
325 1.0591
330 0.810248
335 1.30648
340 0.872648
345 1.2496
350 1.36204
355 1.03056
360 0.980523
365 0.702109
370 1.20721
375 0.960625
380 0.893359
385 0.829154
390 0.748072
395 0.608868
400 0.542518
405 0.910472
410 1.33103
415 0.72197
420 1.75619
425 0.918062
430 1.3636
435 1.02606
440 1.26947
445 1.19217
450 0.724268
455 1.18854
460 1.0501
465 1.06348
470 1.37956
475 0.789875
480 1.12568
485 1.07575
490 0.798773
495 0.631973
500 0.457961
505 0.748124
510 0.940214
515 0.877464
520 0.653832
525 0.696856
530 0.626685
535 1.5904
540 0.628164
545 0.616777
550 0.823298
555 0.926258
560 0.827527
565 1.26099
570 0.681928
575 0.490074
580 0.693157
585 1.25363
590 0.867006
595 0.618325
600 0.070363
Ex : 283
200 0.475373
205 0.322703
210 0.303194
215 0.332802
220 0.52168
225 0.449295
230 0.581492
235 0.979818
240 0.515305
245 0.513052
250 0.996678
255 0.678229
260 0.603133
265 0.70826
270 0.930071
275 0.646733
280 0.777583
285 1.20949
290 0.676148
295 0.948499
300 0.766736
305 0.386454
310 0.308687
315 0.80236
320 0.584311
325 0.715392
330 0.568356
335 0.677845
340 0.848362
345 0.579619
350 0.779508
355 0.803232
360 0.583218
365 0.602649
370 1.13108
375 0.506295
380 0.899678
385 1.39811
390 0.644673
395 1.02501
400 0.751436
405 0.743563
410 0.827751
415 0.729486
420 0.67203
425 1.08273
430 0.961659
435 1.20493
440 0.606792
445 0.706177
450 0.768888
455 0.441575
460 0.727417
465 0.804869
470 0.334823
475 1.10288
480 0.888456
485 1.17106
490 0.74725
495 0.893737
500 0.564735
505 0.656184
510 0.580507
515 1.14279
520 1.26652
525 0.818092
530 0.399623
535 0.475251
540 0.405346
545 0.809698
550 1.11248
555 0.726203
560 1.12031
565 0.969246
570 0.477391
575 0.577131
580 0.923054
585 0.463451
590 0.657608
595 0.460312
600 5.6113
Ex : 288
200 0.407663
205 0.422221
210 0.374691
215 1.0117
220 0.720802
225 0.481464
230 0.691342
235 0.345208
240 0.473241
245 0.28312
250 0.4756
255 0.451096
260 0.260412
265 0.332662
270 0.5276
275 0.507899
280 0.459482
285 0.813499
290 0.464834
295 0.772618
300 0.846404
305 0.647369
310 0.447781
315 0.469008
320 0.662179
325 0.443254
330 0.762262
335 0.487524
340 0.80363
345 0.500988
350 0.590896
355 0.598851
360 0.379046
365 0.462157
370 0.489272
375 0.401431
380 0.845563
385 0.5332
390 0.976777
395 0.637965
400 0.5218
405 0.904429
410 0.746873
415 0.860836
420 0.687441
425 0.943705
430 0.492794
435 1.04827
440 0.763392
445 0.448794
450 0.778342
455 0.750846
460 0.503009
465 0.906612
470 0.880835
475 0.857364
480 0.998342
485 0.438173
490 0.877173
495 0.765887
500 0.860001
505 0.66848
510 0.385327
515 0.354299
520 0.624011
525 0.587218
530 0.560606
535 0.871411
540 0.564767
545 0.354196
550 0.685178
555 0.699095
560 0.57899
565 0.718526
570 0.922623
575 0.868825
580 0.537512
585 0.598396
590 0.771309
595 0.361181
600 0.450118
Ex : 293
200 0.239257
205 0.511569
210 0.370231
215 0.368426
220 0.796946
225 0.659144
230 0.426154
235 0.247429
240 0.362582
245 0.354855
250 0.471961
255 0.543011
260 0.550962
265 0.283772
270 0.446738
275 0.317172
280 0.279692
285 0.453373
290 0.372549
295 0.472429
300 0.820156
305 0.575557
310 0.423012
315 0.342901
320 0.485955
325 0.575545
330 0.377431
335 0.628315
340 0.498278
345 0.681466
350 0.380736
355 0.468381
360 0.669314
365 0.471946
370 0.99592
375 0.573586
380 0.591618
385 0.90578
390 1.00972
395 0.61954
400 0.931996
405 0.887127
410 0.842401
415 0.920551
420 0.687172
425 0.386401
430 0.528259
435 0.542854
440 0.689066
445 0.398565
450 0.4532
455 0.631667
460 0.65711
465 0.403499
470 0.659773
475 0.740561
480 0.558466
485 0.652445
490 0.577498
495 0.713291
500 0.641522
505 0.63037
510 0.376797
515 0.548737
520 1.05352
525 0.46526
530 0.373094
535 0.239074
540 0.415601
545 0.425305
550 0.4321
555 0.528392
560 0.288827
565 1.05015
570 0.44861
575 0.622702
580 0.497729
585 0.444949
590 0.651182
595 0.41701
600 0.0474541
Ex : 298
200 0.50994
205 0.284791
210 0.330274
215 0.417744
220 0.545976
225 0.292972
230 0.285773
235 0.257261
240 0.557764
245 0.177767
250 0.293632
255 0.266888
260 0.315821
265 0.238701
270 0.171285
275 0.594405
280 0.280971
285 0.502769
290 0.444721
295 0.471565
300 0.326847
305 0.238754
310 0.778309
315 0.257984
320 0.236776
325 0.482089
330 0.446208
335 0.515827
340 0.715374
345 0.525542
350 0.540352
355 0.713846
360 0.595272
365 0.655812
370 0.509253
375 0.538443
380 0.625521
385 0.759259
390 0.712827
395 0.734501
400 0.720645
405 0.977691
410 0.901332
415 0.760438
420 0.552271
425 0.619165
430 0.450496
435 0.445636
440 0.740625
445 0.541262
450 0.37656
455 0.64484
460 0.453948
465 0.53696
470 0.587365
475 0.860757
480 0.388124
485 0.391996
490 0.380117
495 0.267296
500 0.321959
505 0.737118
510 0.359681
515 0.520106
520 0.50208
525 0.405596
530 0.49295
535 0.358258
540 0.698658
545 0.285598
550 0.755771
555 0.387559
560 0.301773
565 0.28037
570 0.403432
575 0.337445
580 0.4677
585 0.838861
590 0.685156
595 0.46457
600 0.0528663
Ex : 303
200 0.298763
205 0.0896295
210 0.252343
215 0.221585
220 0.632278
225 0.45441
230 0.318613
235 0.395778
240 0.398588
245 0.393407
250 0.468327
255 0.434168
260 0.437143
265 0.30045
270 0.296322
275 0.586173
280 0.263678
285 0.213921
290 0.329477
295 0.351379
300 0.275115
305 0.324802
310 0.234718
315 0.365364
320 0.395917
325 0.221438
330 0.346308
335 0.629858
340 0.349568
345 0.622051
350 0.411933
355 0.551998
360 0.436028
365 0.53758
370 0.445065
375 0.681818
380 0.56909
385 0.430066
390 0.67521
395 0.504164
400 0.713411
405 0.361357
410 0.506325
415 0.549519
420 0.402779
425 0.456167
430 0.595578
435 0.997843
440 0.502922
445 0.576079
450 0.447436
455 0.375311
460 0.310879
465 0.333985
470 0.666797
475 0.422639
480 0.574797
485 0.489539
490 0.458688
495 0.407036
500 0.519677
505 0.327565
510 0.312794
515 0.400795
520 0.49014
525 0.305311
530 0.417763
535 0.217269
540 0.322031
545 0.309762
550 0.200166
555 0.377971
560 0.352542
565 0.235118
570 0.331865
575 0.162371
580 0.22731
585 0.284746
590 0.242881
595 0.330776
600 1.11586
Ex : 308
200 0.144907
205 0.19217
210 0.204687
215 0.434667
220 0.278944
225 0.389098
230 0.408798
235 0.346297
240 0.260881
245 0.183769
250 0.329387
255 0.411865
260 0.360525
265 0.336013
270 0.326026
275 0.286013
280 0.185833
285 0.196654
290 0.171526
295 0.322817
300 0.447148
305 0.447515
310 0.397337
315 0.38008
320 0.351915
325 0.423228
330 0.317658
335 0.764024
340 0.591287
345 0.363409
350 0.269652
355 0.398873
360 0.362315
365 0.450344
370 0.502276
375 0.517648
380 0.799526
385 0.559561
390 0.336739
395 0.419536
400 0.464614
405 0.921717
410 0.594261
415 0.485357
420 0.549054
425 0.590728
430 0.528832
435 0.376968
440 0.516558
445 0.352308
450 0.408772
455 0.493821
460 0.491501
465 0.439661
470 0.419489
475 0.437119
480 0.602756
485 0.354053
490 0.356279
495 0.249336
500 0.266967
505 0.343249
510 0.371815
515 0.233319
520 0.119264
525 0.268913
530 0.35619
535 0.417654
540 0.413588
545 0.250005
550 0.311215
555 0.341359
560 0.324507
565 0.214044
570 0.313977
575 0.278525
580 0.367755
585 0.28025
590 0.610161
595 0.176288
600 0.0200609
Ex : 313
200 0.193144
205 0.191549
210 0.220429
215 0.191487
220 0.313937
225 0.270829
230 0.273837
235 0.224984
240 0.19925
245 0.370982
250 0.295495
255 0.122521
260 0.248116
265 0.452999
270 0.296843
275 0.193329
280 0.265005
285 0.41719
290 0.222059
295 0.383615
300 0.299965
305 0.250222
310 0.614159
315 0.430844
320 0.225284
325 0.278876
330 0.554466
335 0.595092
340 0.452966
345 0.409399
350 0.431598
355 0.457922
360 0.518749
365 0.549069
370 0.484095
375 0.555606
380 0.466243
385 0.630779
390 0.741544
395 0.726923
400 0.815287
405 0.736644
410 0.858949
415 0.873105
420 0.835429
425 0.8378
430 0.666435
435 0.838499
440 0.762383
445 0.591022
450 0.517974
455 0.555676
460 0.771153
465 0.731137
470 0.579095
475 0.544898
480 0.485939
485 0.370108
490 0.286409
495 0.378075
500 0.425502
505 0.429586
510 0.344287
515 0.517679
520 0.626814
525 0.372294
530 0.285879
535 0.267396
540 0.18905
545 0.155151
550 0.432175
555 0.249061
560 0.238596
565 0.238075
570 0.423235
575 0.471607
580 0.309088
585 0.443519
590 0.25424
595 0.193826
600 0.26065
Ex : 318
200 0.252017
205 0.123047
210 0.16784
215 0.244586
220 0.300214
225 0.185649
230 0.147347
235 0.176702
240 0.233156
245 0.332095
250 0.161144
255 0.183685
260 0.29907
265 0.215252
270 0.470256
275 0.294109
280 0.244008
285 0.201107
290 0.270906
295 0.196645
300 0.207236
305 0.493744
310 0.431721
315 1.13428
320 0.904262
325 0.669331
330 0.655899
335 0.895367
340 1.00922
345 1.12664
350 1.70422
355 2.33761
360 2.84088
365 3.48981
370 4.37999
375 5.14393
380 6.14667
385 7.03749
390 7.47201
395 7.94423
400 8.00658
405 8.01109
410 8.41495
415 8.68837
420 8.12449
425 7.45708
430 6.76948
435 6.41977
440 6.43923
445 6.11708
450 5.55354
455 5.78495
460 5.32976
465 4.8989
470 4.60383
475 3.98592
480 3.5685
485 3.74109
490 2.83161
495 2.88767
500 2.25405
505 1.75086
510 1.65736
515 1.32979
520 1.35324
525 0.913839
530 0.772544
535 0.706391
540 0.675466
545 0.780488
550 0.6039
555 0.464215
560 0.321504
565 0.400984
570 0.364935
575 0.316599
580 0.345197
585 0.271959
590 0.260981
595 0.218247
600 0.0443127
Ex : 323
200 0.292771
205 0.357808
210 0.150046
215 0.178791
220 0.264526
225 0.218176
230 0.299536
235 0.174159
240 0.286152
245 0.162717
250 0.235498
255 0.156629
260 0.162423
265 0.223124
270 0.186519
275 0.239469
280 0.158167
285 0.207227
290 0.149199
295 0.229702
300 0.275263
305 0.18297
310 0.279639
315 11.7667
320 52.169
325 21.405
330 4.11505
335 2.93417
340 3.8632
345 5.3482
350 8.60859
355 11.7563
360 14.2126
365 17.0195
370 19.4648
375 21.9433
380 26.3703
385 28.5342
390 30.6834
395 32.0719
400 33.7585
405 33.7052
410 35.7234
415 34.5072
420 33.0911
425 31.5887
430 31.1337
435 29.8607
440 27.4035
445 26.6449
450 25.511
455 23.8521
460 21.7428
465 19.7978
470 17.8289
475 16.5119
480 15.9125
485 13.901
490 12.4062
495 11.2881
500 9.42736
505 8.26109
510 7.11315
515 6.36361
520 5.84876
525 4.54867
530 4.10907
535 3.46934
540 2.74474
545 2.48552
550 2.10992
555 1.6347
560 1.57792
565 1.47564
570 1.02184
575 0.796168
580 0.627779
585 0.476359
590 0.325135
595 0.203809
600 0.0231927
Ex : 328
200 0.234555
205 0.296875
210 0.339377
215 0.180952
220 0.198218
225 0.226489
230 0.262707
235 0.193092
240 0.201601
245 0.1457
250 0.246773
255 0.273153
260 0.246792
265 0.168152
270 0.149334
275 0.169262
280 0.227735
285 0.119078
290 0.197068
295 0.151696
300 0.115515
305 0.184786
310 0.157854
315 2.77249
320 122.566
325 282.435
330 82.9027
335 13.2767
340 6.71738
345 7.24999
350 8.9464
355 13.099
360 17.0566
365 19.7887
370 22.4478
375 24.4524
380 28.0109
385 32.2692
390 35.1705
395 35.486
400 36.4754
405 38.3334
410 38.4914
415 36.877
420 36.8658
425 34.7208
430 32.9684
435 31.45
440 30.3337
445 29.366
450 27.3087
455 25.7275
460 24.3085
465 21.4748
470 19.8405
475 18.0935
480 16.6651
485 14.8766
490 13.4866
495 11.3129
500 10.5964
505 9.42225
510 7.9713
515 7.31251
520 6.27744
525 5.27766
530 4.47405
535 3.8434
540 3.27345
545 2.87502
550 2.56141
555 1.9487
560 1.90664
565 1.59651
570 1.31862
575 1.00254
580 0.74989
585 0.570376
590 0.640179
595 0.424386
600 0.539734
Ex : 333
200 0.199181
205 0.149615
210 0.146979
215 0.202676
220 0.259746
225 0.254377
230 0.179637
235 0.209297
240 0.317601
245 0.143315
250 0.12523
255 0.254348
260 0.220117
265 0.239733
270 0.245151
275 0.177293
280 0.162079
285 0.171634
290 0.196562
295 0.129119
300 0.161897
305 0.235328
310 0.260979
315 0.376155
320 16.5521
325 322.22
330 541.591
335 139.914
340 20.2951
345 7.122
350 6.17519
355 7.09033
360 10.0518
365 14.5051
370 15.1178
375 15.1055
380 16.085
385 18.0249
390 20.9889
395 22.2463
400 23.2832
405 22.7633
410 23.015
415 23.3934
420 22.0598
425 21.1763
430 19.5389
435 18.871
440 18.2936
445 17.2137
450 15.3897
455 14.6945
460 13.3706
465 12.2217
470 10.949
475 10.3294
480 9.59108
485 8.63382
490 7.66848
495 7.1134
500 6.27714
505 5.22653
510 4.77127
515 3.92939
520 3.24743
525 3.09914
530 2.41773
535 2.35907
540 2.19104
545 1.89708
550 1.67717
555 1.3919
560 1.21974
565 1.13646
570 0.814103
575 0.688705
580 0.682952
585 0.503179
590 0.409783
595 0.372005
600 0.327969
Ex : 338
200 0.227924
205 0.194184
210 0.191651
215 0.321936
220 0.150324
225 0.171948
230 0.115066
235 0.247068
240 0.147701
245 0.102666
250 0.153343
255 0.211836
260 0.147287
265 0.259434
270 0.18193
275 0.224908
280 0.149453
285 0.328406
290 0.271684
295 0.269565
300 0.159405
305 0.325637
310 0.217875
315 0.231775
320 0.641715
325 30.4938
330 477.311
335 705.12
340 172.074
345 23.1207
350 6.51064
355 4.34188
360 4.00639
365 5.78947
370 10.5132
375 10.4113
380 9.60111
385 10.3984
390 12.5127
395 13.5281
400 12.9364
405 13.5083
410 14.2766
415 15.1087
420 13.9862
425 12.8743
430 11.7496
435 11.1346
440 10.6968
445 10.6742
450 9.29563
455 8.70058
460 8.05993
465 7.27718
470 6.73272
475 6.05721
480 5.89663
485 5.46273
490 4.5226
495 4.28461
500 3.54266
505 3.30207
510 2.77113
515 2.85467
520 2.3714
525 2.05608
530 1.51093
535 1.53197
540 1.41232
545 1.25713
550 1.1227
555 1.01523
560 0.959752
565 0.808609
570 0.69795
575 0.537249
580 0.453435
585 0.432577
590 0.434785
595 0.377836
600 0.401387
Ex : 343
200 0.0850307
205 0.080907
210 0.0918228
215 0.195609
220 0.230253
225 0.258845
230 0.130078
235 0.106404
240 0.178154
245 0.167974
250 0.133431
255 0.164376
260 0.134051
265 0.116432
270 0.217336
275 0.163134
280 0.191383
285 0.211886
290 0.241023
295 0.301119
300 0.26696
305 0.225678
310 0.232996
315 0.186336
320 0.30635
325 0.542851
330 33.8312
335 539.195
340 787.717
345 186.05
350 24.4854
355 5.87296
360 3.24212
365 2.5362
370 3.35767
375 7.52526
380 9.39855
385 9.24508
390 10.4369
395 10.7034
400 10.3372
405 10.725
410 11.8131
415 12.3163
420 11.6268
425 10.6096
430 9.37973
435 9.76845
440 9.35988
445 8.9365
450 8.17809
455 7.15198
460 6.64746
465 6.54521
470 5.82128
475 5.21686
480 4.83055
485 4.64834
490 4.17482
495 4.00216
500 3.20577
505 2.7957
510 2.50764
515 2.41975
520 1.8597
525 1.78856
530 1.74585
535 1.40617
540 1.15137
545 1.21927
550 0.938267
555 0.92642
560 0.850863
565 0.910206
570 0.65845
575 0.549469
580 0.555199
585 0.396227
590 0.4749
595 0.293929
600 0.401192
Ex : 348
200 0.141199
205 0.190175
210 0.219634
215 0.154056
220 0.113011
225 0.119731
230 0.0878542
235 0.193673
240 0.175117
245 0.135932
250 0.158113
255 0.206945
260 0.226344
265 0.160925
270 0.162711
275 0.193758
280 0.180927
285 0.234532
290 0.235698
295 0.170065
300 0.154813
305 0.175558
310 0.262053
315 0.181088
320 0.282793
325 0.379089
330 0.910902
335 33.7037
340 535.936
345 817.337
350 207.394
355 26.6488
360 5.63984
365 2.9303
370 2.07208
375 2.81507
380 6.97856
385 11.7661
390 13.5409
395 12.9461
400 11.5862
405 11.6532
410 13.6718
415 14.8048
420 13.8892
425 11.8095
430 10.9433
435 10.979
440 10.6403
445 9.89945
450 9.15498
455 8.23895
460 7.65746
465 6.92592
470 6.10537
475 5.97471
480 5.45462
485 4.72625
490 4.15865
495 3.90242
500 3.62121
505 3.45825
510 2.98178
515 2.5709
520 2.03448
525 2.03137
530 1.73874
535 1.57337
540 1.27543
545 1.14764
550 1.13653
555 0.988432
560 0.859794
565 0.81141
570 0.678198
575 0.60385
580 0.454171
585 0.463713
590 0.366442
595 0.49904
600 2.51847
Ex : 353
200 0.117131
205 0.146621
210 0.141587
215 0.10103
220 0.145282
225 0.116475
230 0.121817
235 0.0919338
240 0.0815345
245 0.14766
250 0.230592
255 0.166589
260 0.135063
265 0.229583
270 0.173132
275 0.102424
280 0.126842
285 0.116915
290 0.149785
295 0.157636
300 0.225081
305 0.154093
310 0.205898
315 0.15453
320 0.203221
325 0.31144
330 0.453723
335 0.977506
340 35.2116
345 559.122
350 808.235
355 196.665
360 24.8462
365 5.09153
370 2.95834
375 2.2358
380 3.1348
385 8.57353
390 16.1109
395 15.8456
400 14.0194
405 12.6084
410 14.1408
415 16.1819
420 15.6298
425 13.7129
430 12.0244
435 11.7467
440 11.3934
445 11.2032
450 10.0463
455 8.59778
460 7.82319
465 7.61558
470 6.88637
475 6.09598
480 5.82515
485 5.54408
490 5.08853
495 4.29657
500 3.87729
505 3.53824
510 3.13052
515 2.72154
520 2.48427
525 2.21885
530 2.02243
535 1.79331
540 1.50121
545 1.32162
550 1.20469
555 0.990996
560 0.854927
565 0.769935
570 0.694384
575 0.596083
580 0.55645
585 0.38042
590 0.347778
595 0.369785
600 0.0930114
Ex : 358
200 0.14233
205 0.127979
210 0.120186
215 0.191236
220 0.169046
225 0.230043
230 0.194788
235 0.0859546
240 0.117741
245 0.133562
250 0.116954
255 0.0991035
260 0.140985
265 0.167945
270 0.142662
275 0.16502
280 0.102156
285 0.10062
290 0.166751
295 0.0858094
300 0.122142
305 0.110083
310 0.188602
315 0.25061
320 0.139692
325 0.280477
330 0.384342
335 0.47953
340 0.902252
345 32.975
350 532.155
355 814.536
360 202.739
365 25.4038
370 5.05636
375 2.93548
380 3.318
385 6.01985
390 11.3756
395 16.1298
400 14.7458
405 13.2163
410 14.0886
415 15.3317
420 14.9576
425 12.4914
430 11.3387
435 11.1315
440 11.4171
445 10.952
450 9.58446
455 8.80332
460 8.02441
465 7.64159
470 7.21004
475 6.55833
480 6.06965
485 5.51831
490 4.87139
495 4.53284
500 4.03794
505 3.75676
510 3.16864
515 2.82426
520 2.51546
525 2.2748
530 2.10768
535 1.68673
540 1.55491
545 1.43575
550 1.24346
555 1.16202
560 0.830166
565 0.767427
570 0.640838
575 0.581199
580 0.481268
585 0.345039
590 0.345504
595 0.325566
600 1.22965
Ex : 363
200 0.179432
205 0.0690772
210 0.119207
215 0.121437
220 0.14547
225 0.110597
230 0.106186
235 0.146302
240 0.0759623
245 0.103188
250 0.122743
255 0.0977177
260 0.0829311
265 0.15216
270 0.139679
275 0.0916984
280 0.177341
285 0.195208
290 0.13367
295 0.182658
300 0.182211
305 0.124441
310 0.189671
315 0.0990737
320 0.188132
325 0.136356
330 0.201883
335 0.29826
340 0.495145
345 0.897256
350 30.4814
355 516.954
360 811.799
365 207.929
370 26.0638
375 5.234
380 4.43954
385 7.90875
390 11.1944
395 12.9944
400 15.0657
405 17.1165
410 17.9665
415 17.5599
420 15.6654
425 14.0964
430 12.3881
435 12.3479
440 12.362
445 11.6224
450 10.6376
455 9.64901
460 8.8655
465 8.50427
470 7.93587
475 6.88815
480 6.63102
485 5.87217
490 5.43731
495 4.61528
500 4.38749
505 4.00251
510 3.60194
515 3.10572
520 2.5748
525 2.32003
530 2.05759
535 1.93773
540 1.76495
545 1.59427
550 1.26311
555 1.10988
560 1.1395
565 0.826819
570 0.797054
575 0.651498
580 0.523847
585 0.518225
590 0.3251
595 0.33872
600 0.415182
Ex : 368
200 0.120244
205 0.09778
210 0.135635
215 0.0995039
220 0.15125
225 0.114514
230 0.0935862
235 0.22149
240 0.149176
245 0.168743
250 0.112523
255 0.0660087
260 0.201474
265 0.148604
270 0.104286
275 0.101563
280 0.128205
285 0.152184
290 0.147501
295 0.159547
300 0.167544
305 0.202319
310 0.138598
315 0.112612
320 0.142615
325 0.172093
330 0.238601
335 0.284
340 0.379719
345 0.468684
350 0.80601
355 24.637
360 494.117
365 821.925
370 216.285
375 27.5966
380 7.07837
385 9.51221
390 14.2192
395 15.6595
400 14.738
405 17.992
410 23.5237
415 23.6664
420 21.1709
425 17.5417
430 15.4755
435 14.9713
440 15.2898
445 14.7688
450 12.9156
455 11.0405
460 10.1445
465 9.29994
470 9.13057
475 8.24742
480 7.63584
485 6.71833
490 5.67957
495 5.14525
500 4.89702
505 4.58603
510 3.78641
515 3.52841
520 3.00811
525 2.69567
530 2.48368
535 2.27498
540 1.95559
545 1.75609
550 1.43702
555 1.39121
560 1.1702
565 0.940843
570 0.716832
575 0.649116
580 0.544053
585 0.41394
590 0.318597
595 0.349866
600 0.177113
Ex : 373
200 0.0818191
205 0.123862
210 0.0684249
215 0.0824112
220 0.0772223
225 0.152694
230 0.153831
235 0.0901374
240 0.127982
245 0.121315
250 0.197048
255 0.0641028
260 0.118222
265 0.191122
270 0.0963786
275 0.104409
280 0.133409
285 0.090825
290 0.0772383
295 0.117445
300 0.111314
305 0.0695861
310 0.128973
315 0.0685503
320 0.132483
325 0.152671
330 0.274676
335 0.271146
340 0.281089
345 0.397979
350 0.460592
355 0.968179
360 29.3855
365 498.951
370 808.32
375 212.278
380 28.1332
385 9.79676
390 13.9494
395 17.173
400 15.199
405 14.2332
410 18.8753
415 24.463
420 22.8089
425 19.0607
430 15.549
435 14.5501
440 14.8392
445 14.9586
450 12.9991
455 11.213
460 9.7472
465 8.90106
470 8.42389
475 8.13129
480 7.4491
485 6.57195
490 5.74374
495 5.41688
500 4.82561
505 4.54719
510 4.20963
515 3.57116
520 3.05705
525 2.65407
530 2.31383
535 2.24396
540 1.8988
545 1.69482
550 1.46025
555 1.22462
560 1.05292
565 0.98474
570 0.834882
575 0.649854
580 0.58992
585 0.495221
590 0.306069
595 0.351424
600 0.0399908
Ex : 378
200 0.0718259
205 0.116609
210 0.101192
215 0.0818952
220 0.0796166
225 0.115167
230 0.149706
235 0.140365
240 0.154423
245 0.0964505
250 0.117925
255 0.0851876
260 0.0654084
265 0.131182
270 0.0894859
275 0.135623
280 0.101586
285 0.166568
290 0.163736
295 0.153836
300 0.0877435
305 0.138812
310 0.0922922
315 0.103028
320 0.0921105
325 0.117529
330 0.129331
335 0.136238
340 0.184676
345 0.311322
350 0.320518
355 0.469018
360 0.845067
365 26.8275
370 495.418
375 816.358
380 218.07
385 31.3357
390 13.1577
395 12.9201
400 11.5931
405 10.6349
410 12.7667
415 16.5388
420 18.5689
425 15.9219
430 13.197
435 12.3655
440 11.9514
445 11.277
450 10.4195
455 8.86284
460 8.01274
465 7.5833
470 7.41311
475 7.12481
480 6.40666
485 5.83774
490 5.28966
495 4.88864
500 4.525
505 4.24702
510 3.80825
515 3.42117
520 3.15526
525 2.66902
530 2.31799
535 1.96509
540 1.86185
545 1.78477
550 1.43785
555 1.32758
560 1.18501
565 0.907911
570 0.833559
575 0.655378
580 0.539564
585 0.382654
590 0.319811
595 0.322984
600 0.20661
Ex : 383
200 0.101359
205 0.0881675
210 0.149341
215 0.0880119
220 0.112781
225 0.13606
230 0.122146
235 0.0927557
240 0.085905
245 0.0739421
250 0.0899169
255 0.10168
260 0.0800433
265 0.0730232
270 0.185282
275 0.147529
280 0.122178
285 0.109684
290 0.102748
295 0.086617
300 0.0872977
305 0.0742737
310 0.124088
315 0.106724
320 0.108402
325 0.216325
330 0.136889
335 0.215596
340 0.217304
345 0.179884
350 0.274787
355 0.329484
360 0.541475
365 0.761217
370 24.9248
375 482.481
380 834.511
385 231.128
390 36.1147
395 14.0024
400 11.0262
405 11.2066
410 13.3865
415 14.7051
420 14.5574
425 15.2243
430 14.7708
435 13.1912
440 12.4423
445 11.413
450 10.2871
455 9.12356
460 8.46552
465 7.71952
470 7.45672
475 7.41763
480 6.71225
485 5.8562
490 5.19418
495 5.02
500 4.62441
505 4.20203
510 3.91093
515 3.21878
520 3.09822
525 2.71743
530 2.47719
535 2.16656
540 1.85005
545 1.65455
550 1.39923
555 1.19922
560 1.05808
565 0.979361
570 0.785335
575 0.674891
580 0.563188
585 0.397037
590 0.406791
595 0.294812
600 0.270105
Ex : 388
200 0.135108
205 0.142505
210 0.147434
215 0.0856356
220 0.064427
225 0.12671
230 0.106966
235 0.122765
240 0.128523
245 0.112815
250 0.115297
255 0.101418
260 0.0978014
265 0.0580461
270 0.113389
275 0.0760135
280 0.0749143
285 0.131189
290 0.120621
295 0.0832878
300 0.127131
305 0.0818117
310 0.113269
315 0.093771
320 0.179348
325 0.110672
330 0.111298
335 0.146365
340 0.167365
345 0.156885
350 0.240774
355 0.227347
360 0.28713
365 0.482421
370 1.00646
375 27.1426
380 496.705
385 833.494
390 230.392
395 39.4246
400 15.7637
405 13.9602
410 16.5666
415 18.3874
420 17.3747
425 15.5567
430 15.7273
435 16.6403
440 15.4552
445 13.9617
450 12.1591
455 10.4702
460 9.47502
465 9.00194
470 8.46073
475 7.95908
480 7.19636
485 6.40718
490 5.65586
495 5.40454
500 4.82181
505 4.50444
510 3.91763
515 3.70259
520 3.16537
525 2.97733
530 2.5587
535 2.44171
540 1.99595
545 1.91634
550 1.61151
555 1.42823
560 1.09677
565 1.00802
570 0.770126
575 0.639467
580 0.511464
585 0.40195
590 0.351596
595 0.333165
600 0.037913
Ex : 393
200 0.072793
205 0.0751567
210 0.0972948
215 0.117787
220 0.0841278
225 0.112756
230 0.0667754
235 0.0710523
240 0.0610489
245 0.104608
250 0.0580031
255 0.0671386
260 0.0990557
265 0.0706322
270 0.0819642
275 0.147359
280 0.0862616
285 0.115007
290 0.130325
295 0.075911
300 0.084411
305 0.118718
310 0.109654
315 0.0921645
320 0.138223
325 0.126399
330 0.15578
335 0.111587
340 0.102888
345 0.116211
350 0.225962
355 0.268488
360 0.236155
365 0.33345
370 0.438381
375 0.96677
380 23.5613
385 489.995
390 851.671
395 239.85
400 40.3148
405 15.764
410 15.38
415 18.7574
420 18.9177
425 16.0227
430 13.0162
435 13.9492
440 16.6938
445 15.3396
450 12.7402
455 10.5282
460 9.01891
465 8.24341
470 8.1881
475 7.75407
480 6.8811
485 6.11192
490 5.58234
495 4.99966
500 4.84978
505 4.48765
510 3.80313
515 3.5699
520 3.25486
525 2.65673
530 2.33179
535 2.23844
540 2.03121
545 1.66493
550 1.58241
555 1.2568
560 1.05726
565 0.993588
570 0.841443
575 0.662648
580 0.442403
585 0.385858
590 0.378324
595 0.321667
600 1.01525
Ex : 398
200 0.123859
205 0.0897125
210 0.0702229
215 0.143169
220 0.134588
225 0.0794003
230 0.0726794
235 0.0913386
240 0.101061
245 0.0849932
250 0.0696859
255 0.0583602
260 0.114415
265 0.0555578
270 0.108363
275 0.045892
280 0.0881323
285 0.0795608
290 0.0733837
295 0.0980352
300 0.0627796
305 0.0580363
310 0.0769207
315 0.124057
320 0.0800612
325 0.106745
330 0.0861987
335 0.123186
340 0.0985906
345 0.133064
350 0.169195
355 0.154206
360 0.211362
365 0.217882
370 0.398326
375 0.547842
380 1.04013
385 25.3764
390 495.209
395 846.29
400 230.776
405 33.7751
410 11.9935
415 11.8637
420 12.0091
425 10.2979
430 8.58511
435 8.13864
440 9.5413
445 11.5865
450 10.5092
455 8.52853
460 7.41157
465 6.62697
470 6.22012
475 5.95441
480 5.45109
485 5.13445
490 4.629
495 4.41777
500 4.2837
505 3.68442
510 3.40581
515 3.1905
520 2.7951
525 2.54625
530 2.28158
535 2.19668
540 1.72548
545 1.72547
550 1.47341
555 1.28422
560 1.02698
565 0.938199
570 0.83975
575 0.630888
580 0.385004
585 0.380467
590 0.282698
595 0.228266
600 0.668021
Ex : 403
200 0.0568887
205 0.0856095
210 0.108209
215 0.0879013
220 0.079266
225 0.0858255
230 0.121332
235 0.0550886
240 0.0722566
245 0.107047
250 0.0836036
255 0.079611
260 0.0748863
265 0.0972222
270 0.070957
275 0.109059
280 0.072812
285 0.125202
290 0.0836582
295 0.103184
300 0.0912768
305 0.0831698
310 0.0726086
315 0.121425
320 0.0922878
325 0.107358
330 0.109614
335 0.109309
340 0.0960885
345 0.11454
350 0.119127
355 0.151256
360 0.152871
365 0.154943
370 0.234466
375 0.271449
380 0.464955
385 1.18153
390 27.9835
395 509.409
400 842.067
405 228.367
410 30.6478
415 8.90124
420 6.44658
425 5.91787
430 5.22423
435 5.0832
440 5.44252
445 6.05431
450 7.60136
455 7.79194
460 6.45487
465 5.81087
470 5.07942
475 4.88087
480 4.50359
485 4.47283
490 4.15483
495 3.92496
500 3.72084
505 3.53125
510 3.25936
515 2.70107
520 2.58306
525 2.37723
530 2.14202
535 2.06046
540 1.88225
545 1.59317
550 1.53515
555 1.19155
560 0.957591
565 0.887446
570 0.743253
575 0.586891
580 0.511051
585 0.444204
590 0.290113
595 0.23944
600 0.167334
Ex : 408
200 0.10272
205 0.121976
210 0.0696242
215 0.117555
220 0.058425
225 0.111774
230 0.124601
235 0.140253
240 0.064393
245 0.0968744
250 0.0768434
255 0.108785
260 0.110032
265 0.0890612
270 0.0965262
275 0.0763225
280 0.1315
285 0.0919309
290 0.116861
295 0.083464
300 0.12849
305 0.0894958
310 0.0503542
315 0.0546656
320 0.100609
325 0.111454
330 0.0979395
335 0.0935505
340 0.119217
345 0.126629
350 0.116364
355 0.133489
360 0.173157
365 0.165995
370 0.22728
375 0.241268
380 0.409805
385 0.518633
390 1.15321
395 26.2537
400 517.271
405 854.107
410 224.854
415 31.0463
420 8.27383
425 5.48651
430 5.15355
435 5.47988
440 5.2811
445 5.36864
450 5.51582
455 6.78555
460 7.91969
465 6.2442
470 5.70872
475 5.16234
480 4.95651
485 4.44519
490 4.28656
495 3.84789
500 3.75132
505 3.66476
510 3.23806
515 2.92419
520 2.72449
525 2.41031
530 2.12881
535 1.83524
540 1.63655
545 1.53169
550 1.36286
555 1.23066
560 1.04032
565 0.928906
570 0.74567
575 0.573181
580 0.489081
585 0.391109
590 0.305455
595 0.333146
600 0.202361
Ex : 413
200 0.0607444
205 0.0793443
210 0.120828
215 0.0705357
220 0.0752046
225 0.064817
230 0.0268319
235 0.111012
240 0.0655607
245 0.0525567
250 0.0569495
255 0.0578548
260 0.113861
265 0.0864195
270 0.0677416
275 0.0605495
280 0.0835626
285 0.0654671
290 0.0903168
295 0.0941415
300 0.0607193
305 0.0500303
310 0.0702357
315 0.0663162
320 0.108279
325 0.114584
330 0.111877
335 0.0751309
340 0.096885
345 0.11062
350 0.0839311
355 0.150852
360 0.162482
365 0.105174
370 0.174203
375 0.208576
380 0.225898
385 0.233862
390 0.481423
395 1.03132
400 29.1033
405 520.929
410 839.514
415 216.986
420 29.201
425 7.31045
430 4.7131
435 4.67864
440 4.96336
445 4.78216
450 4.5432
455 4.42965
460 5.70001
465 7.06354
470 6.55503
475 5.47181
480 4.96314
485 4.48289
490 3.89962
495 3.6151
500 3.64276
505 3.22575
510 2.98398
515 2.81407
520 2.50154
525 2.25596
530 1.92158
535 1.85912
540 1.78983
545 1.57464
550 1.45357
555 1.29909
560 1.0889
565 0.814159
570 0.729411
575 0.623333
580 0.585537
585 0.433056
590 0.320918
595 0.271561
600 0.0397205
Ex : 418
200 0.0486903
205 0.0371379
210 0.0471093
215 0.0783217
220 0.0822368
225 0.0586856
230 0.0835396
235 0.054102
240 0.0764891
245 0.075173
250 0.0717347
255 0.037181
260 0.0581647
265 0.0747453
270 0.0584426
275 0.106685
280 0.0940702
285 0.0637196
290 0.0590499
295 0.0890191
300 0.0598678
305 0.0587363
310 0.108015
315 0.0867774
320 0.0910904
325 0.124863
330 0.118744
335 0.11435
340 0.0682019
345 0.119805
350 0.111678
355 0.136845
360 0.142747
365 0.126825
370 0.147468
375 0.196569
380 0.153572
385 0.201993
390 0.339578
395 0.470797
400 0.902598
405 26.9842
410 503.786
415 831.802
420 221.011
425 28.407
430 5.84821
435 3.32905
440 3.49268
445 3.37761
450 3.08553
455 2.89415
460 2.91059
465 3.81105
470 5.32617
475 5.3798
480 4.05932
485 3.78153
490 3.60394
495 3.0842
500 2.82026
505 2.96038
510 2.39979
515 2.57279
520 2.27331
525 2.14888
530 1.90041
535 1.66465
540 1.43184
545 1.39216
550 1.33764
555 1.16366
560 0.989457
565 0.840654
570 0.94455
575 0.722667
580 0.430637
585 0.384558
590 0.341812
595 0.259376
600 0.430209
Ex : 423
200 0.0709843
205 0.114517
210 0.0598904
215 0.101758
220 0.0729606
225 0.102326
230 0.108382
235 0.0672378
240 0.0958465
245 0.0598444
250 0.0997466
255 0.0833313
260 0.0815954
265 0.0475914
270 0.0662018
275 0.100209
280 0.0973091
285 0.103758
290 0.0888775
295 0.0478027
300 0.0564712
305 0.0652509
310 0.0786088
315 0.12052
320 0.0851671
325 0.100551
330 0.0756863
335 0.147426
340 0.109658
345 0.0829382
350 0.117898
355 0.09782
360 0.145487
365 0.150073
370 0.141259
375 0.153019
380 0.188011
385 0.177314
390 0.28444
395 0.383173
400 0.497521
405 1.0667
410 27.6496
415 522.134
420 826.392
425 209.561
430 26.3075
435 4.81545
440 2.41418
445 2.38911
450 2.28998
455 1.96371
460 2.05988
465 1.99374
470 2.54474
475 4.2467
480 4.87879
485 3.75204
490 3.34489
495 2.88646
500 2.64354
505 2.33213
510 2.27071
515 2.13898
520 2.03317
525 1.9188
530 1.76251
535 1.65226
540 1.41532
545 1.37465
550 1.13382
555 0.984015
560 0.979447
565 0.87433
570 0.701964
575 0.60491
580 0.505261
585 0.396449
590 0.266769
595 0.279903
600 0.155175
Ex : 428
200 0.0961523
205 0.129867
210 0.0538123
215 0.119819
220 0.0777527
225 0.0522518
230 0.0453106
235 0.0547455
240 0.102807
245 0.0970625
250 0.064699
255 0.035838
260 0.0901857
265 0.0555857
270 0.0685164
275 0.0975435
280 0.0624814
285 0.103451
290 0.0773646
295 0.0941446
300 0.103122
305 0.0869571
310 0.133601
315 0.118201
320 0.0902787
325 0.0757794
330 0.0869859
335 0.113643
340 0.0914933
345 0.113271
350 0.123718
355 0.0807202
360 0.110614
365 0.130114
370 0.10149
375 0.111968
380 0.132506
385 0.187813
390 0.163695
395 0.284418
400 0.347061
405 0.550343
410 0.976998
415 29.3768
420 514.675
425 825.06
430 214.883
435 26.4436
440 4.38661
445 1.73526
450 1.80324
455 1.97021
460 1.68269
465 1.68517
470 1.74857
475 1.90159
480 3.26496
485 4.57498
490 3.72005
495 3.06266
500 2.89081
505 2.3058
510 2.04294
515 1.94734
520 1.88513
525 1.77541
530 1.69985
535 1.4829
540 1.41448
545 1.33792
550 1.13766
555 1.09635
560 0.906709
565 0.697903
570 0.682705
575 0.608675
580 0.427566
585 0.369
590 0.337179
595 0.293549
600 0.190491
Ex : 433
200 0.0899632
205 0.109199
210 0.0774893
215 0.0632535
220 0.112798
225 0.0995507
230 0.0937023
235 0.0869478
240 0.0596193
245 0.106553
250 0.0903009
255 0.0999073
260 0.174423
265 0.119191
270 0.0626299
275 0.0601906
280 0.0713747
285 0.0837432
290 0.0697855
295 0.0675712
300 0.0752367
305 0.0693348
310 0.0867526
315 0.0700155
320 0.0866065
325 0.0981557
330 0.068802
335 0.0888742
340 0.172221
345 0.0722883
350 0.127395
355 0.134444
360 0.119923
365 0.104614
370 0.163618
375 0.112152
380 0.10712
385 0.198744
390 0.161937
395 0.173061
400 0.220349
405 0.285731
410 0.505171
415 0.916063
420 32.7179
425 550.994
430 834.535
435 207.982
440 25.5135
445 4.24417
450 1.74206
455 1.52136
460 1.67636
465 1.61009
470 1.45793
475 1.61339
480 1.84755
485 2.56069
490 4.04421
495 3.72405
500 2.87688
505 2.61074
510 2.17289
515 1.84858
520 1.795
525 1.62951
530 1.38981
535 1.30581
540 1.30553
545 1.20453
550 1.15399
555 0.87679
560 0.777398
565 0.617095
570 0.640022
575 0.607768
580 0.437943
585 0.403577
590 0.267637
595 0.290999
600 0.224081
Ex : 438
200 0.059926
205 0.0810053
210 0.114581
215 0.0675493
220 0.0936016
225 0.0718712
230 0.111943
235 0.053673
240 0.0579425
245 0.0735877
250 0.0624589
255 0.0709572
260 0.049707
265 0.0915863
270 0.119354
275 0.0689387
280 0.123311
285 0.107373
290 0.0829541
295 0.080599
300 0.0846175
305 0.0835502
310 0.0708379
315 0.0640887
320 0.164181
325 0.106913
330 0.0929946
335 0.138546
340 0.106087
345 0.0783041
350 0.139719
355 0.129805
360 0.0729481
365 0.0981259
370 0.101019
375 0.0903905
380 0.100633
385 0.148761
390 0.163944
395 0.122525
400 0.207331
405 0.291342
410 0.362252
415 0.460018
420 0.816931
425 30.3207
430 544.407
435 875.041
440 218.268
445 26.7266
450 4.43996
455 1.65109
460 1.70402
465 1.85815
470 1.70442
475 1.44035
480 1.57651
485 1.58998
490 2.13255
495 3.45338
500 4.06905
505 2.7208
510 2.46142
515 2.07843
520 1.66046
525 1.52312
530 1.43005
535 1.34971
540 1.19331
545 1.11082
550 1.01953
555 0.948374
560 0.795799
565 0.784786
570 0.617053
575 0.56708
580 0.399192
585 0.311451
590 0.340147
595 0.243867
600 0.776593
Ex : 443
200 0.0452698
205 0.107726
210 0.0455891
215 0.134334
220 0.0951874
225 0.108982
230 0.110371
235 0.0885752
240 0.0604466
245 0.0734535
250 0.0772122
255 0.0701682
260 0.105927
265 0.0960177
270 0.0784263
275 0.0763399
280 0.0850631
285 0.0526265
290 0.107314
295 0.0874395
300 0.0543567
305 0.0866524
310 0.112038
315 0.133726
320 0.0669489
325 0.0626105
330 0.0903503
335 0.077686
340 0.113289
345 0.112933
350 0.15619
355 0.100208
360 0.134905
365 0.107608
370 0.129358
375 0.111606
380 0.13928
385 0.137693
390 0.124146
395 0.123379
400 0.1798
405 0.20625
410 0.223581
415 0.329665
420 0.571463
425 1.01351
430 33.2912
435 574.106
440 882.32
445 217.911
450 26.7611
455 4.39282
460 1.77068
465 1.76729
470 1.87312
475 1.54629
480 1.40664
485 1.39554
490 1.4843
495 1.76687
500 2.97682
505 3.92363
510 2.67365
515 2.09338
520 1.92851
525 1.71855
530 1.44084
535 1.28643
540 1.19786
545 1.00824
550 0.929491
555 0.906026
560 0.825054
565 0.773594
570 0.650228
575 0.602325
580 0.453437
585 0.3869
590 0.326644
595 0.267773
600 0.270547
Ex : 448
200 0.0619089
205 0.0903191
210 0.0816999
215 0.0820734
220 0.0780448
225 0.0523379
230 0.0821631
235 0.0853061
240 0.135087
245 0.0902518
250 0.0979743
255 0.0543091
260 0.0748138
265 0.0824227
270 0.0675853
275 0.0533333
280 0.0649256
285 0.0709523
290 0.104976
295 0.101238
300 0.108722
305 0.0664882
310 0.0760969
315 0.130596
320 0.0688878
325 0.0799407
330 0.0972571
335 0.0870726
340 0.0983444
345 0.0900862
350 0.0991137
355 0.141739
360 0.119552
365 0.154306
370 0.084544
375 0.0957299
380 0.143541
385 0.118943
390 0.174993
395 0.153987
400 0.210009
405 0.223514
410 0.185999
415 0.276336
420 0.303719
425 0.529184
430 0.906651
435 34.973
440 610.721
445 918.983
450 228.448
455 27.815
460 4.67563
465 1.81432
470 1.62779
475 1.59001
480 1.76401
485 1.37567
490 1.34717
495 1.26881
500 1.43522
505 2.22465
510 3.4547
515 2.82005
520 1.92397
525 1.82238
530 1.5073
535 1.31855
540 1.20518
545 1.03513
550 0.889933
555 0.938661
560 0.8116
565 0.675171
570 0.666568
575 0.50567
580 0.435827
585 0.339683
590 0.319402
595 0.273903
600 0.299091
Ex : 453
200 0.104217
205 0.0906942
210 0.0755085
215 0.112492
220 0.0871708
225 0.100554
230 0.0599101
235 0.0591366
240 0.0584949
245 0.0586797
250 0.0797361
255 0.0646048
260 0.0678651
265 0.100347
270 0.0929316
275 0.070626
280 0.0704032
285 0.106583
290 0.0815359
295 0.0731526
300 0.113549
305 0.058705
310 0.0782243
315 0.0531884
320 0.114433
325 0.0717035
330 0.08978
335 0.126502
340 0.0798167
345 0.142286
350 0.115366
355 0.0851374
360 0.122075
365 0.128937
370 0.112372
375 0.105977
380 0.0769204
385 0.125265
390 0.142417
395 0.0934374
400 0.134997
405 0.190734
410 0.150726
415 0.251832
420 0.262121
425 0.386231
430 0.485769
435 0.944569
440 36.6168
445 658.299
450 964.971
455 226.574
460 27.9407
465 4.7931
470 1.8629
475 1.5151
480 1.78395
485 1.61078
490 1.29825
495 1.14441
500 1.2499
505 1.26321
510 1.71257
515 3.02169
520 2.96464
525 2.09528
530 1.83317
535 1.61273
540 1.34398
545 1.05515
550 0.945883
555 0.902754
560 0.890273
565 0.753679
570 0.630627
575 0.511411
580 0.385329
585 0.332676
590 0.389876
595 0.253437
600 0.222961
Ex : 458
200 0.063934
205 0.0919105
210 0.081889
215 0.0765979
220 0.0666905
225 0.0515263
230 0.0531352
235 0.0903077
240 0.0924224
245 0.0930807
250 0.079554
255 0.0612681
260 0.0451307
265 0.0875668
270 0.0455749
275 0.091589
280 0.0919229
285 0.0605116
290 0.0536706
295 0.121221
300 0.0671508
305 0.0793065
310 0.0957889
315 0.0676247
320 0.0676959
325 0.0776945
330 0.121507
335 0.0894651
340 0.0666167
345 0.0983646
350 0.136034
355 0.105221
360 0.13904
365 0.0949179
370 0.132271
375 0.131786
380 0.171566
385 0.138562
390 0.129593
395 0.141219
400 0.151574
405 0.153309
410 0.162746
415 0.170668
420 0.234579
425 0.254356
430 0.350489
435 0.548959
440 0.974031
445 40.8696
450 672.928
455 1002.67
460 243.214
465 29.8687
470 5.06406
475 1.79753
480 1.48088
485 1.67597
490 1.65567
495 1.26591
500 1.0398
505 1.08298
510 1.08569
515 1.4186
520 2.28843
525 3.13059
530 2.27482
535 1.70005
540 1.59922
545 1.32599
550 1.07667
555 0.917092
560 0.841343
565 0.711306
570 0.70137
575 0.566754
580 0.469192
585 0.425935
590 0.347333
595 0.279549
600 0.0318116
Ex : 463
200 0.0462298
205 0.052677
210 0.0986536
215 0.0947538
220 0.0982105
225 0.0510302
230 0.0691539
235 0.0412122
240 0.0638606
245 0.0925315
250 0.0968112
255 0.0792211
260 0.110105
265 0.101215
270 0.0741297
275 0.0835641
280 0.0736395
285 0.0680926
290 0.086427
295 0.0677323
300 0.097011
305 0.0816221
310 0.0756774
315 0.0989622
320 0.0883369
325 0.0738971
330 0.0667847
335 0.0846724
340 0.0942465
345 0.153289
350 0.0619298
355 0.110079
360 0.151693
365 0.114465
370 0.102159
375 0.0958926
380 0.128943
385 0.0909607
390 0.134778
395 0.12213
400 0.152768
405 0.138909
410 0.14577
415 0.125365
420 0.163153
425 0.225015
430 0.278115
435 0.312618
440 0.539757
445 0.974154
450 38.5417
455 695.587
460 1073.02
465 261.374
470 31.9222
475 5.11632
480 1.87657
485 1.4242
490 1.52408
495 1.5101
500 1.36562
505 1.13026
510 1.15866
515 1.16923
520 1.29729
525 2.03141
530 3.08179
535 2.50831
540 1.67879
545 1.52207
550 1.21136
555 0.960133
560 0.819353
565 0.814665
570 0.640432
575 0.534453
580 0.45385
585 0.385203
590 0.317667
595 0.259507
600 0.129499
Ex : 468
200 0.052196
205 0.0470532
210 0.0574569
215 0.0724342
220 0.0818229
225 0.0556701
230 0.0671983
235 0.106634
240 0.0745368
245 0.0411971
250 0.0548768
255 0.0777212
260 0.0577599
265 0.0622433
270 0.066561
275 0.0858656
280 0.0718866
285 0.094306
290 0.104159
295 0.0949653
300 0.0959884
305 0.0834788
310 0.074607
315 0.104923
320 0.0671463
325 0.0557891
330 0.066643
335 0.0851715
340 0.0862919
345 0.0943472
350 0.0902183
355 0.0877991
360 0.102149
365 0.112378
370 0.0815574
375 0.056295
380 0.0837952
385 0.097818
390 0.159094
395 0.139852
400 0.12347
405 0.112575
410 0.181567
415 0.164632
420 0.168245
425 0.206984
430 0.219378
435 0.258835
440 0.332145
445 0.536428
450 1.06285
455 43.1331
460 711.428
465 1132.95
470 273.01
475 32.9308
480 5.38595
485 1.76014
490 1.27762
495 1.55629
500 1.41624
505 1.32486
510 1.16805
515 1.03156
520 1.15414
525 1.17357
530 1.54456
535 2.45193
540 2.65156
545 1.75943
550 1.37418
555 1.32378
560 1.05952
565 0.781838
570 0.612451
575 0.515811
580 0.430602
585 0.304146
590 0.300914
595 0.309334
600 0.287708
Ex : 473
200 0.113844
205 0.0731347
210 0.125369
215 0.0810987
220 0.0805487
225 0.0681233
230 0.15735
235 0.0941464
240 0.132265
245 0.0492399
250 0.0763746
255 0.054937
260 0.0689786
265 0.0636709
270 0.0854129
275 0.0972771
280 0.13834
285 0.0837742
290 0.0989199
295 0.0816458
300 0.070451
305 0.0570655
310 0.0657841
315 0.0609936
320 0.0741147
325 0.0820899
330 0.0964133
335 0.074677
340 0.104541
345 0.0735068
350 0.0768092
355 0.132449
360 0.067289
365 0.117293
370 0.110165
375 0.129671
380 0.147924
385 0.108365
390 0.108974
395 0.124103
400 0.131183
405 0.14796
410 0.112556
415 0.136131
420 0.14196
425 0.14404
430 0.22354
435 0.207075
440 0.247651
445 0.355003
450 0.60747
455 1.10692
460 50.8654
465 793.612
470 1118.88
475 258.246
480 31.4387
485 5.1354
490 1.73458
495 1.21567
500 1.42646
505 1.3932
510 1.14737
515 1.04814
520 0.976899
525 1.04117
530 1.05531
535 1.25324
540 2.05103
545 2.61197
550 1.80971
555 1.27996
560 1.1843
565 0.948235
570 0.717394
575 0.656472
580 0.440284
585 0.439198
590 0.353328
595 0.278061
600 0.302141
Ex : 478
200 0.112949
205 0.0672096
210 0.0897027
215 0.0521596
220 0.0778645
225 0.093222
230 0.0687866
235 0.128437
240 0.0946511
245 0.0857655
250 0.0589478
255 0.0904778
260 0.087935
265 0.079246
270 0.0627317
275 0.0723007
280 0.0893463
285 0.0640464
290 0.146173
295 0.0625598
300 0.059547
305 0.077016
310 0.0868181
315 0.0957783
320 0.101661
325 0.109237
330 0.117707
335 0.0714821
340 0.101992
345 0.0987629
350 0.0873568
355 0.126576
360 0.0952646
365 0.106562
370 0.148702
375 0.0996748
380 0.113879
385 0.156989
390 0.135971
395 0.10762
400 0.126395
405 0.105021
410 0.111936
415 0.117711
420 0.150876
425 0.24743
430 0.227624
435 0.2438
440 0.217123
445 0.278131
450 0.419992
455 0.520865
460 1.22488
465 56.9471
470 825.815
475 1146.69
480 277.654
485 33.5645
490 5.20511
495 1.7979
500 1.13187
505 1.21111
510 1.21387
515 1.21496
520 1.09803
525 0.910825
530 1.1617
535 1.04089
540 1.12191
545 1.61607
550 2.23807
555 1.91344
560 1.24453
565 1.03885
570 1.02516
575 0.755436
580 0.48228
585 0.383757
590 0.294491
595 0.325814
600 0.214317
Ex : 483
200 0.0600099
205 0.0826775
210 0.0588101
215 0.0719877
220 0.112482
225 0.136798
230 0.109779
235 0.15005
240 0.0827281
245 0.103021
250 0.102871
255 0.113378
260 0.073504
265 0.0699754
270 0.111651
275 0.0765899
280 0.0991129
285 0.0562219
290 0.0773385
295 0.0949007
300 0.0817901
305 0.0698642
310 0.0992543
315 0.0873818
320 0.113302
325 0.128916
330 0.0876072
335 0.128766
340 0.0661044
345 0.0813358
350 0.123163
355 0.133118
360 0.0814569
365 0.104547
370 0.0988697
375 0.128956
380 0.104266
385 0.0752554
390 0.117866
395 0.176419
400 0.134213
405 0.16092
410 0.150409
415 0.1715
420 0.120925
425 0.158566
430 0.143867
435 0.160916
440 0.167161
445 0.238993
450 0.285811
455 0.457355
460 0.768175
465 1.45237
470 44.525
475 813.139
480 1237.23
485 296.462
490 35.753
495 5.50493
500 1.63785
505 1.11237
510 1.14161
515 1.40261
520 1.29233
525 1.13182
530 1.0176
535 1.03572
540 0.969806
545 0.96381
550 1.1647
555 1.91148
560 2.06236
565 1.2734
570 0.982546
575 0.806864
580 0.673783
585 0.396294
590 0.37861
595 0.30066
600 0.256537
Ex : 488
200 0.105191
205 0.138478
210 0.116197
215 0.199136
220 0.121699
225 0.090821
230 0.18368
235 0.139139
240 0.0840912
245 0.0686876
250 0.129022
255 0.108977
260 0.156829
265 0.126656
270 0.0994292
275 0.0853893
280 0.0905114
285 0.110342
290 0.111142
295 0.0887762
300 0.077546
305 0.101409
310 0.0794888
315 0.104926
320 0.164686
325 0.113145
330 0.116442
335 0.113572
340 0.0998484
345 0.133288
350 0.108073
355 0.121228
360 0.0908103
365 0.128096
370 0.0816726
375 0.142339
380 0.118125
385 0.0894514
390 0.209987
395 0.218823
400 0.07728
405 0.17283
410 0.115373
415 0.196591
420 0.182307
425 0.197136
430 0.223501
435 0.192124
440 0.235189
445 0.190159
450 0.286436
455 0.400441
460 0.541843
465 0.713998
470 1.41678
475 55.8348
480 882.181
485 1241.99
490 292.301
495 35.2095
500 5.36859
505 1.6505
510 1.16005
515 1.22412
520 1.3276
525 1.36834
530 1.22119
535 0.946414
540 0.883321
545 0.927252
550 1.02272
555 0.977917
560 1.54711
565 1.94159
570 1.29778
575 0.817643
580 0.653649
585 0.576655
590 0.458282
595 0.385633
600 0.0946205
Ex : 493
200 0.116635
205 0.115192
210 0.108988
215 0.0932307
220 0.117246
225 0.104908
230 0.0974733
235 0.0967421
240 0.0729211
245 0.0782446
250 0.130799
255 0.148578
260 0.0920792
265 0.0977711
270 0.0788912
275 0.0635417
280 0.0935598
285 0.130474
290 0.107053
295 0.0742003
300 0.0841208
305 0.167671
310 0.153351
315 0.130949
320 0.109291
325 0.117304
330 0.129882
335 0.105417
340 0.128162
345 0.205358
350 0.128804
355 0.0840676
360 0.129768
365 0.122125
370 0.176501
375 0.14132
380 0.104404
385 0.108461
390 0.11181
395 0.125349
400 0.126039
405 0.170173
410 0.165101
415 0.162238
420 0.157218
425 0.155895
430 0.185315
435 0.156593
440 0.147058
445 0.181989
450 0.27243
455 0.253784
460 0.406382
465 0.702629
470 0.874855
475 1.33522
480 50.5568
485 889.468
490 1323.63
495 305.672
500 36.6936
505 5.56873
510 1.65443
515 1.14414
520 1.15173
525 1.29494
530 1.27805
535 1.14258
540 0.943084
545 0.913397
550 0.852689
555 0.848772
560 0.793155
565 1.02489
570 1.62688
575 1.4453
580 0.832768
585 0.521394
590 0.560935
595 0.418314
600 0.291727
Ex : 498
200 0.160271
205 0.0922448
210 0.0948047
215 0.112654
220 0.134734
225 0.153748
230 0.115413
235 0.0886882
240 0.0668386
245 0.108706
250 0.0842947
255 0.102924
260 0.117683
265 0.0986038
270 0.125696
275 0.134753
280 0.120233
285 0.0814417
290 0.121789
295 0.125458
300 0.103334
305 0.0863484
310 0.125178
315 0.1129
320 0.102483
325 0.108161
330 0.114966
335 0.176368
340 0.0814575
345 0.109533
350 0.118447
355 0.103255
360 0.164925
365 0.159698
370 0.102853
375 0.120555
380 0.0689679
385 0.144406
390 0.162485
395 0.215108
400 0.207631
405 0.17414
410 0.14065
415 0.147718
420 0.213922
425 0.120219
430 0.152819
435 0.191925
440 0.172422
445 0.219774
450 0.24554
455 0.208443
460 0.34138
465 0.415126
470 0.534558
475 0.796891
480 1.35682
485 62.8693
490 942.854
495 1294.39
500 299.089
505 35.9383
510 5.3412
515 1.73192
520 1.30579
525 1.12255
530 1.19203
535 1.22079
540 1.2083
545 0.953164
550 0.764799
555 0.766209
560 0.784058
565 0.682544
570 0.95933
575 1.16731
580 1.19467
585 0.86886
590 0.551193
595 0.405374
600 0.383555
Ex : 503
200 0.10227
205 0.183273
210 0.121067
215 0.0943922
220 0.127556
225 0.0811445
230 0.0637579
235 0.154658
240 0.114319
245 0.0934966
250 0.110005
255 0.147279
260 0.112258
265 0.135924
270 0.0945913
275 0.099422
280 0.0987458
285 0.143415
290 0.0863846
295 0.0914149
300 0.146561
305 0.0736188
310 0.123802
315 0.188682
320 0.126231
325 0.101545
330 0.109588
335 0.158991
340 0.0749222
345 0.134011
350 0.193247
355 0.136955
360 0.15657
365 0.140388
370 0.143128
375 0.149718
380 0.141981
385 0.171083
390 0.182357
395 0.17872
400 0.131279
405 0.115434
410 0.196659
415 0.135298
420 0.115933
425 0.123968
430 0.146065
435 0.187431
440 0.17779
445 0.29539
450 0.229454
455 0.20801
460 0.295246
465 0.444511
470 0.435101
475 0.49801
480 0.851558
485 1.47839
490 57.5599
495 956.996
500 1346.85
505 309.184
510 37.4158
515 5.69508
520 1.94447
525 1.12719
530 1.25145
535 1.12546
540 1.04667
545 1.10749
550 0.876204
555 0.765893
560 0.748853
565 0.695037
570 0.586807
575 0.538766
580 0.713666
585 1.01987
590 0.744646
595 0.434955
600 0.34226
Ex : 508
200 0.125272
205 0.103079
210 0.109108
215 0.152773
220 0.111171
225 0.120729
230 0.137817
235 0.213792
240 0.125376
245 0.121806
250 0.0965566
255 0.176593
260 0.157354
265 0.141278
270 0.10893
275 0.11926
280 0.129362
285 0.100341
290 0.129501
295 0.143991
300 0.115101
305 0.0927874
310 0.11313
315 0.110824
320 0.126694
325 0.128373
330 0.0946299
335 0.15834
340 0.155409
345 0.156118
350 0.183898
355 0.160186
360 0.168325
365 0.118363
370 0.158366
375 0.156178
380 0.112525
385 0.182654
390 0.184768
395 0.145311
400 0.128561
405 0.132208
410 0.167314
415 0.169584
420 0.22731
425 0.210103
430 0.220397
435 0.239085
440 0.170884
445 0.214862
450 0.264883
455 0.269366
460 0.25477
465 0.274911
470 0.347122
475 0.375547
480 0.560912
485 0.835247
490 1.68824
495 62.0091
500 954.381
505 1369.99
510 332.35
515 39.9081
520 5.9683
525 1.95678
530 1.3517
535 1.09588
540 1.21954
545 1.12177
550 1.00824
555 0.864165
560 0.693061
565 0.692124
570 0.642189
575 0.575128
580 0.446094
585 0.633267
590 0.752868
595 0.746296
600 0.519897
Ex : 513
200 0.128487
205 0.103093
210 0.148377
215 0.12313
220 0.181387
225 0.105933
230 0.169991
235 0.165685
240 0.147401
245 0.0990861
250 0.158712
255 0.131682
260 0.131159
265 0.104274
270 0.186297
275 0.114667
280 0.14049
285 0.125382
290 0.0913983
295 0.0567435
300 0.0849677
305 0.149266
310 0.125164
315 0.128393
320 0.166918
325 0.150217
330 0.10347
335 0.139226
340 0.0835927
345 0.121557
350 0.102543
355 0.0947879
360 0.129153
365 0.100609
370 0.12086
375 0.122046
380 0.106624
385 0.146116
390 0.126506
395 0.190291
400 0.124523
405 0.20503
410 0.167414
415 0.219897
420 0.137084
425 0.136757
430 0.132345
435 0.169664
440 0.167306
445 0.210298
450 0.185741
455 0.214751
460 0.21975
465 0.324348
470 0.318965
475 0.294131
480 0.436563
485 0.60327
490 0.826397
495 1.44033
500 57.123
505 956.425
510 1400.95
515 341.09
520 40.9979
525 6.02817
530 1.79583
535 1.26397
540 0.937178
545 0.915988
550 0.999118
555 0.804702
560 0.79011
565 0.677668
570 0.479377
575 0.463945
580 0.382865
585 0.282292
590 0.45227
595 0.578175
600 0.298787
Ex : 518
200 0.0614265
205 0.144542
210 0.0858961
215 0.111513
220 0.0920285
225 0.129992
230 0.143059
235 0.0816166
240 0.067739
245 0.104703
250 0.180998
255 0.133934
260 0.121606
265 0.173495
270 0.084359
275 0.152222
280 0.108341
285 0.134976
290 0.164775
295 0.102039
300 0.0853771
305 0.181236
310 0.122631
315 0.111765
320 0.104942
325 0.0732844
330 0.184606
335 0.199819
340 0.216196
345 0.146652
350 0.129441
355 0.160423
360 0.117966
365 0.114748
370 0.128369
375 0.138107
380 0.125054
385 0.154524
390 0.15534
395 0.115985
400 0.170919
405 0.157302
410 0.13192
415 0.16422
420 0.173853
425 0.146647
430 0.145847
435 0.166946
440 0.17138
445 0.20944
450 0.244112
455 0.155777
460 0.224304
465 0.338057
470 0.345965
475 0.31613
480 0.439202
485 0.352434
490 0.644345
495 0.708104
500 1.46889
505 57.8932
510 920.983
515 1382.54
520 340.234
525 40.7048
530 5.83352
535 1.7085
540 1.0531
545 0.856522
550 0.873409
555 0.910056
560 0.79394
565 0.689916
570 0.561166
575 0.541108
580 0.601292
585 0.392016
590 0.397741
595 0.329055
600 0.448746
Ex : 523
200 0.136673
205 0.0846818
210 0.151068
215 0.132443
220 0.119895
225 0.185589
230 0.207333
235 0.171312
240 0.175766
245 0.168962
250 0.112812
255 0.097816
260 0.110348
265 0.127984
270 0.088205
275 0.0986472
280 0.0998038
285 0.143504
290 0.146373
295 0.120255
300 0.150299
305 0.158774
310 0.184218
315 0.117923
320 0.0810209
325 0.168905
330 0.188506
335 0.121325
340 0.102416
345 0.165006
350 0.188201
355 0.19315
360 0.1879
365 0.145083
370 0.227566
375 0.156495
380 0.126152
385 0.120679
390 0.156744
395 0.114483
400 0.117898
405 0.223732
410 0.162593
415 0.215035
420 0.138931
425 0.194605
430 0.244145
435 0.251781
440 0.232844
445 0.234867
450 0.160276
455 0.177122
460 0.17334
465 0.206345
470 0.188173
475 0.237184
480 0.330335
485 0.3615
490 0.439918
495 0.56927
500 0.901435
505 1.442
510 53.3429
515 905.677
520 1386.38
525 356.104
530 42.799
535 6.27599
540 1.86238
545 1.04546
550 0.851334
555 0.916657
560 0.796504
565 0.686491
570 0.715486
575 0.613289
580 0.382228
585 0.373681
590 0.394479
595 0.250616
600 0.432524
Ex : 528
200 0.19486
205 0.160735
210 0.114188
215 0.154991
220 0.10465
225 0.194771
230 0.168594
235 0.101215
240 0.178901
245 0.111351
250 0.145021
255 0.128408
260 0.161643
265 0.152707
270 0.185272
275 0.166586
280 0.087627
285 0.137256
290 0.14563
295 0.0891301
300 0.0880245
305 0.0954602
310 0.185359
315 0.104232
320 0.121575
325 0.15722
330 0.211595
335 0.21959
340 0.124818
345 0.179594
350 0.106631
355 0.0939158
360 0.256518
365 0.163776
370 0.221957
375 0.187817
380 0.115846
385 0.106931
390 0.102953
395 0.163744
400 0.159955
405 0.111419
410 0.184592
415 0.157588
420 0.183277
425 0.162019
430 0.177997
435 0.1683
440 0.161328
445 0.233772
450 0.232234
455 0.195887
460 0.253063
465 0.192507
470 0.215148
475 0.264337
480 0.341155
485 0.297858
490 0.331903
495 0.341846
500 0.580012
505 0.897623
510 1.44745
515 50.6767
520 903.116
525 1382.69
530 350.811
535 41.9511
540 5.91195
545 1.62254
550 1.16269
555 0.713137
560 0.799711
565 0.721063
570 0.724122
575 0.524201
580 0.476663
585 0.377083
590 0.35254
595 0.303869
600 0.0893959
Ex : 533
200 0.121745
205 0.133602
210 0.150078
215 0.103184
220 0.0927057
225 0.244643
230 0.126169
235 0.0811714
240 0.137734
245 0.145346
250 0.129095
255 0.154033
260 0.123345
265 0.158968
270 0.117347
275 0.136266
280 0.103947
285 0.0816719
290 0.205993
295 0.182486
300 0.144824
305 0.113922
310 0.115154
315 0.0991714
320 0.132849
325 0.249497
330 0.221539
335 0.249417
340 0.128613
345 0.116254
350 0.114026
355 0.12199
360 0.133241
365 0.105228
370 0.0964015
375 0.180202
380 0.120886
385 0.156642
390 0.186418
395 0.121431
400 0.143726
405 0.126392
410 0.212343
415 0.233898
420 0.186071
425 0.109705
430 0.168012
435 0.132626
440 0.207377
445 0.15848
450 0.179591
455 0.183708
460 0.152926
465 0.190533
470 0.229673
475 0.275226
480 0.210706
485 0.281941
490 0.234638
495 0.266006
500 0.409465
505 0.511546
510 0.762955
515 1.35746
520 49.9854
525 861.682
530 1358.42
535 356.78
540 42.4683
545 5.97338
550 1.49703
555 0.852973
560 0.704885
565 0.593079
570 0.567712
575 0.452037
580 0.516462
585 0.356592
590 0.349285
595 0.374263
600 0.246741
Ex : 538
200 0.164339
205 0.10761
210 0.129991
215 0.143313
220 0.163335
225 0.10051
230 0.101627
235 0.0841761
240 0.065476
245 0.140168
250 0.210466
255 0.199309
260 0.210973
265 0.105305
270 0.126649
275 0.221915
280 0.185653
285 0.204483
290 0.119203
295 0.136601
300 0.111213
305 0.0878885
310 0.196189
315 0.115568
320 0.107428
325 0.139751
330 0.120819
335 0.167881
340 0.126068
345 0.142812
350 0.155505
355 0.144428
360 0.139196
365 0.173955
370 0.167189
375 0.183709
380 0.202703
385 0.316392
390 0.239697
395 0.197479
400 0.167336
405 0.193972
410 0.147965
415 0.178029
420 0.134462
425 0.104049
430 0.124385
435 0.129391
440 0.250815
445 0.186664
450 0.177787
455 0.123839
460 0.276279
465 0.217803
470 0.256606
475 0.189447
480 0.233272
485 0.280403
490 0.310833
495 0.381773
500 0.415755
505 0.401121
510 0.575009
515 0.847894
520 1.38033
525 42.2037
530 825.222
535 1365.15
540 370.342
545 44.4238
550 5.98611
555 1.45527
560 0.867096
565 0.657321
570 0.539812
575 0.507018
580 0.558921
585 0.410289
590 0.461356
595 0.300984
600 0.0342508
Ex : 543
200 0.108612
205 0.225219
210 0.193815
215 0.117302
220 0.16097
225 0.116376
230 0.120947
235 0.161523
240 0.172636
245 0.123398
250 0.124936
255 0.130175
260 0.243044
265 0.169982
270 0.123164
275 0.137515
280 0.200309
285 0.122048
290 0.136917
295 0.138155
300 0.108212
305 0.152571
310 0.13586
315 0.123381
320 0.238926
325 0.1073
330 0.182428
335 0.185986
340 0.159155
345 0.104869
350 0.157619
355 0.132034
360 0.167426
365 0.209695
370 0.167047
375 0.141187
380 0.206441
385 0.214124
390 0.182546
395 0.239058
400 0.188612
405 0.154488
410 0.159246
415 0.19333
420 0.148144
425 0.142409
430 0.201192
435 0.127742
440 0.127533
445 0.151562
450 0.192036
455 0.164607
460 0.139336
465 0.144495
470 0.190069
475 0.172034
480 0.27492
485 0.298331
490 0.193181
495 0.40801
500 0.348566
505 0.419618
510 0.428362
515 0.458758
520 0.669074
525 1.28833
530 38.0757
535 789.812
540 1353.85
545 373.723
550 44.905
555 6.09881
560 1.5564
565 0.850098
570 0.567401
575 0.458265
580 0.598807
585 0.401428
590 0.386337
595 0.415716
600 0.254088
Ex : 548
200 0.134245
205 0.145982
210 0.125372
215 0.107687
220 0.143828
225 0.136588
230 0.11492
235 0.161324
240 0.127994
245 0.117059
250 0.146276
255 0.119895
260 0.107725
265 0.100515
270 0.234567
275 0.186385
280 0.151037
285 0.127354
290 0.141475
295 0.140336
300 0.146172
305 0.0873119
310 0.168896
315 0.179949
320 0.111267
325 0.125194
330 0.120365
335 0.125335
340 0.272287
345 0.185362
350 0.167762
355 0.133847
360 0.0985029
365 0.142786
370 0.167895
375 0.18151
380 0.137028
385 0.164669
390 0.146936
395 0.225955
400 0.124139
405 0.231821
410 0.236165
415 0.268523
420 0.135123
425 0.193006
430 0.159836
435 0.171363
440 0.175604
445 0.173773
450 0.229058
455 0.259041
460 0.25892
465 0.206777
470 0.178595
475 0.203027
480 0.246344
485 0.243632
490 0.218702
495 0.430659
500 0.266823
505 0.296816
510 0.357722
515 0.425669
520 0.56955
525 0.694541
530 1.27578
535 43.5733
540 798.075
545 1323.9
550 367.286
555 43.9884
560 5.95122
565 1.43341
570 0.635928
575 0.505716
580 0.412928
585 0.311043
590 0.418497
595 0.371518
600 1.08369
Ex : 553
200 0.122765
205 0.268405
210 0.162715
215 0.0692787
220 0.0983534
225 0.203253
230 0.229285
235 0.141847
240 0.1023
245 0.096589
250 0.141216
255 0.0996882
260 0.114261
265 0.18391
270 0.155938
275 0.183861
280 0.101544
285 0.117979
290 0.0979508
295 0.14027
300 0.113831
305 0.0820377
310 0.140514
315 0.1203
320 0.17725
325 0.148859
330 0.195143
335 0.134577
340 0.232758
345 0.2161
350 0.117271
355 0.172879
360 0.163598
365 0.127134
370 0.210146
375 0.225164
380 0.198391
385 0.117625
390 0.139197
395 0.218897
400 0.204837
405 0.264016
410 0.264046
415 0.194247
420 0.15879
425 0.158733
430 0.322546
435 0.147964
440 0.185175
445 0.188125
450 0.156102
455 0.166196
460 0.199327
465 0.191821
470 0.237202
475 0.236732
480 0.236487
485 0.196761
490 0.260807
495 0.19117
500 0.305149
505 0.376305
510 0.268624
515 0.336827
520 0.539698
525 0.537204
530 0.723261
535 1.24057
540 37.7287
545 768.281
550 1326.94
555 373.79
560 44.6876
565 5.90631
570 1.34611
575 0.630071
580 0.435245
585 0.484668
590 0.375804
595 0.428501
600 0.205151
Ex : 558
200 0.128939
205 0.219311
210 0.157752
215 0.152134
220 0.19127
225 0.11668
230 0.165649
235 0.147407
240 0.124216
245 0.159366
250 0.104927
255 0.164218
260 0.116138
265 0.229543
270 0.227049
275 0.237672
280 0.122428
285 0.130507
290 0.146322
295 0.214428
300 0.196074
305 0.208406
310 0.123858
315 0.157883
320 0.187098
325 0.227738
330 0.124672
335 0.184889
340 0.167944
345 0.141639
350 0.116776
355 0.162884
360 0.238927
365 0.169679
370 0.126927
375 0.143966
380 0.208281
385 0.165809
390 0.195697
395 0.291335
400 0.156947
405 0.184177
410 0.154915
415 0.188936
420 0.145746
425 0.160537
430 0.182139
435 0.145279
440 0.215237
445 0.244656
450 0.221895
455 0.188689
460 0.293683
465 0.333455
470 0.264949
475 0.168903
480 0.199448
485 0.231344
490 0.144538
495 0.192293
500 0.310747
505 0.226254
510 0.293582
515 0.285778
520 0.333566
525 0.460993
530 0.600607
535 0.838433
540 1.11763
545 34.9316
550 716.093
555 1285.17
560 367.656
565 43.8986
570 6.01157
575 1.37824
580 0.627436
585 0.596558
590 0.478094
595 0.422938
600 0.651388
Ex : 563
200 0.168524
205 0.1502
210 0.151891
215 0.182216
220 0.146975
225 0.16808
230 0.183849
235 0.131345
240 0.160361
245 0.136031
250 0.141475
255 0.167121
260 0.121061
265 0.193461
270 0.16746
275 0.142074
280 0.136283
285 0.135823
290 0.190673
295 0.124075
300 0.117228
305 0.170019
310 0.148039
315 0.142289
320 0.25407
325 0.203405
330 0.143779
335 0.190195
340 0.184846
345 0.261703
350 0.257172
355 0.184933
360 0.148387
365 0.194365
370 0.177793
375 0.131175
380 0.186879
385 0.293546
390 0.201432
395 0.236381
400 0.158609
405 0.106789
410 0.132666
415 0.103318
420 0.153646
425 0.246246
430 0.16173
435 0.308343
440 0.293942
445 0.211621
450 0.350465
455 0.204513
460 0.136563
465 0.20632
470 0.254076
475 0.348779
480 0.239813
485 0.259647
490 0.315048
495 0.251684
500 0.222256
505 0.307036
510 0.237277
515 0.361893
520 0.24404
525 0.381694
530 0.337581
535 0.489331
540 0.707394
545 1.11662
550 34.227
555 701.46
560 1228.97
565 354.756
570 42.4175
575 5.61202
580 1.21243
585 0.501504
590 0.39338
595 0.314671
600 0.398093
Ex : 568
200 0.0770763
205 0.17566
210 0.112279
215 0.188704
220 0.107111
225 0.216348
230 0.241124
235 0.148366
240 0.245144
245 0.176468
250 0.210384
255 0.118755
260 0.240693
265 0.282329
270 0.120391
275 0.166954
280 0.163872
285 0.155408
290 0.113272
295 0.235127
300 0.137515
305 0.126852
310 0.185128
315 0.227029
320 0.109333
325 0.155021
330 0.111962
335 0.180144
340 0.179118
345 0.199895
350 0.233579
355 0.238466
360 0.276373
365 0.206935
370 0.174482
375 0.145808
380 0.308713
385 0.186988
390 0.234982
395 0.187793
400 0.258975
405 0.155837
410 0.165297
415 0.279168
420 0.178489
425 0.130145
430 0.31508
435 0.19722
440 0.196688
445 0.211785
450 0.337217
455 0.253178
460 0.244815
465 0.219304
470 0.210948
475 0.171157
480 0.188415
485 0.17954
490 0.290919
495 0.263576
500 0.211948
505 0.255433
510 0.231278
515 0.289602
520 0.250771
525 0.307633
530 0.242379
535 0.33407
540 0.448206
545 0.838391
550 0.993103
555 25.5118
560 620.479
565 1189.48
570 360.237
575 43.3373
580 5.65783
585 1.14589
590 0.501521
595 0.391735
600 0.324733
Ex : 573
200 0.097561
205 0.25133
210 0.207769
215 0.180232
220 0.290059
225 0.134506
230 0.145568
235 0.18331
240 0.205303
245 0.182835
250 0.223036
255 0.203499
260 0.136965
265 0.127016
270 0.135319
275 0.150437
280 0.113817
285 0.133003
290 0.192348
295 0.10044
300 0.098909
305 0.124017
310 0.163601
315 0.14961
320 0.170636
325 0.275135
330 0.228609
335 0.150828
340 0.126919
345 0.141184
350 0.30623
355 0.281853
360 0.204847
365 0.234419
370 0.225734
375 0.168597
380 0.138566
385 0.125446
390 0.231454
395 0.164733
400 0.277028
405 0.227017
410 0.180556
415 0.171534
420 0.125909
425 0.126495
430 0.136212
435 0.20692
440 0.236547
445 0.197829
450 0.25345
455 0.20091
460 0.140219
465 0.239987
470 0.215951
475 0.21314
480 0.142999
485 0.133998
490 0.135657
495 0.145143
500 0.207301
505 0.175655
510 0.277922
515 0.276717
520 0.269251
525 0.322464
530 0.369446
535 0.299089
540 0.390322
545 0.593945
550 0.570172
555 0.942875
560 21.7765
565 544.569
570 1104.45
575 345.108
580 41.1924
585 5.26972
590 1.08716
595 0.43715
600 1.44902
Ex : 578
200 0.111021
205 0.132423
210 0.127848
215 0.115555
220 0.111021
225 0.158809
230 0.171205
235 0.150933
240 0.0926837
245 0.110047
250 0.162813
255 0.168093
260 0.218869
265 0.160733
270 0.173395
275 0.1911
280 0.155557
285 0.146085
290 0.169428
295 0.142057
300 0.161438
305 0.179235
310 0.12778
315 0.143232
320 0.170996
325 0.152695
330 0.22316
335 0.162764
340 0.192488
345 0.176645
350 0.213384
355 0.273016
360 0.136451
365 0.202372
370 0.268607
375 0.219325
380 0.166436
385 0.181047
390 0.2876
395 0.176174
400 0.182659
405 0.142537
410 0.204225
415 0.177324
420 0.194273
425 0.198076
430 0.344983
435 0.248777
440 0.237821
445 0.248759
450 0.203695
455 0.147376
460 0.226677
465 0.228418
470 0.254426
475 0.220106
480 0.228529
485 0.18588
490 0.206008
495 0.188395
500 0.169356
505 0.219941
510 0.266535
515 0.228389
520 0.214698
525 0.22046
530 0.301092
535 0.314017
540 0.337157
545 0.312282
550 0.409004
555 0.623286
560 1.02474
565 18.1845
570 492.083
575 973.277
580 299.226
585 35.653
590 4.57537
595 0.995833
600 0.185665
Ex : 583
200 0.117067
205 0.134905
210 0.171089
215 0.123851
220 0.135028
225 0.110562
230 0.125029
235 0.103938
240 0.154524
245 0.260237
250 0.184329
255 0.177012
260 0.158385
265 0.0961962
270 0.0991803
275 0.173742
280 0.259763
285 0.129342
290 0.124993
295 0.177972
300 0.185771
305 0.0925453
310 0.107596
315 0.124173
320 0.169552
325 0.210598
330 0.139211
335 0.11208
340 0.215976
345 0.22093
350 0.190724
355 0.184
360 0.204003
365 0.192878
370 0.201745
375 0.195901
380 0.207242
385 0.165777
390 0.0695304
395 0.142963
400 0.125137
405 0.171209
410 0.15213
415 0.157105
420 0.222375
425 0.163446
430 0.194968
435 0.25337
440 0.153621
445 0.310104
450 0.232239
455 0.221868
460 0.241733
465 0.256833
470 0.239653
475 0.254013
480 0.187665
485 0.203366
490 0.124197
495 0.245967
500 0.223351
505 0.168029
510 0.322804
515 0.366543
520 0.23205
525 0.306698
530 0.209374
535 0.234094
540 0.346769
545 0.28352
550 0.412065
555 0.429394
560 0.591376
565 0.726207
570 16.314
575 441.846
580 845.758
585 244.758
590 29.1842
595 3.95358
600 1.04686
Ex : 588
200 0.135792
205 0.0815387
210 0.216193
215 0.208013
220 0.265475
225 0.182606
230 0.238996
235 0.210903
240 0.169155
245 0.131874
250 0.156492
255 0.215667
260 0.185404
265 0.217142
270 0.139273
275 0.208202
280 0.175727
285 0.131023
290 0.213187
295 0.169415
300 0.104488
305 0.19545
310 0.236248
315 0.133696
320 0.112808
325 0.119947
330 0.137063
335 0.238074
340 0.124947
345 0.151516
350 0.179617
355 0.154011
360 0.104086
365 0.227362
370 0.258476
375 0.17585
380 0.165905
385 0.141337
390 0.258499
395 0.26973
400 0.206176
405 0.263504
410 0.17035
415 0.201345
420 0.195475
425 0.14171
430 0.235205
435 0.231901
440 0.213138
445 0.246499
450 0.212933
455 0.115001
460 0.136393
465 0.201543
470 0.149624
475 0.172807
480 0.140203
485 0.237582
490 0.20477
495 0.203659
500 0.194599
505 0.124933
510 0.162582
515 0.211735
520 0.101502
525 0.236652
530 0.229638
535 0.207065
540 0.20787
545 0.231874
550 0.316857
555 0.361071
560 0.410263
565 0.406783
570 0.746824
575 15.1511
580 364.631
585 704.449
590 212.479
595 25.5304
600 3.70156
Ex : 593
200 0.227944
205 0.229296
210 0.159265
215 0.145115
220 0.10131
225 0.14641
230 0.112533
235 0.248302
240 0.182587
245 0.151569
250 0.203005
255 0.247424
260 0.190859
265 0.153847
270 0.170617
275 0.133635
280 0.253522
285 0.159136
290 0.153415
295 0.0836142
300 0.191011
305 0.205979
310 0.137971
315 0.229733
320 0.0842204
325 0.336233
330 0.203266
335 0.0949983
340 0.216137
345 0.0999966
350 0.167305
355 0.182703
360 0.202638
365 0.192632
370 0.145835
375 0.182175
380 0.126159
385 0.0915641
390 0.114037
395 0.170095
400 0.289868
405 0.188011
410 0.196026
415 0.164228
420 0.166014
425 0.117555
430 0.116142
435 0.156973
440 0.228449
445 0.130832
450 0.190708
455 0.163707
460 0.23173
465 0.17214
470 0.332376
475 0.227307
480 0.234651
485 0.273554
490 0.194428
495 0.158328
500 0.247397
505 0.25394
510 0.21166
515 0.187288
520 0.210389
525 0.200158
530 0.197444
535 0.312985
540 0.190542
545 0.368814
550 0.192288
555 0.315564
560 0.290398
565 0.48618
570 0.594887
575 0.641395
580 12.5439
585 319.869
590 598.59
595 182.16
600 26.7527
Ex : 598
200 0.166729
205 0.214405
210 0.129233
215 0.0639584
220 0.185056
225 0.102066
230 0.140955
235 0.131581
240 0.177978
245 0.19746
250 0.133964
255 0.0941716
260 0.120315
265 0.212645
270 0.247948
275 0.16405
280 0.179353
285 0.322855
290 0.275494
295 0.109184
300 0.0678759
305 0.113477
310 0.164441
315 0.155957
320 0.190111
325 0.169503
330 0.186967
335 0.151983
340 0.153725
345 0.100612
350 0.179519
355 0.237094
360 0.172104
365 0.215231
370 0.28704
375 0.331655
380 0.200709
385 0.188073
390 0.223992
395 0.107063
400 0.220603
405 0.293277
410 0.200127
415 0.132177
420 0.196539
425 0.193157
430 0.277316
435 0.229482
440 0.16725
445 0.173206
450 0.166595
455 0.182808
460 0.200198
465 0.169242
470 0.184623
475 0.167616
480 0.141036
485 0.136327
490 0.119803
495 0.237833
500 0.12972
505 0.277316
510 0.171734
515 0.206493
520 0.229203
525 0.162861
530 0.384799
535 0.323209
540 0.167614
545 0.282942
550 0.19497
555 0.115152
560 0.410088
565 0.380429
570 0.286105
575 0.44594
580 0.517522
585 12.4696
590 294.383
595 533.528
600 353.808
Ex : 603
200 0.180238
205 0.119735
210 0.295105
215 0.13456
220 0.203189
225 0.212461
230 0.179695
235 0.137156
240 0.277828
245 0.2014
250 0.0902651
255 0.165795
260 0.209294
265 0.26941
270 0.257382
275 0.118015
280 0.16361
285 0.124547
290 0.321621
295 0.139264
300 0.181158
305 0.201634
310 0.314066
315 0.165124
320 0.2097
325 0.241817
330 0.0997492
335 0.16834
340 0.228849
345 0.231429
350 0.223465
355 0.217603
360 0.249207
365 0.144677
370 0.135686
375 0.259736
380 0.161145
385 0.217188
390 0.148871
395 0.220091
400 0.18697
405 0.24208
410 0.205914
415 0.159852
420 0.157961
425 0.25293
430 0.137449
435 0.198178
440 0.163719
445 0.203344
450 0.122447
455 0.136802
460 0.250259
465 0.182029
470 0.335594
475 0.394751
480 0.228535
485 0.13123
490 0.276416
495 0.202691
500 0.214073
505 0.200083
510 0.258762
515 0.179999
520 0.216326
525 0.204386
530 0.231464
535 0.191374
540 0.184411
545 0.151702
550 0.140126
555 0.255422
560 0.232902
565 0.230945
570 0.269235
575 0.470395
580 0.381028
585 0.480253
590 10.8941
595 255.352
600 512.349
