File format V 1.0
ven. 6. janv. 03:02:23 2017
Operator : 
Comments : 

=============================================
SpectroFluorometer parameters
Mode : 3D measurement
Data : Fluorescence
Phospho. : Ordinary
Spectrum : Fluorescence

Scan speed : 2400 nm/mn
Response : 100 ms
PM Voltage : 700 V
Shutter : On

Lambda Ex. Start : 203
Lambda Ex. End : 603
Lambda Ex. Step : 5
Ex. Slit : 5 nm

Lambda Em. Start : 200
Lambda Em. End : 600
Lambda Em. Step : 5
Em. Slit : 5 nm

Repetition : 1
Decal lambda em : 10
=============================================
DATA
Ex : 203
200 3.71166
205 1.86386
210 4.37786
215 3.94051
220 2.87851
225 2.71745
230 3.68717
235 2.98224
240 2.24068
245 5.01131
250 3.45758
255 3.35326
260 1.98213
265 2.64404
270 1.88423
275 3.68491
280 4.99805
285 3.70001
290 1.85751
295 2.15032
300 7.58082
305 9.26519
310 5.52012
315 2.23015
320 2.8495
325 3.19212
330 2.29907
335 2.89128
340 4.89905
345 4.09636
350 3.63116
355 3.78511
360 4.77654
365 3.11127
370 6.61465
375 4.45496
380 4.50847
385 5.52256
390 6.02783
395 5.84612
400 3.35303
405 3.13456
410 4.81183
415 4.6708
420 3.81886
425 3.5276
430 2.42937
435 3.7764
440 3.25919
445 2.49059
450 4.1766
455 4.73942
460 6.98722
465 3.38422
470 4.91392
475 6.52143
480 3.55332
485 4.57406
490 5.16357
495 5.25765
500 2.07898
505 4.97716
510 4.14176
515 3.21198
520 5.81995
525 5.92621
530 7.37999
535 3.46201
540 7.20162
545 3.94205
550 2.85796
555 5.86543
560 4.0279
565 3.44498
570 6.08905
575 1.34196
580 3.40803
585 4.61478
590 1.89371
595 3.85878
600 6.64254
Ex : 208
200 1.96178
205 2.49447
210 5.43311
215 9.34946
220 4.52766
225 4.45504
230 6.31377
235 2.32922
240 6.61317
245 4.73464
250 4.36345
255 5.99439
260 4.1978
265 6.46867
270 2.40462
275 2.68854
280 2.66546
285 5.45887
290 3.90891
295 2.80991
300 2.26823
305 2.84288
310 1.54888
315 4.58881
320 2.64317
325 3.44378
330 3.27509
335 4.94665
340 3.81232
345 3.23658
350 2.44648
355 3.26862
360 2.57842
365 4.54029
370 9.23785
375 6.95003
380 2.86984
385 1.45744
390 4.24891
395 5.29511
400 4.97188
405 4.30639
410 5.23641
415 2.97581
420 5.72128
425 7.45926
430 3.44056
435 2.01882
440 3.12897
445 3.08054
450 3.2648
455 3.8939
460 3.00044
465 1.3218
470 3.94593
475 4.85201
480 3.47311
485 3.41055
490 3.20982
495 5.32123
500 4.88396
505 2.67548
510 5.24107
515 3.93445
520 2.78459
525 5.68074
530 4.43896
535 3.99294
540 3.40282
545 1.85646
550 1.81601
555 3.23406
560 2.45653
565 3.7201
570 1.40736
575 4.72353
580 3.29818
585 8.82303
590 2.82996
595 4.82163
600 0.548684
Ex : 213
200 4.76398
205 2.44451
210 4.01131
215 4.5187
220 3.83889
225 2.84145
230 8.58467
235 2.7328
240 2.19344
245 2.30123
250 3.39981
255 8.1542
260 3.06596
265 5.90831
270 2.89632
275 2.54213
280 2.30136
285 2.35039
290 9.528
295 3.04498
300 2.08609
305 1.89545
310 2.91651
315 1.1943
320 3.65677
325 5.35958
330 2.34844
335 1.32623
340 7.77347
345 7.9515
350 5.08565
355 4.40736
360 5.80703
365 2.69218
370 4.1783
375 4.7084
380 3.49715
385 6.54359
390 3.37042
395 1.93574
400 3.63216
405 4.40658
410 3.35766
415 4.45742
420 4.33609
425 12.5052
430 5.92137
435 2.71642
440 4.46115
445 7.85552
450 6.51032
455 4.88262
460 5.52728
465 3.68934
470 3.85103
475 3.98305
480 1.47793
485 5.10644
490 3.23346
495 4.82775
500 4.30774
505 2.90454
510 4.49837
515 5.43465
520 4.98853
525 2.05737
530 2.09341
535 5.69838
540 2.77644
545 2.12787
550 2.3576
555 3.73201
560 2.11756
565 3.14938
570 2.55088
575 3.55816
580 3.60197
585 5.32803
590 2.55377
595 6.81919
600 0.775998
Ex : 218
200 1.93902
205 2.8564
210 4.13348
215 6.61472
220 2.42353
225 3.38713
230 5.68407
235 4.92247
240 3.19545
245 3.50349
250 2.92255
255 3.33203
260 1.57236
265 2.06081
270 3.15687
275 2.58066
280 3.76878
285 2.7607
290 2.63824
295 2.64639
300 2.36328
305 3.49686
310 3.66964
315 2.64821
320 2.1233
325 4.48274
330 5.46347
335 3.31217
340 5.50222
345 4.82759
350 1.57403
355 3.76396
360 3.24498
365 5.10116
370 4.41288
375 7.14604
380 7.27509
385 5.48962
390 3.23185
395 7.06094
400 5.67488
405 6.04661
410 4.69457
415 2.9727
420 3.86638
425 6.4205
430 3.88347
435 3.96402
440 4.08299
445 2.99906
450 5.38583
455 3.30515
460 6.21029
465 4.6361
470 2.27995
475 4.26358
480 5.17273
485 5.0135
490 2.87465
495 4.76958
500 5.15731
505 4.52251
510 3.63746
515 3.44568
520 1.69869
525 5.0484
530 2.31831
535 3.57745
540 4.6522
545 2.83237
550 1.93216
555 3.27117
560 1.91631
565 4.32343
570 2.56939
575 3.78294
580 2.23204
585 5.25551
590 3.42283
595 7.13118
600 0.811501
Ex : 223
200 2.63125
205 4.43504
210 4.05475
215 2.65184
220 2.37817
225 1.08024
230 4.60865
235 3.56206
240 1.52391
245 3.14248
250 3.94852
255 5.55428
260 6.99096
265 3.0427
270 4.96559
275 3.72638
280 2.5028
285 1.31362
290 4.55849
295 1.96099
300 3.49529
305 3.43844
310 2.79746
315 1.53217
320 1.45801
325 2.26344
330 4.74614
335 5.49241
340 4.1212
345 3.69435
350 3.11124
355 4.09709
360 2.54478
365 2.18539
370 3.63652
375 6.73686
380 5.2667
385 2.89008
390 3.25007
395 2.58273
400 2.47159
405 5.85084
410 4.92724
415 2.48371
420 4.1545
425 2.0711
430 1.84696
435 2.34716
440 3.00961
445 3.6159
450 5.68439
455 2.71126
460 2.84406
465 8.01522
470 5.34312
475 5.51857
480 5.56138
485 1.54609
490 4.88463
495 2.21375
500 3.931
505 3.7915
510 5.70465
515 3.28461
520 5.19284
525 4.41302
530 3.67688
535 3.6734
540 5.06107
545 1.30349
550 2.14372
555 1.11414
560 2.65727
565 2.60331
570 4.77775
575 3.65376
580 2.04299
585 3.06834
590 4.59333
595 4.15165
600 0.472442
Ex : 228
200 1.82286
205 4.11479
210 3.56996
215 5.58485
220 2.85376
225 0.988105
230 2.32795
235 3.94965
240 1.39438
245 4.42948
250 2.51019
255 1.64042
260 6.27363
265 2.19452
270 2.72792
275 4.78196
280 4.60409
285 4.57202
290 2.77701
295 4.83779
300 5.6692
305 3.12358
310 4.90049
315 2.89265
320 2.55487
325 6.11176
330 2.72793
335 3.42525
340 4.5254
345 9.55962
350 2.5202
355 3.22392
360 2.93089
365 2.7432
370 3.27673
375 4.07251
380 3.6826
385 6.48357
390 2.86857
395 1.76324
400 2.30538
405 1.62857
410 7.19155
415 3.58212
420 3.29636
425 3.86488
430 4.73687
435 2.84419
440 2.34995
445 4.09261
450 2.08115
455 1.94792
460 6.16079
465 7.68187
470 2.64127
475 2.52626
480 6.79123
485 4.28419
490 2.67869
495 3.03161
500 4.0164
505 3.75016
510 3.36389
515 3.49147
520 2.69735
525 2.2484
530 2.94485
535 5.00493
540 3.01527
545 1.51798
550 2.48392
555 7.13771
560 3.34953
565 3.52001
570 1.88111
575 2.85157
580 3.22758
585 7.43115
590 4.16497
595 2.24079
600 5.12911
Ex : 233
200 2.89796
205 3.96866
210 2.42196
215 2.78575
220 3.16417
225 1.6774
230 1.63755
235 1.40734
240 3.82894
245 3.14329
250 2.44629
255 2.19462
260 4.25442
265 1.92933
270 1.34702
275 2.77294
280 1.53408
285 5.08209
290 2.75975
295 3.77965
300 3.94327
305 3.14315
310 7.04364
315 3.75392
320 1.38086
325 1.81415
330 4.75215
335 2.5657
340 2.08255
345 4.55414
350 3.54504
355 3.41929
360 6.06665
365 2.96848
370 3.97947
375 4.46187
380 2.5171
385 1.77338
390 4.66081
395 2.21096
400 2.89544
405 2.62513
410 5.77263
415 3.23156
420 3.64717
425 10.0986
430 3.05754
435 2.68807
440 2.47217
445 2.63663
450 3.37042
455 2.3845
460 3.38269
465 6.03955
470 4.54825
475 2.43929
480 3.51698
485 4.11748
490 3.79663
495 3.22461
500 3.88333
505 3.11042
510 2.44723
515 5.92446
520 5.73273
525 4.17791
530 3.11623
535 1.9744
540 3.215
545 3.45804
550 4.76292
555 2.83136
560 4.11292
565 3.53065
570 3.74518
575 4.49489
580 3.09922
585 4.02683
590 1.70789
595 2.71662
600 0.309141
Ex : 238
200 2.94064
205 2.17486
210 2.43428
215 2.65422
220 1.97875
225 4.17651
230 2.17817
235 3.80553
240 2.7921
245 1.24907
250 2.47774
255 5.86033
260 2.41878
265 2.25185
270 1.3599
275 4.18042
280 2.5585
285 3.71386
290 1.1242
295 2.21988
300 1.39143
305 3.61075
310 2.29925
315 2.79067
320 2.78659
325 2.84032
330 2.39544
335 4.54722
340 3.65665
345 2.26306
350 4.21963
355 3.18566
360 5.15646
365 2.6155
370 2.31424
375 2.74632
380 4.91656
385 2.19774
390 2.2512
395 1.76617
400 3.62514
405 1.70456
410 3.55722
415 4.51149
420 2.80475
425 3.12686
430 1.98428
435 3.11122
440 3.19454
445 3.72944
450 2.31785
455 4.57412
460 3.99953
465 2.09502
470 2.6103
475 3.27791
480 3.33547
485 3.45318
490 2.91661
495 4.90241
500 4.63684
505 2.28814
510 2.86465
515 2.07032
520 2.19312
525 2.02608
530 4.48837
535 3.40323
540 4.34078
545 4.26919
550 2.78415
555 2.06833
560 4.37651
565 1.63865
570 2.71972
575 4.62531
580 2.68494
585 2.83755
590 1.69819
595 3.92912
600 0.447119
Ex : 243
200 5.2439
205 3.96211
210 1.52723
215 1.21639
220 2.67863
225 1.45388
230 2.8027
235 1.71313
240 2.00974
245 2.01652
250 3.55091
255 3.75527
260 2.94301
265 2.31831
270 3.26648
275 2.25062
280 1.36296
285 2.30143
290 2.46072
295 2.86298
300 3.00666
305 5.3143
310 2.10826
315 1.92443
320 2.58831
325 1.38199
330 1.66682
335 4.39737
340 1.43269
345 1.67413
350 1.5548
355 2.66938
360 1.46667
365 1.23412
370 4.20826
375 2.89303
380 1.63599
385 2.07339
390 1.6844
395 4.29715
400 1.64815
405 1.32013
410 2.50878
415 2.12248
420 2.52874
425 2.94277
430 3.85395
435 1.85793
440 2.60115
445 5.56758
450 4.03629
455 2.02219
460 2.53347
465 2.31951
470 2.68993
475 3.0908
480 2.74447
485 4.15881
490 1.23761
495 2.06483
500 1.89755
505 3.22436
510 2.91889
515 1.62682
520 1.61413
525 2.51772
530 3.33141
535 1.61306
540 2.36646
545 4.51733
550 2.75458
555 1.30012
560 1.59345
565 2.54938
570 2.71627
575 2.40442
580 3.5595
585 3.06761
590 1.91169
595 2.9515
600 45.9121
Ex : 248
200 2.53287
205 1.43058
210 0.739287
215 0.632018
220 2.82705
225 2.98332
230 1.45261
235 1.57678
240 2.46537
245 2.27289
250 1.77697
255 2.23271
260 1.96869
265 1.4814
270 1.7004
275 3.10889
280 2.70442
285 3.68391
290 0.741756
295 1.26705
300 1.22629
305 2.08614
310 2.67684
315 1.27944
320 2.14108
325 4.05277
330 2.37067
335 3.39792
340 2.14395
345 1.39872
350 1.45486
355 1.26523
360 1.97385
365 5.48567
370 2.70068
375 2.7467
380 3.24752
385 2.22142
390 3.31849
395 3.19226
400 2.43952
405 2.71993
410 1.7987
415 1.68833
420 1.97971
425 1.45165
430 1.06076
435 2.53707
440 2.02012
445 4.2743
450 1.99542
455 1.25146
460 4.16777
465 3.11455
470 3.25174
475 3.16616
480 1.26975
485 3.34415
490 3.71156
495 1.82147
500 2.00064
505 0.985564
510 3.81466
515 3.1597
520 3.0033
525 1.27684
530 0.612192
535 1.24623
540 1.81068
545 2.08684
550 3.27812
555 1.53542
560 2.864
565 2.33271
570 1.33714
575 2.39429
580 2.17718
585 1.472
590 0.933954
595 1.64791
600 6.39095
Ex : 253
200 1.57534
205 2.41796
210 1.87282
215 1.63155
220 0.660327
225 1.99443
230 1.33598
235 2.65549
240 1.81454
245 2.19608
250 0.754893
255 1.68055
260 1.5944
265 1.80782
270 1.89221
275 2.18104
280 0.758433
285 1.24538
290 1.15522
295 1.25349
300 2.38333
305 1.98637
310 1.28045
315 2.02825
320 2.47449
325 2.19033
330 1.76234
335 2.06133
340 2.43587
345 3.59392
350 1.25074
355 2.53057
360 2.39398
365 2.83454
370 1.50078
375 3.33063
380 1.45852
385 1.32388
390 1.72165
395 3.1933
400 2.56117
405 2.94236
410 2.75524
415 2.20861
420 2.1819
425 1.36678
430 1.8413
435 3.03476
440 3.14494
445 2.45277
450 2.63809
455 1.78133
460 2.30306
465 3.45956
470 1.55924
475 1.45167
480 2.34153
485 2.03396
490 2.85771
495 1.27398
500 1.71084
505 2.40772
510 1.98075
515 1.09887
520 1.80443
525 1.1988
530 2.20507
535 0.969192
540 1.39577
545 1.97908
550 0.996758
555 1.4756
560 2.34135
565 1.54736
570 1.18417
575 1.41346
580 2.32797
585 3.30895
590 1.21211
595 0.453496
600 0.0516061
Ex : 258
200 1.49007
205 1.55523
210 0.934317
215 1.49026
220 0.842779
225 1.00829
230 2.41408
235 2.338
240 0.619733
245 1.80025
250 0.967818
255 1.21491
260 0.790217
265 2.2796
270 1.04077
275 0.579262
280 1.3763
285 1.27806
290 0.857274
295 0.492781
300 1.4964
305 1.14231
310 2.02786
315 1.24011
320 0.837133
325 1.29897
330 2.03582
335 2.04183
340 1.65746
345 2.82744
350 2.14652
355 1.92593
360 1.47004
365 1.29163
370 1.16391
375 2.16993
380 1.95071
385 2.01824
390 2.07879
395 1.42609
400 1.33055
405 1.28798
410 1.69009
415 2.56932
420 1.49833
425 1.53054
430 1.41083
435 1.04871
440 0.729611
445 0.959743
450 1.18574
455 2.38621
460 1.74382
465 1.4796
470 0.872792
475 2.31879
480 1.41987
485 1.68371
490 1.78677
495 1.4633
500 1.46695
505 1.79889
510 2.68568
515 2.22243
520 2.87169
525 2.92435
530 2.88366
535 1.49442
540 2.05298
545 2.54128
550 1.62838
555 1.55038
560 1.06464
565 1.04528
570 1.90892
575 1.64365
580 0.535048
585 2.2032
590 0.729584
595 0.897211
600 3.24409
Ex : 263
200 0.5
205 1.61881
210 0.546539
215 0.949934
220 0.700401
225 0.688968
230 0.330287
235 0.352543
240 0.898819
245 0.997717
250 0.891815
255 0.909678
260 1.00659
265 1.14383
270 0.842813
275 1.39924
280 1.38059
285 0.903872
290 0.545191
295 0.596277
300 0.87112
305 0.947003
310 0.665688
315 0.507091
320 0.652091
325 1.03956
330 1.22252
335 1.22345
340 2.21674
345 1.08862
350 2.00257
355 0.89101
360 1.58867
365 1.61115
370 0.884026
375 1.57812
380 1.9984
385 1.52634
390 0.691663
395 1.58526
400 1.65379
405 2.46921
410 1.26515
415 1.02712
420 1.58211
425 1.26772
430 1.05354
435 1.09606
440 0.632655
445 0.742801
450 0.716005
455 0.801807
460 0.673562
465 1.03209
470 1.77676
475 1.15715
480 1.90409
485 1.76209
490 1.12915
495 1.21301
500 0.914239
505 1.43797
510 1.24939
515 1.38882
520 1.78095
525 1.03913
530 1.73674
535 2.18899
540 1.02301
545 1.74188
550 0.484437
555 0.962612
560 0.750754
565 1.45418
570 0.495876
575 1.47214
580 0.828289
585 1.59132
590 0.443161
595 0.622174
600 2.86575
Ex : 268
200 1.56545
205 0.510018
210 0.525925
215 0.836032
220 0.458677
225 0.429045
230 0.981222
235 1.05574
240 0.646706
245 0.713424
250 0.298464
255 0.498506
260 0.842721
265 0.759938
270 0.747233
275 0.496441
280 0.588935
285 0.891309
290 0.852137
295 0.709731
300 0.71429
305 0.789283
310 0.961513
315 1.08533
320 0.929588
325 0.599059
330 0.777134
335 0.858574
340 0.624569
345 1.05331
350 1.29044
355 1.20982
360 1.31807
365 0.711974
370 0.762251
375 0.946201
380 1.04033
385 1.15535
390 0.613884
395 0.626762
400 1.05396
405 1.46851
410 2.26814
415 1.34796
420 0.790048
425 0.933326
430 1.26025
435 1.19254
440 1.33717
445 1.32483
450 0.68053
455 0.786647
460 1.39367
465 1.47153
470 1.12771
475 0.553516
480 0.573336
485 1.16724
490 0.39845
495 0.752123
500 0.60583
505 1.51764
510 1.10255
515 1.10347
520 0.600537
525 0.922597
530 1.69918
535 1.30142
540 0.620334
545 0.939869
550 1.0747
555 1.19641
560 0.800189
565 0.796184
570 0.359999
575 0.766599
580 0.810989
585 0.789808
590 0.665366
595 1.21321
600 0.138059
Ex : 273
200 0.311956
205 1.00601
210 0.749853
215 0.521689
220 1.31994
225 0.892778
230 0.519891
235 0.476485
240 0.728167
245 0.504493
250 0.296419
255 0.327189
260 0.304375
265 0.492032
270 0.540895
275 1.26663
280 0.996069
285 0.491893
290 0.708659
295 0.378329
300 0.594858
305 0.680086
310 0.811982
315 0.912923
320 0.56479
325 1.30476
330 0.759584
335 0.614808
340 1.05023
345 0.624804
350 0.519104
355 0.617162
360 0.625467
365 0.605405
370 0.825264
375 0.767388
380 0.652988
385 0.66739
390 0.800135
395 1.16213
400 0.513141
405 0.702016
410 1.02129
415 0.872185
420 0.680337
425 1.49149
430 0.709586
435 1.01215
440 0.461954
445 1.40015
450 0.933789
455 0.660017
460 0.917597
465 1.08422
470 0.773262
475 0.921378
480 0.881768
485 0.740759
490 0.873679
495 0.930659
500 1.03357
505 0.703814
510 0.695862
515 0.740151
520 0.72508
525 0.3617
530 0.651414
535 0.586465
540 1.3133
545 1.32312
550 0.793479
555 1.44784
560 1.01575
565 0.860671
570 0.887415
575 1.22189
580 0.597627
585 0.852596
590 0.804413
595 0.238085
600 0.0270931
Ex : 278
200 0.418895
205 0.16212
210 0.353855
215 0.236674
220 0.466852
225 0.809122
230 0.651189
235 0.262927
240 0.273144
245 0.517814
250 0.496119
255 0.288519
260 0.449356
265 0.684831
270 0.613531
275 1.02559
280 0.590724
285 0.368515
290 0.483444
295 0.475342
300 0.336719
305 0.462361
310 0.568356
315 1.28776
320 0.380558
325 0.276898
330 0.363338
335 0.369894
340 0.979027
345 0.979511
350 0.344718
355 0.648493
360 1.06478
365 0.58357
370 0.468862
375 0.777048
380 0.553122
385 0.849804
390 0.574013
395 0.603884
400 0.65846
405 1.21117
410 0.989545
415 0.537346
420 0.496793
425 0.302656
430 0.907778
435 1.19849
440 0.892842
445 0.941205
450 0.989292
455 0.862752
460 0.757456
465 1.01854
470 0.630992
475 0.35116
480 0.709978
485 0.436708
490 0.407385
495 0.493031
500 0.672281
505 0.624877
510 0.571591
515 0.208449
520 0.452171
525 0.936058
530 0.488046
535 0.316374
540 0.719782
545 0.888058
550 1.23422
555 0.99866
560 0.580871
565 0.279654
570 0.927573
575 0.736168
580 0.587426
585 0.65236
590 0.969302
595 0.817669
600 0.802011
Ex : 283
200 0.679468
205 0.368381
210 0.672577
215 0.242866
220 0.518367
225 0.316889
230 0.333427
235 0.457654
240 0.697553
245 0.916643
250 0.257263
255 0.419494
260 0.498028
265 0.195556
270 0.2612
275 0.325342
280 0.419731
285 0.592062
290 0.406256
295 0.662976
300 0.634323
305 0.222498
310 0.255957
315 0.176076
320 0.208099
325 0.586079
330 0.692679
335 0.445804
340 0.418515
345 0.410372
350 0.559454
355 0.356433
360 0.400151
365 1.05853
370 0.989681
375 0.655129
380 0.705005
385 0.559487
390 0.698452
395 0.704377
400 0.927369
405 0.49206
410 1.1518
415 0.753825
420 0.858421
425 0.885056
430 0.916261
435 0.801931
440 0.849177
445 0.830898
450 0.517559
455 0.573571
460 1.00399
465 0.670688
470 0.365034
475 0.559255
480 0.652474
485 0.391034
490 0.399375
495 0.620887
500 0.279634
505 0.447086
510 0.584576
515 0.241794
520 0.81745
525 0.456425
530 0.434843
535 0.312647
540 0.624437
545 0.735384
550 0.627117
555 0.399636
560 0.958776
565 0.651114
570 0.499839
575 0.498006
580 0.522106
585 0.424899
590 0.455862
595 0.199687
600 0.0227236
Ex : 288
200 0.288156
205 0.26271
210 0.264911
215 0.270296
220 0.282308
225 0.297768
230 0.443158
235 0.321973
240 0.338779
245 0.426544
250 0.284091
255 0.580695
260 0.471892
265 0.505576
270 0.490458
275 0.355952
280 0.429306
285 0.513316
290 0.634118
295 0.225467
300 0.362625
305 0.341476
310 0.280801
315 0.239225
320 0.210557
325 0.399105
330 0.494604
335 0.196211
340 0.426188
345 0.414671
350 0.395478
355 0.370703
360 0.507222
365 0.500277
370 0.693009
375 0.601168
380 0.411951
385 0.508077
390 0.677448
395 1.04147
400 0.55334
405 0.494525
410 0.55085
415 1.17707
420 0.779999
425 0.388918
430 0.460938
435 0.861005
440 0.695215
445 0.309011
450 0.231673
455 0.376108
460 0.425875
465 0.67525
470 0.396228
475 0.420663
480 0.433295
485 0.27845
490 0.694129
495 0.361867
500 0.366981
505 0.688078
510 0.442012
515 0.24895
520 0.355696
525 0.439378
530 0.381983
535 0.56074
540 0.204399
545 0.580871
550 0.213617
555 0.522354
560 0.534233
565 0.312818
570 1.11959
575 0.78185
580 0.36027
585 0.409698
590 0.256742
595 0.325159
600 0.0370019
Ex : 293
200 0.277894
205 0.212034
210 0.226253
215 0.187721
220 0.24198
225 0.137904
230 0.431408
235 0.498448
240 0.547758
245 0.15067
250 0.337347
255 0.455426
260 0.314595
265 0.260816
270 0.122989
275 0.337538
280 0.245721
285 0.549998
290 0.485793
295 0.188446
300 0.246727
305 0.141129
310 0.461035
315 0.425825
320 0.303986
325 0.635464
330 0.314219
335 0.43516
340 0.51341
345 0.480649
350 0.623371
355 0.673839
360 0.713037
365 0.459211
370 0.486989
375 0.714329
380 0.547539
385 0.430672
390 0.518452
395 0.657632
400 0.427646
405 0.581594
410 0.434032
415 0.468384
420 0.750241
425 0.568588
430 0.616649
435 0.308998
440 0.560458
445 0.56318
450 0.417067
455 0.534104
460 0.525422
465 0.643321
470 0.525237
475 0.370012
480 0.32545
485 0.38834
490 0.438734
495 0.367692
500 0.53267
505 0.370624
510 0.286339
515 0.154564
520 0.357509
525 0.420485
530 0.232026
535 0.316106
540 0.517482
545 0.349172
550 0.183443
555 0.317518
560 0.135894
565 0.164402
570 0.479384
575 0.445935
580 0.747214
585 1.24355
590 0.574223
595 0.460728
600 0.0524291
Ex : 298
200 0.0853549
205 0.326588
210 0.315559
215 0.153295
220 0.198458
225 0.298129
230 0.276582
235 0.156623
240 0.20729
245 0.154492
250 0.125822
255 0.380939
260 0.250509
265 0.295948
270 0.367269
275 0.158368
280 0.104253
285 0.174368
290 0.524396
295 0.467635
300 0.409972
305 0.430743
310 0.433816
315 0.148013
320 0.260712
325 0.522591
330 0.381428
335 0.483498
340 0.410948
345 0.259825
350 0.42073
355 0.326223
360 0.42132
365 0.417464
370 0.290817
375 0.446224
380 0.50159
385 0.532988
390 0.591894
395 0.505442
400 0.465536
405 0.432025
410 0.560156
415 0.564079
420 0.615606
425 0.488809
430 0.655284
435 0.54044
440 0.550579
445 0.419062
450 0.363755
455 0.256354
460 0.458578
465 0.513075
470 0.379844
475 0.386913
480 0.297114
485 0.613842
490 0.699238
495 0.473616
500 0.500643
505 0.270392
510 0.41109
515 0.265202
520 0.265237
525 0.217921
530 0.452974
535 0.390721
540 0.146105
545 0.64635
550 0.323869
555 0.189872
560 0.2593
565 0.207718
570 0.141717
575 0.237179
580 0.201632
585 0.783708
590 0.92696
595 0.643379
600 0.156818
Ex : 303
200 0.193222
205 0.150068
210 0.103099
215 0.239513
220 0.264907
225 0.317093
230 0.206441
235 0.0864694
240 0.261582
245 0.275622
250 0.419885
255 0.190389
260 0.394604
265 0.171505
270 0.22327
275 0.0976216
280 0.246124
285 0.248333
290 0.185348
295 0.508332
300 0.465115
305 0.324293
310 0.260295
315 0.265684
320 0.10849
325 0.264458
330 0.211763
335 0.284808
340 0.324676
345 0.373781
350 0.283814
355 0.35934
360 0.661932
365 0.384959
370 0.596463
375 0.853106
380 0.600494
385 0.62607
390 0.488932
395 0.60578
400 0.466923
405 0.548004
410 0.616238
415 0.572191
420 0.286839
425 0.533341
430 0.680859
435 0.424239
440 0.343678
445 0.55776
450 0.594557
455 0.54455
460 0.356325
465 0.288338
470 0.457437
475 0.578315
480 0.332776
485 0.261416
490 0.373008
495 0.198937
500 0.483113
505 0.306414
510 0.47623
515 0.383871
520 0.410303
525 0.503973
530 0.195483
535 0.166917
540 0.301669
545 0.172798
550 0.250048
555 0.250975
560 0.354012
565 0.278516
570 0.264112
575 0.143054
580 0.291513
585 0.102577
590 0.338807
595 0.467183
600 0.141784
Ex : 308
200 0.172907
205 0.108327
210 0.226524
215 0.0995259
220 0.253212
225 0.266147
230 0.179759
235 0.326341
240 0.280372
245 0.0901879
250 0.443898
255 0.129376
260 0.216063
265 0.214135
270 0.23341
275 0.517816
280 0.28699
285 0.26263
290 0.123348
295 0.0967652
300 0.450578
305 0.492523
310 0.169356
315 0.217611
320 0.100042
325 0.30984
330 0.239814
335 0.211492
340 0.322639
345 0.433159
350 0.318622
355 0.435004
360 0.619879
365 0.31522
370 0.607625
375 0.33142
380 0.531548
385 0.49731
390 0.802564
395 0.68061
400 0.645428
405 0.673799
410 0.617374
415 0.322367
420 0.473554
425 0.463209
430 0.355399
435 0.386846
440 0.519201
445 0.518687
450 0.512183
455 0.553193
460 0.481403
465 0.371743
470 0.356358
475 0.39728
480 0.429576
485 0.291758
490 0.2627
495 0.35839
500 0.380434
505 0.356413
510 0.335455
515 0.404742
520 0.260567
525 0.330246
530 0.285548
535 0.302887
540 0.225441
545 0.169214
550 0.149426
555 0.31383
560 0.328976
565 0.0919765
570 0.259798
575 0.372295
580 0.139175
585 0.096123
590 0.212321
595 0.139525
600 0.0158774
Ex : 313
200 0.336423
205 0.217555
210 0.171788
215 0.0940918
220 0.248112
225 0.125786
230 0.200559
235 0.252369
240 0.134678
245 0.380249
250 0.163144
255 0.0887702
260 0.211243
265 0.0968264
270 0.118429
275 0.287492
280 0.172332
285 0.131962
290 0.0819755
295 0.173658
300 0.222131
305 0.389763
310 0.467559
315 0.314924
320 0.126662
325 0.337978
330 0.377989
335 0.304755
340 0.495762
345 0.443829
350 0.420756
355 0.552397
360 0.427612
365 0.92339
370 0.674474
375 0.76629
380 0.899532
385 0.930963
390 1.14603
395 1.1124
400 1.39375
405 1.18327
410 1.0598
415 1.181
420 1.03351
425 1.3379
430 1.16578
435 1.01318
440 1.06325
445 1.04657
450 0.8491
455 1.12693
460 0.779034
465 0.618179
470 0.640335
475 0.528729
480 0.491351
485 0.518304
490 0.387393
495 0.301995
500 0.336469
505 0.534221
510 0.310679
515 0.215862
520 0.228867
525 0.247127
530 0.354307
535 0.306664
540 0.251122
545 0.212667
550 0.195414
555 0.17373
560 0.138162
565 0.16709
570 0.118254
575 0.311172
580 0.161134
585 0.322423
590 0.18319
595 0.114159
600 4.07202
Ex : 318
200 0.0604775
205 0.197827
210 0.133376
215 0.330325
220 0.110784
225 0.180254
230 0.231502
235 0.167023
240 0.272785
245 0.17334
250 0.0517055
255 0.169032
260 0.140768
265 0.154169
270 0.191412
275 0.12653
280 0.17764
285 0.113112
290 0.0602406
295 0.145198
300 0.18444
305 0.238935
310 0.579275
315 1.94809
320 1.06116
325 0.487469
330 0.624629
335 0.860111
340 1.35393
345 1.93907
350 2.73311
355 4.10494
360 4.82637
365 5.1064
370 6.42927
375 7.78925
380 8.73147
385 10.3497
390 10.5025
395 11.5081
400 12.6827
405 12.322
410 12.795
415 11.9452
420 11.8999
425 11.5374
430 11.1504
435 11.4753
440 10.918
445 9.56243
450 9.67597
455 8.45535
460 8.26134
465 7.19474
470 6.4598
475 6.08901
480 5.58941
485 4.6459
490 4.23253
495 3.84037
500 3.58915
505 2.77805
510 2.46445
515 1.91827
520 1.9462
525 1.37101
530 1.29542
535 1.07706
540 0.906506
545 0.682835
550 0.607109
555 0.608928
560 0.455716
565 0.512267
570 0.343577
575 0.484798
580 0.233175
585 0.310968
590 0.240424
595 0.196735
600 0.0223877
Ex : 323
200 0.144855
205 0.276485
210 0.197613
215 0.121401
220 0.071468
225 0.173303
230 0.151403
235 0.113967
240 0.125867
245 0.198667
250 0.0704418
255 0.106553
260 0.137611
265 0.126302
270 0.171854
275 0.10542
280 0.162265
285 0.134754
290 0.0902071
295 0.0914296
300 0.148635
305 0.0931693
310 0.226657
315 14.6374
320 58.2822
325 23.5938
330 4.26406
335 3.04232
340 3.9246
345 6.0476
350 9.2067
355 12.9011
360 15.1545
365 18.3362
370 22.1045
375 25.0971
380 28.9178
385 32.3103
390 35.576
395 37.1783
400 37.6051
405 38.793
410 39.8293
415 38.5417
420 36.3862
425 35.8892
430 34.9772
435 33.3207
440 32.3737
445 29.4795
450 28.5266
455 26.6834
460 24.9264
465 23.1655
470 21.0141
475 19.5183
480 17.3965
485 16.1913
490 14.7768
495 12.7337
500 11.1625
505 10.0094
510 8.65454
515 7.60817
520 6.88237
525 5.80529
530 4.89328
535 3.56708
540 3.38254
545 2.97325
550 2.27706
555 1.65143
560 1.52756
565 1.3756
570 1.18298
575 0.913212
580 0.559875
585 0.45376
590 0.304534
595 0.216116
600 0.0245931
Ex : 328
200 0.140785
205 0.151294
210 0.170594
215 0.12871
220 0.160129
225 0.223972
230 0.102932
235 0.333398
240 0.158949
245 0.1623
250 0.203576
255 0.280182
260 0.103275
265 0.0874734
270 0.178178
275 0.211923
280 0.0918465
285 0.135964
290 0.114172
295 0.196914
300 0.137426
305 0.102663
310 0.21919
315 3.30401
320 125.827
325 284.431
330 82.5701
335 12.9534
340 6.37041
345 7.05153
350 8.82487
355 13.0401
360 17.3199
365 19.827
370 20.8238
375 23.7083
380 27.0188
385 30.9049
390 33.5864
395 35.2264
400 36.621
405 36.6677
410 37.741
415 38.3317
420 37.0883
425 34.63
430 34.1823
435 32.7081
440 30.9164
445 29.1584
450 26.9174
455 25.371
460 24.2703
465 21.5288
470 19.9162
475 18.5603
480 16.9537
485 15.2547
490 13.6169
495 12.2151
500 10.8886
505 9.12181
510 7.98978
515 6.98164
520 5.96524
525 5.09442
530 4.0299
535 3.70876
540 3.23526
545 2.66657
550 2.23509
555 1.96252
560 1.77122
565 1.47031
570 1.15192
575 0.877041
580 0.699061
585 0.63232
590 0.516008
595 0.48393
600 0.334503
Ex : 333
200 0.114047
205 0.170445
210 0.119815
215 0.156449
220 0.200852
225 0.0989601
230 0.182052
235 0.126876
240 0.0967996
245 0.0622022
250 0.137682
255 0.0857766
260 0.157806
265 0.146478
270 0.127444
275 0.0662871
280 0.136814
285 0.225079
290 0.257628
295 0.256429
300 0.11418
305 0.205153
310 0.148534
315 0.241129
320 16.1544
325 315.066
330 521.68
335 135.824
340 19.1602
345 6.64034
350 5.86067
355 6.79485
360 9.58024
365 13.3957
370 14.4703
375 14.3074
380 14.7161
385 17.342
390 19.7845
395 21.2706
400 21.7228
405 22.105
410 22.2756
415 22.4782
420 21.4466
425 20.5081
430 19.9001
435 17.6879
440 17.4882
445 16.5471
450 15.369
455 14.3474
460 13.2867
465 11.3299
470 10.4553
475 9.74164
480 8.59977
485 8.43077
490 7.56001
495 6.83511
500 5.79486
505 5.26162
510 4.35195
515 3.9271
520 3.74452
525 2.91374
530 2.2234
535 2.28138
540 2.08688
545 1.70386
550 1.37354
555 1.41297
560 1.12014
565 1.0018
570 0.95682
575 0.707599
580 0.653674
585 0.332732
590 0.32149
595 0.30052
600 0.371799
Ex : 338
200 0.0948981
205 0.183221
210 0.123737
215 0.101246
220 0.0936413
225 0.125271
230 0.0557568
235 0.0994073
240 0.0965601
245 0.099296
250 0.108441
255 0.119982
260 0.194633
265 0.178436
270 0.0659441
275 0.0638705
280 0.163093
285 0.136573
290 0.121542
295 0.139154
300 0.0732176
305 0.133924
310 0.124001
315 0.199365
320 0.389192
325 28.4952
330 456.212
335 675.22
340 165.318
345 22.131
350 5.81005
355 3.85354
360 3.80105
365 5.22215
370 9.93762
375 9.88969
380 9.392
385 9.91359
390 12.0792
395 12.9222
400 12.1097
405 12.6225
410 13.979
415 14.4359
420 14.0538
425 12.0487
430 11.5536
435 11.4559
440 11.0193
445 10.2229
450 9.38192
455 8.94438
460 8.17071
465 7.77254
470 6.87175
475 6.09796
480 5.57761
485 5.36317
490 4.91524
495 4.07194
500 3.47406
505 3.32953
510 2.67526
515 2.63351
520 2.35154
525 2.07673
530 2.00826
535 1.47636
540 1.34872
545 1.24999
550 1.02954
555 0.888876
560 0.768866
565 0.806151
570 0.721642
575 0.522495
580 0.46624
585 0.438417
590 0.330604
595 0.340727
600 0.151202
Ex : 343
200 0.0953604
205 0.1082
210 0.107814
215 0.121392
220 0.0576302
225 0.112117
230 0.232538
235 0.0733003
240 0.0982191
245 0.0865894
250 0.197562
255 0.109367
260 0.107513
265 0.151359
270 0.134254
275 0.124263
280 0.118888
285 0.0957849
290 0.131519
295 0.0774135
300 0.152789
305 0.128732
310 0.229504
315 0.247098
320 0.157426
325 0.454054
330 32.5847
335 515.915
340 756.153
345 181.111
350 23.3536
355 5.57183
360 2.90944
365 2.02808
370 3.45289
375 7.36992
380 9.05834
385 9.38632
390 9.68685
395 10.407
400 9.93414
405 10.6014
410 11.6641
415 12.6043
420 12.2642
425 10.7821
430 10.0722
435 9.75016
440 9.3686
445 8.84908
450 8.1701
455 7.36984
460 7.11481
465 6.38942
470 6.04205
475 5.39489
480 4.91264
485 4.59301
490 4.1645
495 3.4896
500 3.35002
505 2.95311
510 2.61339
515 2.42191
520 2.18848
525 1.77432
530 1.53859
535 1.17455
540 1.3281
545 1.19689
550 0.995153
555 0.895046
560 0.917931
565 0.658281
570 0.610817
575 0.452298
580 0.419837
585 0.444753
590 0.341039
595 0.312255
600 1.25849
Ex : 348
200 0.0979207
205 0.0546643
210 0.068585
215 0.0968447
220 0.0795638
225 0.0884705
230 0.0869336
235 0.0825625
240 0.0559614
245 0.136433
250 0.131174
255 0.0760492
260 0.195535
265 0.117873
270 0.146836
275 0.135626
280 0.128642
285 0.0573633
290 0.104297
295 0.123512
300 0.0704034
305 0.178759
310 0.165066
315 0.21659
320 0.168962
325 0.336667
330 0.81281
335 34.0727
340 525.645
345 797.472
350 204.241
355 25.6319
360 5.12161
365 2.94668
370 1.88696
375 2.51815
380 6.62966
385 12.001
390 12.8702
395 13.3943
400 11.5338
405 11.6348
410 13.9989
415 15.2109
420 14.743
425 12.6799
430 11.4399
435 11.2139
440 11.7422
445 11.06
450 9.76998
455 8.36454
460 7.9026
465 7.43017
470 7.10445
475 6.23723
480 5.78851
485 5.4613
490 4.62561
495 4.12019
500 3.87086
505 3.3934
510 3.02251
515 2.67163
520 2.3254
525 1.96092
530 1.68388
535 1.58807
540 1.46471
545 1.38613
550 1.22768
555 1.22044
560 0.943747
565 0.7877
570 0.59456
575 0.497126
580 0.390713
585 0.361376
590 0.396947
595 0.234433
600 0.032182
Ex : 353
200 0.198748
205 0.169769
210 0.133821
215 0.129742
220 0.0810631
225 0.0816249
230 0.102031
235 0.120902
240 0.0543662
245 0.135742
250 0.0776194
255 0.100983
260 0.094706
265 0.0736242
270 0.0741625
275 0.0810691
280 0.062312
285 0.122987
290 0.088939
295 0.0875786
300 0.0937913
305 0.181041
310 0.0591797
315 0.162653
320 0.134774
325 0.40068
330 0.349297
335 0.748107
340 35.0469
345 542.921
350 800.444
355 197.101
360 24.8236
365 4.9867
370 2.51804
375 2.02853
380 2.95767
385 8.35615
390 15.5533
395 16.4373
400 13.9582
405 13.3434
410 14.6851
415 16.2712
420 16.4054
425 14.3436
430 12.5305
435 12.5621
440 12.389
445 11.8236
450 10.9258
455 9.53308
460 8.61117
465 8.02693
470 7.73279
475 7.24854
480 6.69909
485 5.62754
490 5.03964
495 4.59487
500 4.08186
505 3.78807
510 3.43969
515 2.885
520 2.58857
525 2.36379
530 1.96766
535 1.6836
540 1.42417
545 1.40314
550 1.20939
555 1.07674
560 0.876536
565 0.757582
570 0.639059
575 0.422859
580 0.404297
585 0.353678
590 0.361259
595 0.281698
600 0.444599
Ex : 358
200 0.0928163
205 0.0930813
210 0.0812236
215 0.115574
220 0.0500297
225 0.102719
230 0.0647842
235 0.0707047
240 0.120252
245 0.0936715
250 0.0646551
255 0.0616126
260 0.0714522
265 0.154703
270 0.0828397
275 0.149449
280 0.12112
285 0.138279
290 0.0922392
295 0.065659
300 0.11211
305 0.0730245
310 0.0676388
315 0.112525
320 0.139245
325 0.167107
330 0.2378
335 0.506447
340 0.70704
345 33.3211
350 530.896
355 824.119
360 205.348
365 25.7471
370 4.79846
375 2.88725
380 3.07186
385 5.71557
390 11.0109
395 15.9659
400 14.7725
405 13.4076
410 14.3075
415 16.0584
420 15.294
425 13.2647
430 11.9906
435 11.5299
440 11.4428
445 11.1198
450 10.4747
455 9.14444
460 8.55609
465 7.91202
470 7.49413
475 7.23091
480 6.27876
485 5.8932
490 5.18445
495 4.74488
500 4.40669
505 4.15082
510 3.46654
515 3.14553
520 2.81229
525 2.47772
530 1.99367
535 1.62749
540 1.70325
545 1.59437
550 1.54693
555 1.20356
560 1.13437
565 0.900766
570 0.819768
575 0.605793
580 0.60872
585 0.446848
590 0.334086
595 0.247643
600 0.433572
Ex : 363
200 0.0602766
205 0.0566754
210 0.0574525
215 0.0864085
220 0.0683927
225 0.143007
230 0.10075
235 0.083778
240 0.130418
245 0.0965829
250 0.0990836
255 0.0673082
260 0.109048
265 0.0753624
270 0.0858901
275 0.0554946
280 0.131893
285 0.0912075
290 0.0744382
295 0.0631447
300 0.0758248
305 0.130487
310 0.148454
315 0.0878025
320 0.153295
325 0.232396
330 0.218619
335 0.212245
340 0.378277
345 0.787665
350 31.9351
355 522.637
360 826.41
365 213.638
370 26.6018
375 5.09912
380 4.486
385 7.8281
390 11.1286
395 13.055
400 15.4886
405 16.5767
410 17.8243
415 18.2063
420 16.3647
425 14.6152
430 13.3261
435 13.1253
440 13.1563
445 12.5713
450 11.3044
455 10.2482
460 9.55193
465 9.08836
470 8.14717
475 7.68422
480 7.10721
485 6.55718
490 5.79279
495 5.31779
500 4.80843
505 4.55487
510 3.72016
515 3.41678
520 3.12196
525 2.60565
530 2.44541
535 2.18602
540 1.71429
545 1.62298
550 1.34731
555 1.14024
560 1.09593
565 1.00785
570 0.707287
575 0.621258
580 0.513431
585 0.34067
590 0.310502
595 0.271831
600 0.256915
Ex : 368
200 0.0742863
205 0.118503
210 0.0856101
215 0.0519329
220 0.0995382
225 0.0772959
230 0.104741
235 0.134306
240 0.0626673
245 0.0965022
250 0.0851359
255 0.124305
260 0.0786181
265 0.0873122
270 0.0851461
275 0.184681
280 0.0908554
285 0.0978508
290 0.07131
295 0.0502306
300 0.0487557
305 0.202602
310 0.100703
315 0.106977
320 0.181713
325 0.15253
330 0.165009
335 0.242211
340 0.260717
345 0.516443
350 0.810366
355 26.2278
360 510.366
365 856.365
370 227.969
375 28.7778
380 7.52309
385 9.52798
390 14.1539
395 16.1689
400 14.9923
405 18.0868
410 22.5099
415 24.4885
420 22.3828
425 18.9324
430 16.2265
435 16.1984
440 16.0815
445 15.7738
450 14.0709
455 12.0489
460 11.3336
465 10.2812
470 9.55273
475 9.14573
480 7.87781
485 7.33672
490 6.66364
495 6.04766
500 5.46443
505 4.86635
510 4.26884
515 3.81615
520 3.53612
525 3.06169
530 2.69544
535 2.50734
540 1.9366
545 1.72207
550 1.37018
555 1.31518
560 1.25675
565 1.0636
570 0.906548
575 0.684852
580 0.605086
585 0.349081
590 0.367893
595 0.370352
600 0.0421446
Ex : 373
200 0.033465
205 0.0339022
210 0.0591188
215 0.0824404
220 0.114926
225 0.0870138
230 0.0802592
235 0.117879
240 0.0857384
245 0.0690538
250 0.0752151
255 0.044589
260 0.0869475
265 0.0647532
270 0.115383
275 0.0862671
280 0.137697
285 0.0691512
290 0.12176
295 0.107651
300 0.113732
305 0.0817745
310 0.111048
315 0.106627
320 0.123049
325 0.0939663
330 0.110506
335 0.135775
340 0.2551
345 0.271279
350 0.438932
355 0.79364
360 30.5507
365 522.707
370 849.127
375 224.881
380 29.3659
385 9.93338
390 14.1061
395 17.4098
400 15.2405
405 15.0061
410 19.4185
415 25.1542
420 24.0426
425 20.2849
430 16.4654
435 15.5401
440 15.7155
445 15.7852
450 13.9807
455 12.0923
460 10.602
465 9.8344
470 9.45757
475 8.84975
480 8.14369
485 7.43125
490 6.36872
495 6.04915
500 5.23099
505 4.84078
510 4.32844
515 3.69093
520 3.56869
525 2.99225
530 2.70558
535 2.38925
540 2.17476
545 1.83489
550 1.59471
555 1.55417
560 1.29941
565 0.965859
570 0.889675
575 0.665097
580 0.629748
585 0.363858
590 0.286224
595 0.275935
600 0.375186
Ex : 378
200 0.0489168
205 0.0549759
210 0.0741415
215 0.070147
220 0.0764961
225 0.053635
230 0.0769432
235 0.0570132
240 0.110339
245 0.148598
250 0.109296
255 0.0681769
260 0.0707011
265 0.107925
270 0.0937997
275 0.16627
280 0.0922456
285 0.098688
290 0.10867
295 0.0990973
300 0.0462957
305 0.147667
310 0.0866293
315 0.0447528
320 0.0472426
325 0.0766576
330 0.137183
335 0.167243
340 0.186371
345 0.217732
350 0.234234
355 0.462583
360 0.985139
365 28.6347
370 531.7
375 871.359
380 234.42
385 32.6894
390 13.3161
395 13.184
400 11.9129
405 11.2153
410 13.271
415 16.8023
420 19.2927
425 16.4676
430 13.9358
435 12.5344
440 12.3462
445 12.3635
450 11.1259
455 10.0966
460 9.02768
465 8.25426
470 8.28005
475 7.87553
480 7.08963
485 6.52104
490 6.06183
495 5.3106
500 5.09585
505 4.62443
510 4.14947
515 3.84049
520 3.40102
525 2.83806
530 2.70644
535 2.33176
540 2.18076
545 1.73675
550 1.57806
555 1.39513
560 1.0916
565 1.02222
570 0.917931
575 0.62266
580 0.391434
585 0.369357
590 0.28242
595 0.305155
600 0.167656
Ex : 383
200 0.0653271
205 0.0611332
210 0.0731163
215 0.0498533
220 0.124267
225 0.0964129
230 0.180697
235 0.0750636
240 0.0686688
245 0.0751611
250 0.10677
255 0.0472213
260 0.090713
265 0.0777223
270 0.0544064
275 0.0533726
280 0.100908
285 0.068946
290 0.0864796
295 0.105654
300 0.130635
305 0.085742
310 0.0610056
315 0.0934318
320 0.105783
325 0.110904
330 0.107855
335 0.0802953
340 0.119012
345 0.114085
350 0.286609
355 0.270066
360 0.421958
365 0.808588
370 27.4708
375 529.674
380 918.401
385 253.176
390 39.3639
395 14.6028
400 11.357
405 11.9068
410 13.7739
415 15.8579
420 15.3744
425 16.0664
430 15.7715
435 14.6864
440 13.9621
445 12.5445
450 11.3598
455 10.3447
460 9.39992
465 8.843
470 8.67359
475 8.07188
480 7.38824
485 6.748
490 6.11728
495 5.53422
500 4.94808
505 4.8
510 4.42747
515 3.87615
520 3.44212
525 3.13646
530 2.68481
535 2.37749
540 2.01918
545 1.71045
550 1.64614
555 1.34805
560 1.24719
565 0.984586
570 0.909192
575 0.79177
580 0.567673
585 0.41305
590 0.365233
595 0.325191
600 0.0928293
Ex : 388
200 0.0480058
205 0.068861
210 0.0501467
215 0.120881
220 0.107385
225 0.043417
230 0.0880248
235 0.0762631
240 0.11901
245 0.0332219
250 0.0485146
255 0.0251288
260 0.0425127
265 0.0900994
270 0.0561426
275 0.0527806
280 0.0850471
285 0.065664
290 0.051823
295 0.0488902
300 0.0442994
305 0.0619717
310 0.129103
315 0.0663785
320 0.0788889
325 0.100437
330 0.0991151
335 0.141662
340 0.157071
345 0.149307
350 0.181998
355 0.23052
360 0.318642
365 0.507738
370 1.03701
375 30.2947
380 548.855
385 924.597
390 258.176
395 42.9152
400 16.448
405 14.4961
410 17.0795
415 19.6402
420 18.8252
425 16.8256
430 16.9888
435 17.6889
440 17.0143
445 16.2411
450 13.6111
455 11.8847
460 10.6202
465 10.0004
470 9.51164
475 9.15862
480 8.6382
485 7.29454
490 6.76677
495 6.16579
500 5.5434
505 5.29779
510 4.27624
515 3.87497
520 3.55195
525 3.01858
530 2.68256
535 2.56768
540 2.36048
545 2.13655
550 1.69875
555 1.42416
560 1.21196
565 1.12556
570 1.03013
575 0.692374
580 0.540266
585 0.423868
590 0.307901
595 0.286814
600 0.989604
Ex : 393
200 0.0406518
205 0.0767633
210 0.053816
215 0.0557099
220 0.0563161
225 0.0547483
230 0.0953305
235 0.0917808
240 0.0523732
245 0.0500821
250 0.0602783
255 0.0359278
260 0.0601308
265 0.0728341
270 0.0552364
275 0.125698
280 0.0677284
285 0.0877033
290 0.0509899
295 0.0877648
300 0.0609256
305 0.0864102
310 0.05401
315 0.0524861
320 0.0731686
325 0.139281
330 0.105652
335 0.14542
340 0.0860992
345 0.188571
350 0.188501
355 0.173185
360 0.227195
365 0.273014
370 0.431437
375 1.07908
380 26.8061
385 550.787
390 950.669
395 269.615
400 44.2794
405 16.74
410 16.362
415 20.5328
420 19.9641
425 16.9943
430 14.5838
435 15.2685
440 17.5072
445 16.9244
450 14.1747
455 11.8517
460 10.0666
465 8.94641
470 9.3459
475 8.65022
480 7.74655
485 7.09348
490 6.66654
495 5.80588
500 5.36433
505 5.06083
510 4.38643
515 4.0478
520 3.37948
525 3.04897
530 2.8655
535 2.42348
540 2.05515
545 1.99426
550 1.70777
555 1.39919
560 1.34275
565 1.08403
570 0.854947
575 0.758165
580 0.552125
585 0.451373
590 0.295009
595 0.276336
600 0.178613
Ex : 398
200 0.112952
205 0.0651659
210 0.0522913
215 0.178114
220 0.0702018
225 0.0753702
230 0.0547546
235 0.0690048
240 0.0644325
245 0.0586843
250 0.0764299
255 0.0830601
260 0.0939414
265 0.105813
270 0.0433639
275 0.057247
280 0.0572351
285 0.0637479
290 0.0377135
295 0.0475719
300 0.0840685
305 0.0462587
310 0.0777887
315 0.0812846
320 0.0739389
325 0.110421
330 0.110342
335 0.121316
340 0.100428
345 0.129084
350 0.14596
355 0.126869
360 0.152793
365 0.20687
370 0.310516
375 0.469787
380 1.18747
385 28.8195
390 560.647
395 962.718
400 262.935
405 37.5793
410 13.0352
415 13.0483
420 13.8848
425 11.3559
430 9.46377
435 9.07284
440 10.2059
445 12.2566
450 11.5054
455 9.27297
460 8.11256
465 7.53541
470 6.73693
475 6.63667
480 6.26894
485 5.55532
490 5.20572
495 5.07922
500 4.66111
505 4.37106
510 3.8662
515 3.64537
520 3.3068
525 2.87002
530 2.52415
535 2.29827
540 1.97241
545 1.91885
550 1.54756
555 1.40325
560 1.26149
565 1.04702
570 0.895172
575 0.773214
580 0.481318
585 0.398761
590 0.281689
595 0.291207
600 0.268254
Ex : 403
200 0.061183
205 0.0802914
210 0.0530605
215 0.0388953
220 0.0828123
225 0.0532398
230 0.0821021
235 0.0780037
240 0.06204
245 0.0578614
250 0.0639347
255 0.077905
260 0.0362006
265 0.0605804
270 0.0331275
275 0.0599018
280 0.0259758
285 0.107547
290 0.0859973
295 0.0704781
300 0.0737107
305 0.0653953
310 0.0867674
315 0.0810528
320 0.128332
325 0.0634348
330 0.106239
335 0.116121
340 0.133981
345 0.098594
350 0.112535
355 0.13084
360 0.164195
365 0.187889
370 0.229981
375 0.379042
380 0.549577
385 1.28405
390 32.3952
395 569.607
400 958.625
405 262.868
410 35.1379
415 9.91353
420 7.79171
425 6.75687
430 5.99068
435 5.8425
440 6.41648
445 7.22358
450 8.43955
455 8.60494
460 7.19675
465 6.76658
470 6.13947
475 5.56229
480 5.4733
485 5.17427
490 4.92715
495 4.52998
500 4.24981
505 3.87608
510 3.89399
515 3.49906
520 2.87328
525 2.61081
530 2.53495
535 2.13585
540 1.92999
545 1.75177
550 1.54745
555 1.27473
560 1.22566
565 1.07134
570 0.833177
575 0.621289
580 0.438003
585 0.406981
590 0.294247
595 0.235858
600 0.288742
Ex : 408
200 0.0405931
205 0.0557241
210 0.0569483
215 0.0442036
220 0.0951723
225 0.0918934
230 0.0731402
235 0.0715974
240 0.0512511
245 0.0470392
250 0.0633829
255 0.0675101
260 0.0738116
265 0.059631
270 0.0700085
275 0.100225
280 0.0710284
285 0.067618
290 0.0348057
295 0.117388
300 0.0609912
305 0.0455342
310 0.046946
315 0.0258438
320 0.0806996
325 0.0700731
330 0.0883651
335 0.0755504
340 0.0958053
345 0.103193
350 0.111808
355 0.134535
360 0.137752
365 0.126533
370 0.219803
375 0.20629
380 0.296081
385 0.573052
390 1.1832
395 30.6974
400 589.876
405 975.891
410 259.028
415 35.4239
420 9.63439
425 6.52661
430 6.08791
435 5.86518
440 6.42416
445 6.67792
450 6.70595
455 7.56793
460 8.58966
465 7.30014
470 6.75721
475 6.21463
480 5.59236
485 5.13738
490 5.03419
495 4.35788
500 4.2316
505 3.86348
510 3.66724
515 3.23135
520 2.94826
525 2.75052
530 2.42592
535 2.16434
540 1.84021
545 1.72049
550 1.52024
555 1.37955
560 1.26177
565 1.0013
570 0.693879
575 0.685644
580 0.449241
585 0.456501
590 0.393869
595 0.286736
600 0.162687
Ex : 413
200 0.0713889
205 0.0718718
210 0.0465149
215 0.0834336
220 0.0481415
225 0.051253
230 0.0992031
235 0.06583
240 0.0579192
245 0.0512447
250 0.0906191
255 0.0557385
260 0.0683856
265 0.0452521
270 0.108021
275 0.0721777
280 0.0593773
285 0.0672602
290 0.104085
295 0.035175
300 0.0466858
305 0.0716118
310 0.0964793
315 0.0735037
320 0.0881853
325 0.0483187
330 0.0467107
335 0.096341
340 0.0562468
345 0.045588
350 0.0894969
355 0.117276
360 0.161282
365 0.134337
370 0.209887
375 0.146763
380 0.180902
385 0.309362
390 0.560496
395 1.15217
400 33.7348
405 604.206
410 980.811
415 255.61
420 34.9773
425 8.5449
430 5.3574
435 5.43695
440 5.95263
445 5.85546
450 5.62268
455 5.46228
460 6.20969
465 7.82787
470 7.03042
475 6.30967
480 5.70087
485 4.96109
490 4.52855
495 4.28664
500 3.9322
505 3.70703
510 3.62549
515 3.13671
520 2.879
525 2.71024
530 2.35722
535 2.12309
540 1.95234
545 1.77233
550 1.54503
555 1.43771
560 1.17378
565 0.973115
570 0.7669
575 0.646515
580 0.479199
585 0.46488
590 0.279998
595 0.251391
600 0.111875
Ex : 418
200 0.0234127
205 0.0397908
210 0.0420493
215 0.0723546
220 0.0480199
225 0.0460949
230 0.0294533
235 0.0708606
240 0.0558219
245 0.0389446
250 0.083471
255 0.030689
260 0.0941619
265 0.065958
270 0.0823628
275 0.0820739
280 0.0664462
285 0.0768235
290 0.0667978
295 0.0598835
300 0.0824386
305 0.0703222
310 0.0699722
315 0.0810873
320 0.066817
325 0.0767494
330 0.0539784
335 0.102458
340 0.113312
345 0.0631349
350 0.164081
355 0.111905
360 0.120493
365 0.108069
370 0.15017
375 0.121048
380 0.222599
385 0.238261
390 0.364681
395 0.609413
400 1.09444
405 33.0181
410 607.415
415 997.811
420 267.565
425 34.3507
430 6.98798
435 4.00787
440 4.09405
445 3.92039
450 3.69246
455 3.58997
460 3.36181
465 3.73299
470 5.60003
475 5.7289
480 4.7704
485 4.3061
490 3.7874
495 3.60862
500 3.32009
505 3.23219
510 2.81796
515 2.56138
520 2.29868
525 2.27169
530 2.07232
535 1.892
540 1.75041
545 1.60609
550 1.49869
555 1.16099
560 1.18548
565 1.09896
570 0.810488
575 0.625355
580 0.522476
585 0.361964
590 0.280448
595 0.287973
600 0.224854
Ex : 423
200 0.0186683
205 0.0582722
210 0.0456481
215 0.0404705
220 0.0635095
225 0.0536111
230 0.0418471
235 0.0432596
240 0.038333
245 0.090135
250 0.0709493
255 0.0518951
260 0.0456233
265 0.0727477
270 0.0767857
275 0.0574479
280 0.0728486
285 0.0632402
290 0.0486636
295 0.0638406
300 0.0510391
305 0.0538945
310 0.0550007
315 0.0379413
320 0.0659235
325 0.0607296
330 0.057561
335 0.13327
340 0.0678845
345 0.0675349
350 0.0734866
355 0.108661
360 0.137383
365 0.118485
370 0.14675
375 0.148305
380 0.136494
385 0.135732
390 0.258366
395 0.34189
400 0.479268
405 0.928592
410 32.9456
415 626.409
420 991.901
425 250.367
430 31.3145
435 5.61494
440 2.68685
445 2.68583
450 2.58649
455 2.10945
460 2.22933
465 2.2709
470 2.86734
475 4.35555
480 5.21635
485 4.19741
490 3.64906
495 3.35882
500 2.81158
505 2.70866
510 2.44989
515 2.46426
520 2.22536
525 2.01068
530 2.01086
535 1.70463
540 1.74748
545 1.37752
550 1.22995
555 1.11182
560 1.02064
565 0.821951
570 0.6698
575 0.660562
580 0.433795
585 0.344881
590 0.321747
595 0.214948
600 0.22364
Ex : 428
200 0.083899
205 0.0499809
210 0.055216
215 0.0503643
220 0.0694093
225 0.119523
230 0.0483488
235 0.0758344
240 0.113604
245 0.0682761
250 0.0699692
255 0.0613241
260 0.0630619
265 0.0432771
270 0.0850542
275 0.0387764
280 0.103258
285 0.0622348
290 0.043102
295 0.093164
300 0.0523062
305 0.0551505
310 0.100917
315 0.104248
320 0.103515
325 0.110625
330 0.0803031
335 0.0853456
340 0.054772
345 0.0787469
350 0.123294
355 0.0986417
360 0.128263
365 0.0855883
370 0.0788313
375 0.143581
380 0.160309
385 0.158786
390 0.188477
395 0.223461
400 0.366968
405 0.572487
410 1.09399
415 36.8461
420 630.251
425 997.09
430 259.792
435 31.7883
440 5.18223
445 1.96889
450 1.95817
455 1.93261
460 1.68222
465 1.78472
470 1.77309
475 2.05121
480 3.39459
485 4.78543
490 3.73502
495 3.11123
500 2.9713
505 2.37963
510 2.20697
515 1.99235
520 2.10957
525 1.93522
530 1.77911
535 1.53814
540 1.51652
545 1.33971
550 1.159
555 1.01703
560 0.982824
565 0.835116
570 0.671104
575 0.626637
580 0.444611
585 0.374688
590 0.318859
595 0.216487
600 0.664836
Ex : 433
200 0.05232
205 0.0731983
210 0.0806539
215 0.0826713
220 0.0606951
225 0.0621746
230 0.0611776
235 0.0494763
240 0.091272
245 0.0457431
250 0.0905688
255 0.0677653
260 0.0616344
265 0.0564338
270 0.0538373
275 0.0426461
280 0.0497466
285 0.0514696
290 0.0796299
295 0.0814047
300 0.0467388
305 0.0707107
310 0.0526256
315 0.0507982
320 0.059116
325 0.0680797
330 0.0981879
335 0.0801781
340 0.0679899
345 0.105281
350 0.0636593
355 0.0693126
360 0.0554642
365 0.118991
370 0.0950176
375 0.1496
380 0.211176
385 0.15003
390 0.129363
395 0.239882
400 0.242845
405 0.380046
410 0.625452
415 1.26076
420 39.6714
425 672.027
430 1016.48
435 255.507
440 31.2965
445 5.10179
450 1.81864
455 1.69092
460 1.74587
465 1.71437
470 1.6128
475 1.71958
480 1.82477
485 2.82186
490 4.37321
495 3.78306
500 3.00181
505 2.79892
510 2.39239
515 2.09506
520 1.93184
525 1.8116
530 1.60885
535 1.50565
540 1.37724
545 1.28236
550 1.08916
555 1.08752
560 0.823303
565 0.782292
570 0.693387
575 0.511543
580 0.399703
585 0.377873
590 0.290268
595 0.248618
600 0.0282917
Ex : 438
200 0.0582984
205 0.0987164
210 0.0463903
215 0.0923345
220 0.0709924
225 0.0732708
230 0.0576981
235 0.0283693
240 0.0309421
245 0.0229301
250 0.051443
255 0.077524
260 0.0382518
265 0.0393356
270 0.0781626
275 0.0373863
280 0.0190646
285 0.0556001
290 0.0629384
295 0.0770996
300 0.0606919
305 0.0586742
310 0.0436197
315 0.047221
320 0.0831145
325 0.0380134
330 0.0390914
335 0.076949
340 0.124106
345 0.0590537
350 0.112659
355 0.0832086
360 0.0943864
365 0.0607303
370 0.126474
375 0.103825
380 0.10028
385 0.150313
390 0.104183
395 0.13649
400 0.181291
405 0.243102
410 0.480504
415 0.608927
420 1.0815
425 38.7523
430 670.016
435 1075.42
440 270.723
445 33.1721
450 5.16983
455 1.7518
460 1.64934
465 1.89596
470 1.79528
475 1.54619
480 1.72217
485 1.70493
490 2.17665
495 3.75265
500 3.99724
505 2.97289
510 2.65856
515 2.1775
520 1.8184
525 1.54352
530 1.59845
535 1.52737
540 1.25081
545 1.17884
550 1.12567
555 0.952767
560 0.82515
565 0.702165
570 0.569416
575 0.549693
580 0.351689
585 0.32258
590 0.330867
595 0.305842
600 0.316373
Ex : 443
200 0.034829
205 0.0482949
210 0.0672842
215 0.103636
220 0.0677306
225 0.0673051
230 0.0529411
235 0.120314
240 0.0772392
245 0.0546179
250 0.0557462
255 0.0702085
260 0.0753963
265 0.0559799
270 0.158949
275 0.0734532
280 0.078425
285 0.0519213
290 0.0377161
295 0.0635283
300 0.0743886
305 0.0940247
310 0.100363
315 0.0586131
320 0.0706381
325 0.0618466
330 0.0556108
335 0.0825003
340 0.14009
345 0.0928645
350 0.09694
355 0.0757522
360 0.099258
365 0.0851573
370 0.0892199
375 0.0938214
380 0.132853
385 0.116901
390 0.0942419
395 0.137305
400 0.174619
405 0.239625
410 0.250424
415 0.357665
420 0.534077
425 1.111
430 42.9361
435 717.204
440 1100.1
445 272.419
450 33.2102
455 5.37112
460 1.97019
465 1.87642
470 1.71401
475 1.72772
480 1.52945
485 1.47964
490 1.62736
495 1.76106
500 2.94902
505 3.864
510 2.92868
515 2.28072
520 2.23664
525 1.70275
530 1.54209
535 1.26335
540 1.26417
545 1.1109
550 0.997013
555 1.03782
560 0.895454
565 0.889272
570 0.69119
575 0.541684
580 0.482354
585 0.333116
590 0.297106
595 0.235365
600 0.824071
Ex : 448
200 0.0512063
205 0.0591459
210 0.106741
215 0.0710708
220 0.0419241
225 0.0514657
230 0.0415547
235 0.052204
240 0.0636238
245 0.0528855
250 0.110819
255 0.080731
260 0.0839021
265 0.120501
270 0.0931908
275 0.0588514
280 0.0730698
285 0.0678421
290 0.114181
295 0.0489677
300 0.0576391
305 0.0621245
310 0.0602999
315 0.0565202
320 0.055313
325 0.101412
330 0.0747484
335 0.0897746
340 0.0899395
345 0.0731942
350 0.0552292
355 0.106958
360 0.156622
365 0.11885
370 0.0579913
375 0.11385
380 0.104087
385 0.123065
390 0.174192
395 0.135955
400 0.14065
405 0.207873
410 0.240589
415 0.217013
420 0.341328
425 0.564039
430 1.14059
435 43.7184
440 763.931
445 1158.98
450 289.034
455 35.2624
460 5.84718
465 2.08353
470 1.6069
475 1.82755
480 1.7125
485 1.49994
490 1.42182
495 1.56873
500 1.67922
505 2.34692
510 3.57595
515 3.03568
520 2.16565
525 1.96195
530 1.63338
535 1.47965
540 1.15508
545 1.1044
550 1.00904
555 0.920439
560 0.752347
565 0.773777
570 0.570939
575 0.468675
580 0.438605
585 0.3643
590 0.285823
595 0.274146
600 0.220254
Ex : 453
200 0.0605492
205 0.0581494
210 0.117143
215 0.0461155
220 0.0788742
225 0.0698302
230 0.0630166
235 0.0489529
240 0.0562051
245 0.0686433
250 0.0721039
255 0.0717217
260 0.0601308
265 0.100666
270 0.060588
275 0.0578621
280 0.0634862
285 0.0919248
290 0.0905381
295 0.0695668
300 0.0753976
305 0.0547036
310 0.0588914
315 0.0515735
320 0.0725163
325 0.0986251
330 0.0660692
335 0.0789162
340 0.052972
345 0.0953965
350 0.0658495
355 0.117502
360 0.0831206
365 0.170783
370 0.111426
375 0.128036
380 0.0854261
385 0.0938824
390 0.113718
395 0.10335
400 0.146646
405 0.170312
410 0.170686
415 0.207623
420 0.315878
425 0.420917
430 0.591787
435 1.16374
440 46.5284
445 829.447
450 1207.69
455 283.8
460 34.7908
465 5.70145
470 2.01723
475 1.51089
480 1.65743
485 1.5963
490 1.5373
495 1.37247
500 1.41286
505 1.37102
510 1.92163
515 3.05127
520 3.09765
525 2.12531
530 1.89361
535 1.75587
540 1.43031
545 1.08058
550 1.12338
555 0.914456
560 0.817913
565 0.782816
570 0.7238
575 0.575595
580 0.479801
585 0.329353
590 0.321115
595 0.271333
600 0.593811
Ex : 458
200 0.0828273
205 0.069129
210 0.0833734
215 0.0761501
220 0.0619727
225 0.0493649
230 0.0514557
235 0.0460934
240 0.118685
245 0.037974
250 0.114324
255 0.0616419
260 0.0842262
265 0.0579583
270 0.0528726
275 0.0509151
280 0.0496263
285 0.038398
290 0.0737848
295 0.0952914
300 0.0399202
305 0.0820205
310 0.0889481
315 0.0539322
320 0.111709
325 0.0726001
330 0.0649954
335 0.0499568
340 0.109023
345 0.0995957
350 0.060925
355 0.0623337
360 0.0511395
365 0.0412233
370 0.0490741
375 0.127419
380 0.0937713
385 0.0881668
390 0.133169
395 0.125817
400 0.121165
405 0.14914
410 0.170754
415 0.172139
420 0.208901
425 0.224444
430 0.392026
435 0.660036
440 1.18851
445 52.3584
450 855.559
455 1266.21
460 307.462
465 37.472
470 6.02396
475 2.09865
480 1.69843
485 1.64729
490 1.53734
495 1.3047
500 1.32673
505 1.23154
510 1.30544
515 1.58199
520 2.56784
525 3.19317
530 2.17732
535 1.7237
540 1.56844
545 1.2597
550 1.0799
555 1.04352
560 0.822446
565 0.672136
570 0.66692
575 0.512439
580 0.395142
585 0.338293
590 0.32619
595 0.273042
600 0.143651
Ex : 463
200 0.0618781
205 0.0747313
210 0.0720325
215 0.0943422
220 0.0617941
225 0.055278
230 0.0432074
235 0.0805359
240 0.0840853
245 0.0774475
250 0.0837083
255 0.0467944
260 0.0937242
265 0.0432355
270 0.0555807
275 0.0667804
280 0.0940267
285 0.0985283
290 0.0756681
295 0.0554508
300 0.0943397
305 0.0450855
310 0.0748538
315 0.0608767
320 0.0502124
325 0.0740137
330 0.0491239
335 0.147432
340 0.080467
345 0.0653196
350 0.100988
355 0.0837242
360 0.0722957
365 0.10982
370 0.112942
375 0.0801951
380 0.107909
385 0.140365
390 0.0647506
395 0.117902
400 0.132368
405 0.130988
410 0.152904
415 0.180116
420 0.208889
425 0.192272
430 0.222414
435 0.451168
440 0.615005
445 1.17386
450 50.6583
455 891.509
460 1362.17
465 330.442
470 39.9481
475 6.248
480 2.21123
485 1.56395
490 1.63491
495 1.56024
500 1.30869
505 1.12504
510 1.22461
515 1.21402
520 1.33365
525 1.92443
530 3.12661
535 2.51557
540 1.65265
545 1.62684
550 1.44382
555 1.04427
560 0.75254
565 0.696225
570 0.648197
575 0.602061
580 0.474178
585 0.378529
590 0.321053
595 0.280567
600 0.239163
Ex : 468
200 0.0594855
205 0.0504203
210 0.0751637
215 0.0630621
220 0.110582
225 0.0654475
230 0.0450031
235 0.0698534
240 0.0539743
245 0.060494
250 0.0520931
255 0.0607507
260 0.0861898
265 0.0614017
270 0.0728932
275 0.0794309
280 0.0694632
285 0.0643052
290 0.0846545
295 0.074427
300 0.0809122
305 0.0586733
310 0.0720922
315 0.0845687
320 0.0693852
325 0.0734439
330 0.0461664
335 0.0515755
340 0.0450259
345 0.0632688
350 0.0698635
355 0.0572772
360 0.0824716
365 0.0823528
370 0.111067
375 0.0952703
380 0.0763595
385 0.0757356
390 0.14376
395 0.109815
400 0.122353
405 0.133232
410 0.107021
415 0.164948
420 0.156772
425 0.18187
430 0.202262
435 0.305832
440 0.330223
445 0.657257
450 1.23624
455 56.643
460 915.247
465 1434.34
470 346.525
475 41.712
480 6.39919
485 2.12125
490 1.52895
495 1.63583
500 1.42771
505 1.339
510 1.14421
515 1.12156
520 1.06678
525 1.1999
530 1.64805
535 2.54532
540 2.6592
545 1.65586
550 1.39159
555 1.37511
560 1.19574
565 0.890867
570 0.811173
575 0.617597
580 0.497292
585 0.419107
590 0.280445
595 0.277836
600 1.09652
Ex : 473
200 0.0603584
205 0.0611259
210 0.113092
215 0.0690955
220 0.0613665
225 0.0806806
230 0.0901676
235 0.0622283
240 0.0604236
245 0.0710333
250 0.0470609
255 0.0825933
260 0.0768173
265 0.0444583
270 0.056631
275 0.0464106
280 0.0739865
285 0.0751374
290 0.105959
295 0.0666775
300 0.0743349
305 0.0669096
310 0.102451
315 0.0946136
320 0.0628999
325 0.0494953
330 0.0545384
335 0.0861567
340 0.0862414
345 0.0748182
350 0.07308
355 0.0834744
360 0.0815536
365 0.153555
370 0.115326
375 0.0769151
380 0.122852
385 0.140712
390 0.14636
395 0.110361
400 0.171681
405 0.17742
410 0.140921
415 0.133114
420 0.147771
425 0.228012
430 0.176058
435 0.206688
440 0.300935
445 0.428278
450 0.680899
455 1.36757
460 66.8376
465 1020.41
470 1427
475 330.798
480 39.9571
485 6.24112
490 2.05624
495 1.36748
500 1.42646
505 1.50148
510 1.25447
515 1.09921
520 1.15529
525 1.06703
530 1.1175
535 1.31064
540 2.09667
545 2.55367
550 1.7771
555 1.35116
560 1.27546
565 0.993734
570 0.726292
575 0.647692
580 0.500626
585 0.4561
590 0.357239
595 0.27327
600 0.341012
Ex : 478
200 0.0414241
205 0.0576037
210 0.0696264
215 0.0805302
220 0.0779116
225 0.0723483
230 0.0464457
235 0.0795904
240 0.065129
245 0.056645
250 0.0884424
255 0.0608773
260 0.0672965
265 0.0693123
270 0.132234
275 0.0964232
280 0.118901
285 0.149726
290 0.11387
295 0.0972839
300 0.0901536
305 0.113419
310 0.0927307
315 0.10611
320 0.126865
325 0.0883242
330 0.075099
335 0.084203
340 0.102344
345 0.124774
350 0.108008
355 0.0769518
360 0.13041
365 0.0977424
370 0.104356
375 0.123366
380 0.0926072
385 0.14374
390 0.116494
395 0.129147
400 0.119491
405 0.16396
410 0.124904
415 0.180945
420 0.181193
425 0.193879
430 0.225435
435 0.268492
440 0.253989
445 0.367503
450 0.60312
455 0.844015
460 1.82252
465 73.6088
470 1070.98
475 1491.59
480 359.884
485 43.5199
490 6.57091
495 1.93174
500 1.31375
505 1.27461
510 1.30469
515 1.20162
520 1.10728
525 1.05159
530 1.12747
535 1.15811
540 1.11428
545 1.59668
550 2.34475
555 2.07294
560 1.33493
565 1.13845
570 0.920603
575 0.68359
580 0.631518
585 0.398803
590 0.330233
595 0.295072
600 0.459578
Ex : 483
200 0.0799405
205 0.0849187
210 0.0701348
215 0.131653
220 0.0784087
225 0.062251
230 0.057663
235 0.0577569
240 0.144695
245 0.0841577
250 0.119161
255 0.0500992
260 0.0646925
265 0.0943039
270 0.0834099
275 0.0682728
280 0.0752853
285 0.0857539
290 0.0873466
295 0.0677757
300 0.0652956
305 0.0821749
310 0.0378572
315 0.078146
320 0.0891552
325 0.101789
330 0.102139
335 0.073057
340 0.0875154
345 0.0916014
350 0.148909
355 0.0560774
360 0.064728
365 0.0647926
370 0.107559
375 0.126889
380 0.108971
385 0.0702572
390 0.09046
395 0.106072
400 0.104333
405 0.122455
410 0.161635
415 0.147501
420 0.161328
425 0.133687
430 0.205077
435 0.193003
440 0.203705
445 0.286495
450 0.379976
455 0.507941
460 0.919495
465 1.87166
470 60.2328
475 1068.33
480 1617.24
485 387.198
490 46.5207
495 6.79611
500 2.13662
505 1.24835
510 1.27139
515 1.3825
520 1.30942
525 1.16338
530 0.961718
535 0.933632
540 1.01114
545 1.07248
550 1.17985
555 2.04213
560 2.08792
565 1.40996
570 0.863266
575 0.917204
580 0.634456
585 0.419344
590 0.367785
595 0.324348
600 0.11076
Ex : 488
200 0.122127
205 0.0858814
210 0.0666612
215 0.0381839
220 0.0934293
225 0.0715385
230 0.0583891
235 0.0802029
240 0.062015
245 0.0752016
250 0.0923056
255 0.0725416
260 0.0725023
265 0.0777264
270 0.0785812
275 0.0652961
280 0.0625477
285 0.0980627
290 0.100293
295 0.0963456
300 0.0729137
305 0.103216
310 0.0603069
315 0.0949939
320 0.126862
325 0.0939509
330 0.071681
335 0.076646
340 0.114773
345 0.124347
350 0.0604765
355 0.0552322
360 0.0952417
365 0.125247
370 0.14461
375 0.107608
380 0.114094
385 0.0969413
390 0.107415
395 0.102719
400 0.134326
405 0.126205
410 0.123501
415 0.0976182
420 0.137605
425 0.170355
430 0.104288
435 0.107109
440 0.190753
445 0.256589
450 0.292093
455 0.515781
460 0.635194
465 0.972289
470 1.77061
475 74.4968
480 1169.09
485 1619.72
490 379.233
495 45.7321
500 6.80267
505 1.96598
510 1.32534
515 1.2531
520 1.29831
525 1.29953
530 1.01814
535 1.00141
540 0.968938
545 0.949578
550 0.879088
555 0.949771
560 1.4683
565 1.85858
570 1.32256
575 0.762043
580 0.717848
585 0.54045
590 0.387369
595 0.348454
600 0.285063
Ex : 493
200 0.0706669
205 0.147718
210 0.124652
215 0.0748838
220 0.116492
225 0.102061
230 0.0793154
235 0.0513681
240 0.0584563
245 0.101356
250 0.091534
255 0.0693892
260 0.102094
265 0.180403
270 0.109638
275 0.0563431
280 0.0751265
285 0.142764
290 0.0587671
295 0.0704645
300 0.100665
305 0.0720759
310 0.0888605
315 0.0851489
320 0.086306
325 0.0739502
330 0.0912964
335 0.147631
340 0.105718
345 0.0987232
350 0.0673845
355 0.0676446
360 0.0806035
365 0.0867996
370 0.122955
375 0.0983845
380 0.122537
385 0.0700107
390 0.0947556
395 0.100356
400 0.0869991
405 0.0683507
410 0.140733
415 0.182445
420 0.18445
425 0.132996
430 0.200316
435 0.183237
440 0.17169
445 0.22615
450 0.236747
455 0.367072
460 0.527894
465 0.703964
470 0.963995
475 1.73374
480 68.8993
485 1175.77
490 1741.84
495 400.534
500 48.0405
505 6.92848
510 2.02756
515 1.22293
520 1.20106
525 1.35356
530 1.22029
535 1.16957
540 1.0425
545 1.04251
550 0.903102
555 0.847027
560 0.863935
565 1.03162
570 1.6839
575 1.49165
580 0.725043
585 0.583116
590 0.606147
595 0.477797
600 0.0643662
Ex : 498
200 0.0679467
205 0.110332
210 0.0865383
215 0.0964691
220 0.0975717
225 0.0670155
230 0.0949153
235 0.053115
240 0.0951069
245 0.0855059
250 0.114864
255 0.0762893
260 0.0626165
265 0.0626405
270 0.120057
275 0.105125
280 0.0926396
285 0.109472
290 0.0842135
295 0.0997327
300 0.100845
305 0.0988642
310 0.107671
315 0.0770191
320 0.0831684
325 0.106036
330 0.147238
335 0.0796965
340 0.0662063
345 0.0917824
350 0.110308
355 0.143237
360 0.0827718
365 0.13437
370 0.1301
375 0.0887069
380 0.128261
385 0.160471
390 0.1376
395 0.136944
400 0.134407
405 0.0850561
410 0.105655
415 0.134304
420 0.13881
425 0.191295
430 0.25675
435 0.194245
440 0.184896
445 0.18187
450 0.310316
455 0.214047
460 0.357952
465 0.48921
470 0.657857
475 1.05478
480 1.99567
485 84.1652
490 1260.94
495 1706.45
500 394.908
505 47.4844
510 7.019
515 2.11814
520 1.3625
525 1.2921
530 1.32063
535 1.1303
540 1.03086
545 0.882513
550 0.806843
555 0.719964
560 0.736197
565 0.691267
570 0.806138
575 1.25242
580 1.30667
585 0.726864
590 0.411342
595 0.386321
600 0.0512858
Ex : 503
200 0.0947942
205 0.0814815
210 0.0959008
215 0.0984534
220 0.0826822
225 0.145734
230 0.0553944
235 0.112596
240 0.11574
245 0.172087
250 0.127299
255 0.0901981
260 0.135502
265 0.119226
270 0.104749
275 0.148374
280 0.164772
285 0.0789514
290 0.0735279
295 0.0723927
300 0.0998565
305 0.0837045
310 0.0778968
315 0.114176
320 0.0965016
325 0.108089
330 0.121755
335 0.152879
340 0.140997
345 0.101994
350 0.107194
355 0.087906
360 0.110479
365 0.0943972
370 0.125362
375 0.0846603
380 0.157507
385 0.10804
390 0.146282
395 0.125377
400 0.140694
405 0.108288
410 0.117494
415 0.132036
420 0.145459
425 0.212022
430 0.221598
435 0.178882
440 0.171097
445 0.281527
450 0.274464
455 0.246178
460 0.32154
465 0.390959
470 0.450463
475 0.572612
480 1.1397
485 1.86439
490 76.42
495 1256.74
500 1777.69
505 412.086
510 49.3888
515 7.49366
520 2.21429
525 1.29932
530 1.23396
535 1.34737
540 1.02355
545 0.97987
550 0.917179
555 0.798784
560 0.800747
565 0.701235
570 0.607211
575 0.670174
580 0.934887
585 0.949616
590 0.759054
595 0.535267
600 0.232686
Ex : 508
200 0.0921809
205 0.0956256
210 0.136168
215 0.163779
220 0.0786534
225 0.120584
230 0.0794209
235 0.0796779
240 0.0765726
245 0.0440611
250 0.0793651
255 0.0882419
260 0.0704646
265 0.0903393
270 0.108845
275 0.0756864
280 0.0844206
285 0.148634
290 0.104516
295 0.1331
300 0.162604
305 0.0829918
310 0.0812305
315 0.0568786
320 0.0912104
325 0.106634
330 0.140157
335 0.116037
340 0.113713
345 0.0868227
350 0.150843
355 0.185624
360 0.174643
365 0.100985
370 0.139764
375 0.199264
380 0.131463
385 0.160446
390 0.0601817
395 0.185151
400 0.232232
405 0.154126
410 0.18738
415 0.153708
420 0.176591
425 0.27061
430 0.182723
435 0.178815
440 0.146619
445 0.272484
450 0.192843
455 0.230064
460 0.27183
465 0.29096
470 0.433363
475 0.565276
480 0.730024
485 0.983343
490 2.02427
495 84.1772
500 1278.51
505 1793.21
510 432.687
515 51.8275
520 7.50784
525 2.19885
530 1.40844
535 1.10446
540 1.10541
545 1.0808
550 0.976011
555 0.75278
560 0.64712
565 0.60892
570 0.709339
575 0.503128
580 0.432647
585 0.598206
590 0.739232
595 0.695464
600 0.312777
Ex : 513
200 0.0681159
205 0.0631639
210 0.148157
215 0.089961
220 0.104266
225 0.103199
230 0.0988667
235 0.0875825
240 0.0957506
245 0.0659804
250 0.109595
255 0.122364
260 0.124288
265 0.0886478
270 0.070119
275 0.0984001
280 0.164817
285 0.0581137
290 0.101457
295 0.082783
300 0.0908737
305 0.100327
310 0.0852093
315 0.085059
320 0.109728
325 0.124194
330 0.175855
335 0.121292
340 0.118441
345 0.0991691
350 0.117697
355 0.118863
360 0.136632
365 0.0918308
370 0.141641
375 0.183469
380 0.0973692
385 0.124348
390 0.119917
395 0.175919
400 0.174457
405 0.124748
410 0.207638
415 0.139572
420 0.166087
425 0.129738
430 0.174885
435 0.206057
440 0.132574
445 0.152317
450 0.174717
455 0.212738
460 0.222488
465 0.320087
470 0.326011
475 0.320387
480 0.50773
485 0.71662
490 1.02593
495 1.87377
500 78.2725
505 1279.4
510 1835.72
515 447.207
520 53.4696
525 7.59395
530 2.18188
535 1.38519
540 1.0707
545 1.01333
550 1.05733
555 0.916756
560 0.748185
565 0.614968
570 0.481447
575 0.545773
580 0.420307
585 0.389757
590 0.440564
595 0.636565
600 1.71233
Ex : 518
200 0.138328
205 0.0864094
210 0.105291
215 0.106683
220 0.0678608
225 0.083909
230 0.073593
235 0.093908
240 0.102944
245 0.21259
250 0.0966791
255 0.180655
260 0.141306
265 0.0895037
270 0.0819289
275 0.149416
280 0.0850789
285 0.0743889
290 0.0724085
295 0.0859338
300 0.0817772
305 0.0752186
310 0.196567
315 0.0893271
320 0.131809
325 0.128581
330 0.1196
335 0.0768299
340 0.0818193
345 0.103247
350 0.109261
355 0.114849
360 0.0619852
365 0.139033
370 0.165763
375 0.123785
380 0.172567
385 0.22283
390 0.142132
395 0.120782
400 0.15721
405 0.111653
410 0.139423
415 0.211552
420 0.118074
425 0.188494
430 0.101949
435 0.17788
440 0.155836
445 0.150741
450 0.195415
455 0.16335
460 0.222822
465 0.278513
470 0.289044
475 0.380317
480 0.339495
485 0.527337
490 0.721973
495 1.21659
500 1.77935
505 78.7663
510 1244.43
515 1860.44
520 459.768
525 55.2953
530 7.94417
535 2.05467
540 1.084
545 0.879736
550 0.881198
555 1.02574
560 0.64514
565 0.652836
570 0.57967
575 0.634942
580 0.533023
585 0.436665
590 0.407873
595 0.36388
600 0.241656
Ex : 523
200 0.0558889
205 0.0884353
210 0.0608531
215 0.0989844
220 0.0807785
225 0.0794959
230 0.0650913
235 0.0736732
240 0.0763029
245 0.0984078
250 0.123222
255 0.109652
260 0.133046
265 0.107127
270 0.133662
275 0.11814
280 0.113895
285 0.138178
290 0.10897
295 0.151783
300 0.184189
305 0.107549
310 0.125685
315 0.117447
320 0.104438
325 0.0789498
330 0.0884304
335 0.143599
340 0.0821111
345 0.0887669
350 0.0731767
355 0.0955103
360 0.130939
365 0.145678
370 0.0773038
375 0.12248
380 0.0981287
385 0.139423
390 0.16106
395 0.129851
400 0.109289
405 0.203425
410 0.15983
415 0.12095
420 0.167891
425 0.136014
430 0.122247
435 0.157004
440 0.137695
445 0.125194
450 0.245046
455 0.300563
460 0.23366
465 0.192766
470 0.26565
475 0.298961
480 0.295158
485 0.395045
490 0.5039
495 0.750852
500 1.09503
505 1.96722
510 69.8498
515 1212.86
520 1850.78
525 475.183
530 56.6898
535 7.88176
540 2.07245
545 1.2388
550 0.7876
555 0.975409
560 0.91968
565 0.703092
570 0.638874
575 0.367366
580 0.50368
585 0.458518
590 0.383753
595 0.358207
600 0.0668274
Ex : 528
200 0.132777
205 0.124638
210 0.11952
215 0.0855675
220 0.16224
225 0.0678824
230 0.107983
235 0.118659
240 0.106159
245 0.104475
250 0.22349
255 0.0887947
260 0.0779826
265 0.0934559
270 0.203098
275 0.102347
280 0.0348793
285 0.0745008
290 0.0792915
295 0.123875
300 0.116238
305 0.0900245
310 0.09867
315 0.107597
320 0.116587
325 0.153869
330 0.122755
335 0.225187
340 0.148902
345 0.198802
350 0.124009
355 0.0931694
360 0.188257
365 0.119115
370 0.153654
375 0.0955586
380 0.0960965
385 0.135254
390 0.139794
395 0.131675
400 0.132611
405 0.217447
410 0.150523
415 0.0979802
420 0.184537
425 0.120519
430 0.107701
435 0.113755
440 0.229684
445 0.174437
450 0.222651
455 0.168469
460 0.234077
465 0.134247
470 0.246163
475 0.220505
480 0.206934
485 0.38363
490 0.436797
495 0.53309
500 0.687937
505 1.00693
510 1.75739
515 70.0899
520 1213.72
525 1852.25
530 466.648
535 55.8107
540 7.72047
545 1.87059
550 1.07649
555 0.802126
560 0.67886
565 0.746941
570 0.652723
575 0.615531
580 0.468039
585 0.50897
590 0.369572
595 0.394172
600 0.830562
Ex : 533
200 0.129528
205 0.155055
210 0.137353
215 0.187089
220 0.101119
225 0.126371
230 0.0949651
235 0.0960465
240 0.114042
245 0.11008
250 0.163318
255 0.130659
260 0.165166
265 0.138658
270 0.161835
275 0.0765446
280 0.0980378
285 0.135326
290 0.0980431
295 0.136375
300 0.16992
305 0.116537
310 0.0931734
315 0.101614
320 0.155011
325 0.123405
330 0.179327
335 0.136223
340 0.116587
345 0.12992
350 0.123985
355 0.0861327
360 0.0802209
365 0.14327
370 0.183271
375 0.135604
380 0.131507
385 0.11986
390 0.161004
395 0.123298
400 0.198091
405 0.11508
410 0.112777
415 0.165991
420 0.167093
425 0.234481
430 0.12047
435 0.182338
440 0.160594
445 0.18884
450 0.161198
455 0.185639
460 0.185925
465 0.240236
470 0.238323
475 0.233737
480 0.198302
485 0.276071
490 0.2975
495 0.440115
500 0.550523
505 0.690009
510 1.05004
515 1.90904
520 69.7486
525 1170.66
530 1832.87
535 475.891
540 56.8414
545 7.85518
550 1.98388
555 1.08795
560 0.672702
565 0.665413
570 0.673635
575 0.557688
580 0.44206
585 0.408242
590 0.316185
595 0.323072
600 0.381917
Ex : 538
200 0.123213
205 0.0831838
210 0.109121
215 0.115046
220 0.16652
225 0.102662
230 0.12129
235 0.112964
240 0.127062
245 0.178205
250 0.0760566
255 0.117902
260 0.136732
265 0.179336
270 0.119377
275 0.0838578
280 0.100518
285 0.104101
290 0.126802
295 0.123611
300 0.15233
305 0.138318
310 0.0845152
315 0.10561
320 0.115799
325 0.187342
330 0.274951
335 0.137317
340 0.0832444
345 0.094215
350 0.174627
355 0.149749
360 0.171294
365 0.176147
370 0.20106
375 0.153597
380 0.143568
385 0.217033
390 0.234725
395 0.182862
400 0.156979
405 0.197006
410 0.113952
415 0.130397
420 0.148808
425 0.136417
430 0.197926
435 0.168454
440 0.217674
445 0.202937
450 0.178257
455 0.202528
460 0.184122
465 0.235842
470 0.326034
475 0.168585
480 0.2249
485 0.256621
490 0.234926
495 0.237013
500 0.394219
505 0.383499
510 0.681961
515 0.985914
520 1.69725
525 60.1781
530 1132.36
535 1838.54
540 493.46
545 58.82
550 8.16869
555 1.88475
560 1.01969
565 0.637848
570 0.500157
575 0.521239
580 0.450573
585 0.452233
590 0.368508
595 0.428828
600 1.9657
Ex : 543
200 0.145326
205 0.116804
210 0.117815
215 0.235282
220 0.130825
225 0.140587
230 0.155243
235 0.122621
240 0.104952
245 0.113941
250 0.154411
255 0.103146
260 0.0951198
265 0.113764
270 0.0963464
275 0.142734
280 0.116294
285 0.0924034
290 0.0923895
295 0.113773
300 0.0842944
305 0.069918
310 0.0617735
315 0.126714
320 0.202782
325 0.147526
330 0.208099
335 0.102855
340 0.0749033
345 0.132936
350 0.104138
355 0.247689
360 0.212496
365 0.147871
370 0.202905
375 0.104971
380 0.128122
385 0.121793
390 0.211987
395 0.225754
400 0.191111
405 0.115768
410 0.196924
415 0.136819
420 0.159217
425 0.204619
430 0.140856
435 0.23204
440 0.234089
445 0.175602
450 0.216404
455 0.179905
460 0.193506
465 0.192662
470 0.239615
475 0.166414
480 0.284716
485 0.241232
490 0.213634
495 0.341388
500 0.316542
505 0.371306
510 0.415435
515 0.742593
520 1.02231
525 1.6489
530 53.7487
535 1091.57
540 1843.47
545 510.023
550 61.1266
555 8.05248
560 1.94581
565 0.877536
570 0.595765
575 0.520164
580 0.519744
585 0.457889
590 0.285945
595 0.409869
600 2.3968
Ex : 548
200 0.204219
205 0.0805548
210 0.155098
215 0.0707554
220 0.177617
225 0.146587
230 0.167109
235 0.115178
240 0.183502
245 0.145983
250 0.134903
255 0.172958
260 0.0669283
265 0.122508
270 0.0986078
275 0.0717329
280 0.128498
285 0.123827
290 0.103164
295 0.110098
300 0.0813331
305 0.141809
310 0.212433
315 0.155623
320 0.0861787
325 0.180716
330 0.0867156
335 0.0690133
340 0.184972
345 0.175521
350 0.12928
355 0.120725
360 0.174126
365 0.113478
370 0.195645
375 0.16531
380 0.150479
385 0.199728
390 0.119886
395 0.194206
400 0.186478
405 0.122656
410 0.112073
415 0.11243
420 0.191402
425 0.134913
430 0.162036
435 0.147839
440 0.124969
445 0.107004
450 0.166368
455 0.184047
460 0.216685
465 0.157948
470 0.168339
475 0.156011
480 0.157616
485 0.17041
490 0.299182
495 0.227393
500 0.270657
505 0.351677
510 0.331055
515 0.451391
520 0.575333
525 1.03605
530 1.78969
535 60.0949
540 1088.01
545 1798.49
550 494.718
555 58.9663
560 7.98119
565 1.70082
570 0.74156
575 0.422846
580 0.511748
585 0.417927
590 0.379333
595 0.395822
600 0.0450431
Ex : 553
200 0.148382
205 0.0489905
210 0.0872763
215 0.174512
220 0.0901466
225 0.123321
230 0.108525
235 0.121467
240 0.215875
245 0.178497
250 0.172527
255 0.163068
260 0.175418
265 0.151522
270 0.142173
275 0.149934
280 0.111874
285 0.0674069
290 0.130636
295 0.06628
300 0.178424
305 0.128222
310 0.203489
315 0.13902
320 0.150876
325 0.111542
330 0.13879
335 0.121907
340 0.209749
345 0.194465
350 0.116414
355 0.121691
360 0.138278
365 0.111138
370 0.0977147
375 0.143962
380 0.122857
385 0.16636
390 0.190118
395 0.250762
400 0.138542
405 0.152201
410 0.265397
415 0.13086
420 0.164387
425 0.200855
430 0.1351
435 0.241911
440 0.143904
445 0.148454
450 0.225937
455 0.221711
460 0.202295
465 0.14862
470 0.181038
475 0.240862
480 0.237415
485 0.13959
490 0.197516
495 0.219022
500 0.264258
505 0.323631
510 0.195312
515 0.420618
520 0.415455
525 0.653502
530 1.0239
535 1.6664
540 51.2269
545 1046.63
550 1783.41
555 499.617
560 59.7261
565 7.81789
570 1.63973
575 0.818847
580 0.469916
585 0.440899
590 0.41822
595 0.442047
600 0.649794
Ex : 558
200 0.0706137
205 0.167902
210 0.135351
215 0.11538
220 0.146689
225 0.123368
230 0.134114
235 0.138043
240 0.206381
245 0.151878
250 0.17903
255 0.127976
260 0.194804
265 0.119974
270 0.140013
275 0.201654
280 0.0916735
285 0.110969
290 0.17385
295 0.162424
300 0.0960813
305 0.078764
310 0.141945
315 0.271229
320 0.207099
325 0.141019
330 0.173761
335 0.259582
340 0.159058
345 0.163068
350 0.162484
355 0.0945574
360 0.169633
365 0.127855
370 0.16861
375 0.155258
380 0.126568
385 0.104574
390 0.232286
395 0.269816
400 0.184528
405 0.102886
410 0.0841226
415 0.158305
420 0.127453
425 0.17325
430 0.187939
435 0.226671
440 0.178512
445 0.237417
450 0.145083
455 0.127221
460 0.241487
465 0.136635
470 0.191367
475 0.147035
480 0.273397
485 0.179351
490 0.268495
495 0.157857
500 0.173359
505 0.244539
510 0.292114
515 0.327565
520 0.406235
525 0.411037
530 0.610332
535 0.849044
540 1.50965
545 49.7224
550 1004.6
555 1776.36
560 504.318
565 60.3239
570 7.87875
575 1.40703
580 0.645687
585 0.421766
590 0.334583
595 0.360953
600 0.64799
Ex : 563
200 0.151957
205 0.12293
210 0.148213
215 0.262075
220 0.126823
225 0.158828
230 0.160163
235 0.151806
240 0.125654
245 0.111053
250 0.162114
255 0.144131
260 0.185323
265 0.19275
270 0.21699
275 0.122461
280 0.106932
285 0.187435
290 0.207737
295 0.138044
300 0.130545
305 0.117927
310 0.164374
315 0.162103
320 0.171387
325 0.185975
330 0.16855
335 0.247206
340 0.143531
345 0.171057
350 0.129422
355 0.147698
360 0.124266
365 0.128494
370 0.151589
375 0.180837
380 0.171924
385 0.258711
390 0.229053
395 0.129267
400 0.191684
405 0.106328
410 0.12913
415 0.173481
420 0.170317
425 0.183761
430 0.161192
435 0.168717
440 0.265211
445 0.211252
450 0.333692
455 0.228169
460 0.220455
465 0.203181
470 0.187417
475 0.24024
480 0.235356
485 0.240185
490 0.160778
495 0.312449
500 0.157827
505 0.184331
510 0.309723
515 0.177923
520 0.258947
525 0.326787
530 0.420047
535 0.575603
540 1.0299
545 1.64429
550 47.9528
555 971.742
560 1703.51
565 488.917
570 58.2065
575 7.6418
580 1.5346
585 0.551699
590 0.537763
595 0.282148
600 0.0321074
Ex : 568
200 0.215589
205 0.17945
210 0.129784
215 0.110434
220 0.180068
225 0.120292
230 0.105538
235 0.131169
240 0.0914135
245 0.147553
250 0.0816117
255 0.106076
260 0.178705
265 0.124506
270 0.195216
275 0.131155
280 0.122306
285 0.149327
290 0.0987815
295 0.0834105
300 0.157215
305 0.173631
310 0.206799
315 0.254979
320 0.0846357
325 0.172926
330 0.145567
335 0.144668
340 0.157843
345 0.177255
350 0.176584
355 0.112216
360 0.113818
365 0.104898
370 0.171278
375 0.128715
380 0.176951
385 0.157205
390 0.187895
395 0.150222
400 0.243368
405 0.133195
410 0.210518
415 0.184497
420 0.139493
425 0.114279
430 0.151239
435 0.176664
440 0.110266
445 0.160478
450 0.202492
455 0.191772
460 0.23146
465 0.238347
470 0.212851
475 0.167416
480 0.187656
485 0.327289
490 0.322494
495 0.188203
500 0.187091
505 0.22429
510 0.21932
515 0.338544
520 0.24262
525 0.271718
530 0.324152
535 0.518088
540 0.528511
545 0.805266
550 1.26134
555 37.2673
560 880.988
565 1645.45
570 493.874
575 59.1083
580 7.6835
585 1.34368
590 0.606587
595 0.466485
600 0.882114
Ex : 573
200 0.185828
205 0.157203
210 0.186326
215 0.112845
220 0.145313
225 0.126478
230 0.133576
235 0.126648
240 0.127415
245 0.084972
250 0.106669
255 0.155267
260 0.168886
265 0.122931
270 0.125399
275 0.134891
280 0.168756
285 0.132179
290 0.167216
295 0.0819468
300 0.100602
305 0.180694
310 0.105427
315 0.149757
320 0.210185
325 0.109548
330 0.126511
335 0.104338
340 0.191427
345 0.135378
350 0.108102
355 0.10821
360 0.145047
365 0.111259
370 0.147071
375 0.19046
380 0.126951
385 0.136291
390 0.124624
395 0.234248
400 0.123794
405 0.190282
410 0.185507
415 0.11432
420 0.167254
425 0.139758
430 0.0964029
435 0.260649
440 0.177127
445 0.134619
450 0.107819
455 0.141745
460 0.178251
465 0.196456
470 0.195867
475 0.215293
480 0.250245
485 0.179143
490 0.18639
495 0.127888
500 0.208508
505 0.24048
510 0.208264
515 0.199585
520 0.288178
525 0.330222
530 0.299443
535 0.256912
540 0.411975
545 0.539467
550 0.694311
555 1.25576
560 31.1614
565 762.421
570 1526.84
575 475.179
580 57.0031
585 7.29825
590 1.25026
595 0.609113
600 0.0693147
Ex : 578
200 0.166667
205 0.165752
210 0.184934
215 0.115678
220 0.100015
225 0.135122
230 0.0904486
235 0.106228
240 0.19467
245 0.128677
250 0.0711104
255 0.183621
260 0.13
265 0.0993394
270 0.116746
275 0.1546
280 0.0929775
285 0.163254
290 0.129845
295 0.152391
300 0.0939468
305 0.15119
310 0.164809
315 0.109198
320 0.106992
325 0.108738
330 0.123644
335 0.13713
340 0.102071
345 0.14065
350 0.070939
355 0.0967221
360 0.183843
365 0.201264
370 0.150564
375 0.12771
380 0.131548
385 0.152736
390 0.126992
395 0.16484
400 0.128972
405 0.0978397
410 0.152635
415 0.0842525
420 0.0927692
425 0.138574
430 0.135195
435 0.133768
440 0.136327
445 0.175575
450 0.183488
455 0.168436
460 0.145167
465 0.167186
470 0.179239
475 0.280303
480 0.266426
485 0.169674
490 0.153141
495 0.153285
500 0.225996
505 0.245424
510 0.262833
515 0.256134
520 0.232517
525 0.270293
530 0.266962
535 0.256558
540 0.346899
545 0.431064
550 0.547289
555 0.754139
560 1.13475
565 28.5945
570 692.211
575 1353.04
580 412.674
585 49.0363
590 6.26112
595 1.21848
600 0.945953
Ex : 583
200 0.0697208
205 0.0620145
210 0.203543
215 0.164166
220 0.113579
225 0.117809
230 0.169707
235 0.1005
240 0.197614
245 0.129048
250 0.0692116
255 0.146011
260 0.245926
265 0.151194
270 0.165656
275 0.273016
280 0.253515
285 0.14457
290 0.154851
295 0.147379
300 0.0663365
305 0.0566415
310 0.0886399
315 0.140643
320 0.128053
325 0.199235
330 0.205144
335 0.154341
340 0.210262
345 0.20794
350 0.151417
355 0.0749188
360 0.16152
365 0.156686
370 0.254608
375 0.137509
380 0.158705
385 0.179065
390 0.128247
395 0.17583
400 0.174378
405 0.135527
410 0.100185
415 0.199415
420 0.164756
425 0.188027
430 0.11104
435 0.2036
440 0.168062
445 0.15216
450 0.221859
455 0.199628
460 0.236911
465 0.265156
470 0.155831
475 0.114293
480 0.156345
485 0.259849
490 0.138228
495 0.15454
500 0.118538
505 0.163835
510 0.13883
515 0.186561
520 0.198261
525 0.154495
530 0.230138
535 0.213358
540 0.305693
545 0.30643
550 0.339577
555 0.448999
560 0.733008
565 0.92756
570 23.8105
575 613.107
580 1175.36
585 341.772
590 40.7002
595 5.13489
600 1.13114
Ex : 588
200 0.0811559
205 0.14297
210 0.184608
215 0.158296
220 0.193581
225 0.149489
230 0.106098
235 0.149375
240 0.104412
245 0.175467
250 0.19665
255 0.169899
260 0.143119
265 0.137735
270 0.0804241
275 0.0925338
280 0.165201
285 0.102592
290 0.0479059
295 0.121444
300 0.116496
305 0.0770326
310 0.139639
315 0.111233
320 0.129911
325 0.0966819
330 0.0701238
335 0.154237
340 0.126632
345 0.131247
350 0.207764
355 0.134187
360 0.122372
365 0.141058
370 0.131081
375 0.145145
380 0.216068
385 0.178388
390 0.199567
395 0.160251
400 0.166194
405 0.243008
410 0.260476
415 0.159168
420 0.148137
425 0.10388
430 0.098356
435 0.178674
440 0.168418
445 0.124468
450 0.189428
455 0.163448
460 0.169067
465 0.110989
470 0.183494
475 0.212949
480 0.174688
485 0.191023
490 0.151336
495 0.176078
500 0.200216
505 0.134794
510 0.302689
515 0.168031
520 0.13059
525 0.285641
530 0.282595
535 0.24894
540 0.245935
545 0.225539
550 0.320552
555 0.366945
560 0.438733
565 0.697044
570 0.897818
575 20.7266
580 521.627
585 1011.04
590 300.583
595 35.7999
600 4.61974
Ex : 593
200 0.121071
205 0.107649
210 0.127083
215 0.190706
220 0.128245
225 0.0740303
230 0.134793
235 0.0770285
240 0.172176
245 0.0981948
250 0.0790973
255 0.0510324
260 0.119019
265 0.174203
270 0.137338
275 0.120474
280 0.0975048
285 0.0669056
290 0.0970884
295 0.0945766
300 0.176142
305 0.0820527
310 0.123489
315 0.205908
320 0.18355
325 0.104163
330 0.1685
335 0.101868
340 0.0905992
345 0.253443
350 0.237868
355 0.0846685
360 0.109478
365 0.186119
370 0.121279
375 0.235995
380 0.120386
385 0.156797
390 0.126069
395 0.195516
400 0.13258
405 0.138953
410 0.134994
415 0.148284
420 0.111433
425 0.150944
430 0.231049
435 0.171255
440 0.289741
445 0.170057
450 0.181268
455 0.187545
460 0.119684
465 0.173817
470 0.263474
475 0.114045
480 0.185398
485 0.141929
490 0.149653
495 0.131706
500 0.20629
505 0.196929
510 0.176476
515 0.320167
520 0.27124
525 0.12194
530 0.346121
535 0.22148
540 0.197048
545 0.163789
550 0.210399
555 0.313003
560 0.247761
565 0.533701
570 0.498491
575 0.790253
580 17.6326
585 462.098
590 874.402
595 262.452
600 38.4168
Ex : 598
200 0.0730841
205 0.136705
210 0.135176
215 0.222323
220 0.107293
225 0.0804698
230 0.217428
235 0.0785647
240 0.106244
245 0.146153
250 0.0909878
255 0.161046
260 0.0995533
265 0.194606
270 0.0925243
275 0.162281
280 0.169824
285 0.196498
290 0.111624
295 0.115255
300 0.20735
305 0.237839
310 0.128437
315 0.196934
320 0.0980557
325 0.163847
330 0.188189
335 0.101596
340 0.122211
345 0.124196
350 0.0858685
355 0.105113
360 0.103382
365 0.151612
370 0.210102
375 0.200236
380 0.195584
385 0.126427
390 0.0950578
395 0.158602
400 0.168421
405 0.132764
410 0.190592
415 0.207386
420 0.168879
425 0.115471
430 0.205255
435 0.12686
440 0.130732
445 0.190188
450 0.247435
455 0.153863
460 0.226542
465 0.190396
470 0.123732
475 0.16838
480 0.145979
485 0.172006
490 0.191435
495 0.297837
500 0.252941
505 0.209275
510 0.114436
515 0.111905
520 0.118714
525 0.150591
530 0.16074
535 0.221482
540 0.179451
545 0.26966
550 0.22905
555 0.165047
560 0.26231
565 0.427143
570 0.368082
575 0.516214
580 0.740203
585 18.5284
590 419.002
595 772.621
600 465.464
Ex : 603
200 0.0903188
205 0.152964
210 0.117602
215 0.139908
220 0.128685
225 0.154738
230 0.106923
235 0.116674
240 0.067707
245 0.197606
250 0.140869
255 0.157278
260 0.0864059
265 0.270233
270 0.13148
275 0.189679
280 0.151561
285 0.187813
290 0.133049
295 0.181513
300 0.146431
305 0.170778
310 0.110831
315 0.223755
320 0.0597102
325 0.217209
330 0.1697
335 0.164153
340 0.141037
345 0.118007
350 0.235418
355 0.166363
360 0.064806
365 0.11063
370 0.120611
375 0.0644305
380 0.172693
385 0.0725857
390 0.201096
395 0.172903
400 0.117167
405 0.108422
410 0.190105
415 0.162022
420 0.119647
425 0.254476
430 0.183104
435 0.123057
440 0.147657
445 0.098826
450 0.104614
455 0.0836926
460 0.162396
465 0.105067
470 0.21982
475 0.163396
480 0.189993
485 0.117645
490 0.240359
495 0.136011
500 0.1783
505 0.192024
510 0.193652
515 0.167784
520 0.15284
525 0.194633
530 0.229618
535 0.175348
540 0.103879
545 0.135011
550 0.168907
555 0.171686
560 0.309715
565 0.259571
570 0.292725
575 0.461152
580 0.427722
585 0.63824
590 15.7876
595 362.516
600 719.593
