File format V 1.0
ven. 6. janv. 04:06:33 2017
Operator : 
Comments : 

=============================================
SpectroFluorometer parameters
Mode : 3D measurement
Data : Fluorescence
Phospho. : Ordinary
Spectrum : Fluorescence

Scan speed : 2400 nm/mn
Response : 100 ms
PM Voltage : 700 V
Shutter : On

Lambda Ex. Start : 203
Lambda Ex. End : 603
Lambda Ex. Step : 5
Ex. Slit : 5 nm

Lambda Em. Start : 200
Lambda Em. End : 600
Lambda Em. Step : 5
Em. Slit : 5 nm

Repetition : 1
Decal lambda em : 10
=============================================
DATA
Ex : 203
200 3.26667
205 2.77287
210 3.41424
215 2.32643
220 4.73051
225 3.1641
230 3.95805
235 2.79662
240 2.13699
245 5.29168
250 5.94169
255 2.49903
260 3.30825
265 6.29367
270 3.16326
275 1.91806
280 1.50469
285 2.61109
290 1.675
295 2.6996
300 4.95665
305 1.85458
310 2.81627
315 1.82417
320 1.21718
325 4.0045
330 1.62234
335 2.80026
340 1.14002
345 4.19549
350 3.64479
355 5.24162
360 3.21338
365 3.69042
370 4.14563
375 2.48164
380 5.02191
385 2.14377
390 4.00492
395 7.15275
400 6.37337
405 4.39827
410 4.40211
415 2.90635
420 3.81837
425 3.1929
430 2.46944
435 3.67324
440 6.06407
445 3.3053
450 3.88092
455 6.02534
460 3.14855
465 5.39148
470 4.73274
475 2.51238
480 6.08488
485 5.25085
490 3.02617
495 3.00866
500 4.59146
505 5.66473
510 5.05277
515 4.35492
520 5.20391
525 4.88509
530 5.6405
535 3.7548
540 1.14806
545 2.31038
550 1.82513
555 2.30542
560 3.46376
565 4.02281
570 4.50349
575 3.86824
580 3.29891
585 4.68072
590 2.42284
595 2.97358
600 0.338383
Ex : 208
200 3.57865
205 2.43997
210 1.72728
215 2.76249
220 4.40498
225 2.14863
230 4.01087
235 3.0765
240 3.45986
245 2.03203
250 2.77065
255 5.70497
260 3.27904
265 4.58389
270 4.10596
275 1.46069
280 2.59595
285 2.21552
290 4.6374
295 3.95193
300 4.13867
305 6.05077
310 3.06701
315 3.57812
320 3.76827
325 3.66979
330 2.51424
335 6.03807
340 4.27144
345 3.88662
350 2.13789
355 3.79367
360 3.92763
365 2.6596
370 2.0637
375 4.11752
380 2.70028
385 3.81779
390 3.53033
395 5.92659
400 2.78723
405 5.09885
410 2.83648
415 1.91368
420 2.25082
425 3.44417
430 6.32442
435 2.26919
440 2.19036
445 4.04892
450 2.42269
455 1.56922
460 4.9973
465 1.79754
470 6.8541
475 7.51391
480 4.49957
485 3.43161
490 1.99139
495 3.91301
500 2.38521
505 6.72361
510 5.83684
515 2.86878
520 3.1796
525 2.89691
530 2.7273
535 5.08995
540 3.13687
545 2.90624
550 6.10787
555 7.03021
560 3.84731
565 4.64862
570 5.22472
575 5.2851
580 2.62947
585 4.10251
590 1.48682
595 2.94412
600 0.33503
Ex : 213
200 3.03636
205 1.66687
210 4.92373
215 3.13835
220 2.75542
225 4.3447
230 2.54667
235 2.63796
240 2.25945
245 3.83886
250 2.24755
255 2.3728
260 2.0024
265 5.22538
270 3.21682
275 4.95985
280 4.45054
285 3.0829
290 3.13222
295 5.54781
300 3.41491
305 5.13933
310 4.71654
315 1.6092
320 3.12468
325 2.69038
330 2.20338
335 1.72774
340 1.7961
345 5.88717
350 7.42864
355 3.00178
360 5.79653
365 3.22272
370 2.47701
375 2.1992
380 4.86084
385 7.13798
390 2.07253
395 2.58309
400 3.63267
405 6.29002
410 4.52803
415 4.64166
420 5.5714
425 2.50488
430 4.95776
435 2.50346
440 2.46225
445 5.55131
450 2.66123
455 6.9101
460 5.35451
465 2.2976
470 4.88125
475 2.8221
480 2.70282
485 7.36151
490 6.30854
495 3.4398
500 1.36567
505 2.69123
510 3.36508
515 2.70287
520 3.23645
525 3.06405
530 1.19407
535 1.91916
540 2.36804
545 4.72322
550 4.22721
555 2.87933
560 4.72502
565 6.10572
570 5.13684
575 2.68788
580 3.48009
585 2.89857
590 2.75497
595 2.87535
600 0.327204
Ex : 218
200 3.14024
205 5.1917
210 5.232
215 3.70243
220 3.70582
225 4.17369
230 9.21961
235 4.86919
240 4.86083
245 3.22237
250 3.90063
255 2.19249
260 3.69764
265 3.56625
270 3.73213
275 1.96042
280 3.23618
285 3.41317
290 4.16465
295 1.99552
300 3.14788
305 2.9244
310 4.0817
315 1.40941
320 3.00235
325 3.00027
330 1.50421
335 1.4702
340 4.49309
345 5.30977
350 4.11099
355 2.40233
360 4.95209
365 3.26537
370 2.44487
375 4.10526
380 6.54474
385 6.31677
390 5.40732
395 7.54729
400 5.02454
405 4.24398
410 1.90087
415 2.63323
420 2.5927
425 2.74051
430 2.74229
435 4.98573
440 3.69676
445 2.64159
450 3.89721
455 4.47571
460 1.86667
465 5.32177
470 4.75859
475 4.3457
480 3.81491
485 3.4935
490 3.33813
495 2.95895
500 6.2597
505 4.54161
510 5.60988
515 1.5406
520 3.82954
525 4.09774
530 2.50512
535 1.68318
540 2.92674
545 2.23515
550 6.28514
555 3.30228
560 1.72725
565 2.63107
570 2.05488
575 5.36828
580 4.60149
585 2.76583
590 3.87017
595 3.32057
600 0.377869
Ex : 223
200 2.68786
205 4.36128
210 1.82822
215 1.74835
220 4.58278
225 1.64892
230 3.88525
235 1.824
240 3.06829
245 2.27015
250 3.62938
255 6.64313
260 3.36681
265 4.56769
270 4.40126
275 3.36828
280 3.50806
285 4.62003
290 6.1583
295 2.71438
300 2.40224
305 1.72927
310 3.87192
315 3.7462
320 2.52191
325 2.03842
330 2.85775
335 6.61068
340 5.18329
345 4.54925
350 2.37977
355 2.61143
360 4.54609
365 3.71178
370 2.91016
375 3.08711
380 2.42985
385 2.83182
390 2.1986
395 6.11157
400 5.02291
405 3.31175
410 2.75276
415 5.29211
420 2.05929
425 2.39996
430 2.52788
435 4.59135
440 2.09116
445 7.80762
450 4.92681
455 4.46672
460 2.93839
465 1.78753
470 5.70478
475 6.37018
480 2.47444
485 4.08898
490 3.77584
495 2.84805
500 3.25865
505 5.43094
510 3.43919
515 3.761
520 3.67921
525 6.1372
530 1.41272
535 1.83963
540 4.10644
545 1.45018
550 1.10367
555 5.24994
560 3.40551
565 5.90232
570 4.39166
575 2.85601
580 2.29614
585 6.22982
590 2.81226
595 4.03317
600 0.458959
Ex : 228
200 3.07429
205 8.87027
210 4.03146
215 3.28489
220 2.48782
225 4.77387
230 2.5359
235 3.52663
240 2.04026
245 4.04848
250 2.03671
255 5.23036
260 1.92191
265 1.79474
270 2.33697
275 3.17152
280 2.39707
285 4.32767
290 2.2453
295 2.4787
300 7.04269
305 4.6773
310 1.70402
315 2.31971
320 4.03781
325 2.52405
330 2.1841
335 3.96294
340 3.25175
345 5.84658
350 2.99288
355 2.49578
360 2.7885
365 5.68461
370 4.03148
375 5.36657
380 3.63813
385 5.82618
390 2.76837
395 1.54052
400 3.16308
405 2.25155
410 4.10487
415 1.44289
420 7.09835
425 4.99754
430 4.09788
435 3.62763
440 1.76138
445 6.40386
450 3.03611
455 6.46079
460 7.42061
465 3.47367
470 3.72807
475 3.41453
480 3.51255
485 2.94554
490 3.62967
495 3.14761
500 1.80097
505 3.91657
510 2.61588
515 5.8124
520 2.47121
525 1.46462
530 2.38465
535 3.18032
540 1.64866
545 6.40099
550 5.03649
555 2.89436
560 3.26523
565 3.97821
570 3.61495
575 3.64371
580 5.54123
585 6.43118
590 3.89113
595 3.28089
600 12.5587
Ex : 233
200 4.97641
205 4.48498
210 5.04592
215 2.43431
220 6.90385
225 1.73387
230 0.887062
235 1.906
240 2.72933
245 3.15733
250 2.70653
255 3.6921
260 4.62733
265 2.48654
270 1.508
275 2.18614
280 3.23053
285 4.80807
290 2.28184
295 4.94587
300 2.3535
305 1.77625
310 3.72362
315 2.86328
320 2.9544
325 2.28773
330 2.51902
335 2.71015
340 4.73497
345 3.53572
350 1.55394
355 1.86827
360 2.93721
365 1.90356
370 2.76623
375 3.34144
380 4.67947
385 4.82521
390 3.39154
395 4.06489
400 3.21301
405 3.34823
410 2.34983
415 3.69561
420 1.39266
425 1.74432
430 9.30086
435 5.96435
440 2.77667
445 2.08393
450 1.2611
455 1.61442
460 1.92814
465 2.23996
470 5.18499
475 3.61245
480 4.44098
485 4.06455
490 2.88082
495 2.34799
500 3.45948
505 3.89584
510 3.19601
515 2.78388
520 1.98523
525 5.37344
530 4.0415
535 4.31078
540 2.51949
545 2.11422
550 2.76356
555 3.17157
560 6.58855
565 4.0484
570 5.54063
575 3.3485
580 0.75892
585 4.64602
590 3.04123
595 3.63701
600 0.413878
Ex : 238
200 1.78733
205 1.32953
210 2.13173
215 1.96621
220 1.54015
225 4.29918
230 1.80182
235 0.935559
240 2.83927
245 2.57239
250 4.98038
255 4.70383
260 2.6662
265 4.89515
270 2.62064
275 3.04545
280 1.23693
285 2.05567
290 1.20227
295 3.56233
300 1.70129
305 3.42278
310 1.86085
315 1.48906
320 3.00446
325 2.63233
330 3.83612
335 1.90797
340 1.62255
345 1.53705
350 5.12771
355 3.093
360 3.75262
365 3.15885
370 2.27137
375 1.95068
380 2.02752
385 2.74095
390 3.33216
395 2.538
400 3.71459
405 4.74032
410 2.05678
415 3.55087
420 2.88036
425 2.28136
430 3.53897
435 1.72382
440 3.52553
445 2.24345
450 1.92828
455 1.81776
460 1.73535
465 2.97168
470 3.93837
475 1.65784
480 4.77704
485 3.66679
490 4.17527
495 1.75845
500 1.32458
505 2.60923
510 1.8658
515 4.45461
520 2.30859
525 1.85788
530 3.43551
535 3.98263
540 2.60664
545 2.34303
550 1.37973
555 4.2999
560 2.64517
565 2.39378
570 4.81791
575 2.44432
580 3.50585
585 4.96329
590 2.90487
595 1.09921
600 8.24862
Ex : 243
200 2.97647
205 2.19331
210 0.998342
215 2.0842
220 1.966
225 4.57017
230 2.5305
235 2.40892
240 3.05203
245 0.861308
250 2.58088
255 1.97677
260 0.786211
265 2.20189
270 2.11086
275 1.91971
280 1.6483
285 3.65182
290 0.974716
295 0.531866
300 1.82925
305 1.26029
310 4.26249
315 3.66815
320 2.38082
325 2.13682
330 1.23233
335 1.74604
340 1.28969
345 4.83671
350 1.5793
355 5.62303
360 3.49114
365 2.61999
370 1.70069
375 2.08902
380 3.30728
385 3.41819
390 1.58665
395 3.86055
400 2.90906
405 2.43984
410 1.73056
415 2.54276
420 1.52148
425 1.98808
430 2.85579
435 1.56146
440 1.41684
445 1.87157
450 1.32908
455 4.38375
460 1.68911
465 2.66273
470 4.64861
475 1.21328
480 2.06909
485 4.16908
490 1.86304
495 2.10841
500 2.8373
505 3.25038
510 1.49334
515 3.12157
520 4.32341
525 4.93778
530 2.65755
535 2.19848
540 3.64437
545 3.22671
550 5.36215
555 3.57736
560 2.33965
565 2.29079
570 2.72615
575 2.93574
580 2.07508
585 2.49878
590 1.06817
595 1.41706
600 0.825909
Ex : 248
200 1.85911
205 2.27113
210 1.20415
215 1.80202
220 1.40777
225 1.63181
230 1.89656
235 2.5364
240 2.09848
245 0.950095
250 2.1656
255 2.12692
260 1.38445
265 2.1131
270 1.4003
275 1.25407
280 1.19861
285 3.46829
290 2.09892
295 1.81925
300 4.434
305 1.47415
310 1.96387
315 2.83462
320 2.72496
325 0.922923
330 1.02894
335 3.61867
340 1.29504
345 1.98462
350 1.10275
355 1.86463
360 1.21555
365 2.48829
370 1.6533
375 2.11428
380 2.23307
385 1.04426
390 1.25103
395 1.17678
400 1.52915
405 3.45265
410 1.36714
415 1.73345
420 0.760944
425 2.5331
430 2.58251
435 1.90281
440 1.5585
445 4.088
450 2.42947
455 3.05067
460 5.36697
465 2.56907
470 2.52619
475 2.03266
480 1.74196
485 1.68126
490 3.50083
495 2.23345
500 2.62846
505 2.3512
510 1.51261
515 1.65218
520 1.65514
525 1.59384
530 2.72957
535 2.64257
540 2.54787
545 3.86007
550 2.60088
555 1.69241
560 2.02542
565 1.54316
570 3.57173
575 4.39009
580 2.02515
585 2.07315
590 1.17675
595 1.89114
600 0.215205
Ex : 253
200 1.33155
205 0.873893
210 0.782459
215 2.20523
220 1.08192
225 1.36866
230 1.27543
235 0.844508
240 1.61567
245 0.538835
250 2.00997
255 1.86121
260 2.24365
265 1.90575
270 1.36286
275 0.794154
280 2.61807
285 1.39525
290 0.819795
295 0.869025
300 1.15881
305 1.54726
310 1.19784
315 1.22427
320 1.6074
325 0.685428
330 2.54448
335 1.69603
340 1.72875
345 1.64419
350 1.09806
355 2.90373
360 1.74076
365 2.06339
370 2.74488
375 2.13021
380 1.70711
385 1.43088
390 1.16354
395 1.04865
400 1.90153
405 1.83817
410 1.77727
415 0.718599
420 1.91714
425 1.85171
430 1.89929
435 1.23527
440 0.928305
445 1.37553
450 2.31018
455 1.30977
460 1.37274
465 3.96274
470 2.65535
475 1.00825
480 1.83144
485 2.12525
490 2.05784
495 2.2419
500 1.77751
505 2.64897
510 1.85968
515 0.831227
520 1.26092
525 1.05778
530 1.33387
535 2.05364
540 0.968476
545 1.14285
550 1.46549
555 1.31452
560 0.687201
565 0.87504
570 1.06088
575 2.47417
580 1.07565
585 1.53629
590 1.43871
595 1.78638
600 16.2657
Ex : 258
200 1.70575
205 1.00878
210 1.6186
215 0.593207
220 2.46324
225 1.12721
230 0.836046
235 1.59842
240 1.40384
245 1.5818
250 1.22961
255 2.13838
260 0.892308
265 0.780763
270 1.07527
275 0.652518
280 0.752754
285 1.36441
290 0.895413
295 1.19461
300 1.40023
305 1.91996
310 1.85975
315 2.39852
320 2.03764
325 1.27724
330 1.23085
335 1.45729
340 1.32288
345 1.9643
350 2.17555
355 1.16116
360 1.82842
365 1.2223
370 1.49677
375 1.63336
380 1.85688
385 2.0808
390 0.796289
395 1.39772
400 1.18705
405 1.56419
410 1.44796
415 1.29175
420 2.69862
425 1.63151
430 1.02274
435 2.01734
440 1.11181
445 2.14903
450 1.92046
455 0.750655
460 1.22483
465 1.54943
470 1.74392
475 1.6378
480 1.36469
485 1.0415
490 1.43616
495 1.02035
500 1.92389
505 1.8616
510 1.02814
515 1.55319
520 0.941744
525 0.441656
530 1.09285
535 0.823788
540 2.29075
545 1.97244
550 1.32923
555 1.10439
560 1.16218
565 2.99705
570 0.941572
575 0.854147
580 1.35675
585 0.823969
590 1.16728
595 1.41012
600 0.160466
Ex : 263
200 0.571186
205 0.821551
210 0.738279
215 0.41252
220 1.25513
225 1.16503
230 0.740042
235 0.654911
240 0.881853
245 0.629018
250 0.418089
255 0.770246
260 1.57142
265 0.770123
270 0.80424
275 0.694989
280 0.53815
285 0.649987
290 0.914093
295 1.35719
300 1.60059
305 0.897566
310 1.12492
315 0.843967
320 0.717911
325 0.378619
330 1.12776
335 1.52289
340 0.97739
345 1.39401
350 1.3756
355 1.37602
360 1.29752
365 1.85522
370 0.86813
375 1.00429
380 0.997443
385 1.21852
390 1.04618
395 0.869269
400 0.924006
405 2.16832
410 0.852447
415 1.43479
420 1.61819
425 1.37243
430 1.64708
435 1.79493
440 1.19354
445 1.19169
450 0.846372
455 1.2988
460 2.29669
465 2.29405
470 1.39248
475 2.01584
480 1.70436
485 1.02457
490 1.69379
495 0.904465
500 0.475656
505 0.946443
510 1.02735
515 0.815821
520 0.936984
525 0.664548
530 0.93721
535 0.767166
540 0.881774
545 0.507351
550 2.39834
555 0.963372
560 1.85943
565 0.914017
570 1.13894
575 0.596905
580 0.922587
585 0.763442
590 1.04317
595 0.867981
600 0.098773
Ex : 268
200 0.98103
205 0.927237
210 0.476993
215 0.798886
220 0.564345
225 0.550975
230 0.888862
235 0.718005
240 1.04236
245 0.6204
250 0.711836
255 0.736916
260 0.656721
265 1.51392
270 1.25316
275 0.789887
280 1.04608
285 0.688489
290 0.648641
295 0.473802
300 1.09
305 0.913006
310 1.114
315 0.856584
320 1.00458
325 0.678155
330 1.10722
335 1.18848
340 0.77307
345 0.668915
350 0.359656
355 0.635727
360 0.931077
365 1.49619
370 0.820225
375 1.78858
380 1.1919
385 0.70934
390 0.62776
395 0.973315
400 1.02666
405 0.947495
410 1.22955
415 0.987434
420 0.738065
425 0.618621
430 0.584395
435 1.10874
440 1.32177
445 0.831276
450 1.06858
455 1.38985
460 1.11932
465 1.05065
470 0.950301
475 0.596212
480 0.610811
485 0.795686
490 1.10889
495 1.59513
500 0.777107
505 0.729669
510 0.915054
515 0.78339
520 1.13626
525 0.60621
530 1.33482
535 0.920101
540 1.2212
545 0.999886
550 0.906391
555 0.935016
560 0.371536
565 0.700846
570 1.33724
575 0.540858
580 0.53403
585 0.689999
590 1.36207
595 0.214321
600 0.594091
Ex : 273
200 0.204962
205 0.69602
210 0.626566
215 0.697822
220 0.550325
225 0.435101
230 0.480238
235 0.598391
240 0.778594
245 0.580175
250 0.542162
255 0.458312
260 0.544596
265 0.644588
270 0.758057
275 0.800313
280 0.772989
285 0.678766
290 0.642527
295 0.95834
300 0.767628
305 0.991662
310 0.788325
315 0.436442
320 0.845201
325 0.967857
330 0.833068
335 0.649038
340 0.798934
345 0.755568
350 0.859605
355 0.706964
360 1.24928
365 0.991033
370 0.561216
375 1.57031
380 0.655882
385 0.6821
390 0.63661
395 0.928425
400 1.00252
405 0.649638
410 1.56537
415 1.03119
420 0.910874
425 0.705181
430 0.699214
435 1.14534
440 0.738875
445 0.532052
450 0.653934
455 0.296211
460 0.60615
465 0.519296
470 0.443309
475 0.869895
480 1.41949
485 0.741982
490 0.712743
495 0.628696
500 0.592725
505 0.63543
510 1.13402
515 0.753352
520 0.410833
525 0.823631
530 0.575207
535 0.848254
540 0.745183
545 1.16327
550 1.25047
555 0.385741
560 0.619977
565 0.71524
570 0.804704
575 0.623684
580 0.723399
585 0.602867
590 0.974905
595 0.341161
600 0.0388228
Ex : 278
200 0.523009
205 0.543551
210 0.374491
215 0.450778
220 0.31414
225 0.513737
230 0.311431
235 0.335068
240 0.430761
245 0.277975
250 0.275637
255 0.447518
260 0.40332
265 0.56859
270 0.549968
275 0.908174
280 0.651383
285 0.62212
290 0.593813
295 0.412518
300 0.239874
305 0.315791
310 0.421276
315 0.558059
320 0.622921
325 0.795815
330 0.742794
335 0.982632
340 0.889718
345 0.69546
350 0.473541
355 0.87229
360 0.76747
365 0.640124
370 0.468275
375 0.458933
380 1.2513
385 0.721834
390 0.476717
395 1.26937
400 0.553711
405 0.484372
410 0.582584
415 0.570665
420 1.31042
425 0.841941
430 0.657714
435 0.605325
440 0.456448
445 0.898155
450 0.887471
455 1.07502
460 0.558236
465 0.65857
470 0.868701
475 0.388422
480 0.475027
485 0.523036
490 0.363316
495 0.761434
500 0.453298
505 0.46451
510 0.570345
515 0.940756
520 0.755515
525 0.725924
530 0.551166
535 0.726778
540 0.566451
545 0.723699
550 0.471592
555 0.273213
560 0.593188
565 0.726372
570 0.363592
575 0.400647
580 0.53891
585 0.283867
590 0.352475
595 0.399297
600 1.25068
Ex : 283
200 0.68773
205 0.340168
210 0.392007
215 0.646991
220 0.353582
225 0.361306
230 0.308884
235 0.723546
240 0.739441
245 0.717427
250 0.37336
255 0.510022
260 0.296809
265 0.828033
270 0.499102
275 0.502867
280 0.762784
285 0.418965
290 0.425231
295 0.170398
300 0.29637
305 0.358908
310 0.504765
315 0.301097
320 0.200386
325 0.573018
330 0.574064
335 0.343847
340 0.573985
345 0.721569
350 0.589167
355 0.656083
360 0.644597
365 0.638891
370 0.430283
375 0.743949
380 0.473149
385 0.575607
390 0.291422
395 0.921998
400 0.579695
405 0.514686
410 0.729855
415 0.593748
420 0.489228
425 0.480997
430 0.835819
435 0.628011
440 0.413221
445 0.659594
450 0.614459
455 0.583541
460 0.518066
465 0.377803
470 0.399972
475 0.488943
480 0.427126
485 0.511058
490 0.724274
495 0.451726
500 0.472932
505 0.300132
510 0.682499
515 0.828233
520 0.348286
525 0.647542
530 0.75426
535 0.676199
540 0.362969
545 0.471277
550 0.384312
555 0.581856
560 0.412733
565 0.600518
570 0.472351
575 0.380733
580 0.236917
585 0.490543
590 0.413173
595 0.30367
600 1.85909
Ex : 288
200 0.190505
205 0.412089
210 0.244008
215 0.175559
220 0.279089
225 0.30009
230 0.594696
235 0.642025
240 0.18555
245 0.289824
250 0.468443
255 0.525949
260 0.57037
265 0.371899
270 0.31441
275 0.254755
280 0.169606
285 0.281717
290 0.325819
295 0.214535
300 0.265117
305 0.496564
310 0.686805
315 0.952295
320 0.710328
325 0.476645
330 0.431584
335 0.856813
340 0.704998
345 0.28176
350 0.38874
355 0.551343
360 0.544948
365 0.401016
370 0.636437
375 0.364689
380 0.466812
385 0.53056
390 0.830293
395 0.489506
400 0.481326
405 0.438468
410 0.546757
415 0.90351
420 0.865452
425 0.575118
430 0.732002
435 0.463947
440 0.577238
445 0.476151
450 0.359342
455 0.743258
460 0.804859
465 0.690037
470 0.401573
475 0.331976
480 0.420444
485 0.657893
490 0.547361
495 0.600497
500 0.277014
505 0.412727
510 0.315003
515 0.333436
520 0.524401
525 0.61232
530 0.230808
535 0.619983
540 0.468606
545 0.659647
550 0.504261
555 0.581793
560 0.267173
565 0.558759
570 0.365082
575 0.329887
580 0.295535
585 0.216515
590 0.382287
595 0.308705
600 9.0301
Ex : 293
200 0.169095
205 0.187733
210 0.298792
215 0.348205
220 0.126151
225 0.394224
230 0.253103
235 0.12897
240 0.567097
245 0.189606
250 0.396904
255 0.281889
260 0.245716
265 0.311547
270 0.280813
275 0.238147
280 0.10873
285 0.523043
290 0.468931
295 0.13923
300 0.275232
305 0.334975
310 0.351905
315 0.366444
320 0.609743
325 0.463203
330 0.393232
335 0.351707
340 0.444695
345 0.269369
350 0.505636
355 0.425741
360 0.431861
365 0.524094
370 0.329655
375 0.369955
380 0.681131
385 0.549192
390 0.883194
395 0.730053
400 1.10102
405 0.423664
410 0.485375
415 0.415457
420 0.688222
425 0.576054
430 0.460354
435 0.36047
440 0.465727
445 0.615512
450 0.3209
455 0.303874
460 0.849129
465 0.451847
470 0.486828
475 0.330638
480 0.205173
485 0.295204
490 0.390761
495 0.882417
500 0.407429
505 0.64617
510 0.262804
515 0.272524
520 0.480414
525 0.356425
530 0.246565
535 0.214383
540 0.293447
545 0.553597
550 0.40435
555 0.230794
560 0.635964
565 0.320452
570 0.279383
575 0.324385
580 0.40245
585 0.362004
590 0.224099
595 0.608814
600 0.0692807
Ex : 298
200 0.267479
205 0.0994457
210 0.166974
215 0.23804
220 0.461708
225 0.2753
230 0.508891
235 0.194156
240 0.349012
245 0.328801
250 0.238006
255 0.304272
260 0.257585
265 0.212541
270 0.234034
275 0.121725
280 0.215501
285 0.235948
290 0.397401
295 0.237753
300 0.276338
305 0.262472
310 0.214292
315 0.191294
320 0.35819
325 0.199374
330 0.450835
335 0.258111
340 0.499487
345 0.488529
350 0.40541
355 0.488628
360 0.548029
365 0.352046
370 0.195648
375 0.48203
380 0.431671
385 0.507448
390 0.421017
395 0.510665
400 0.697135
405 0.455504
410 0.40103
415 0.535074
420 0.723744
425 0.524459
430 0.435461
435 0.463062
440 0.44243
445 0.279434
450 0.412802
455 0.368134
460 0.495654
465 0.435399
470 0.538028
475 0.28167
480 0.527496
485 0.28178
490 0.339401
495 0.596067
500 0.307021
505 0.36591
510 0.297635
515 0.166841
520 0.18402
525 0.229863
530 0.39296
535 0.316438
540 0.368082
545 0.275077
550 0.285532
555 0.683687
560 0.32969
565 0.237368
570 0.3396
575 0.10959
580 0.214871
585 0.156277
590 0.662953
595 0.254778
600 0.0289928
Ex : 303
200 0.248056
205 0.406989
210 0.219915
215 0.33321
220 0.310408
225 0.260694
230 0.250516
235 0.118245
240 0.298419
245 0.310529
250 0.249975
255 0.169119
260 0.108768
265 0.348103
270 0.812485
275 0.129426
280 0.188514
285 0.16898
290 0.217285
295 0.257901
300 0.270409
305 0.114973
310 0.206854
315 0.236118
320 0.190787
325 0.253969
330 0.32349
335 0.33556
340 0.315837
345 0.403103
350 0.358588
355 0.294057
360 0.470158
365 0.416134
370 0.384823
375 0.443247
380 0.589403
385 0.622592
390 0.553252
395 0.51876
400 0.454465
405 0.571502
410 0.567725
415 0.45097
420 0.604673
425 0.521183
430 0.38845
435 0.587729
440 0.422547
445 0.469223
450 0.360347
455 0.409249
460 0.476864
465 0.314525
470 0.503
475 0.470825
480 0.425707
485 0.369978
490 0.400059
495 0.253921
500 0.262401
505 0.216099
510 0.255039
515 0.245804
520 0.122773
525 0.266027
530 0.266594
535 0.509047
540 0.159069
545 0.281615
550 0.15135
555 0.249374
560 0.169105
565 0.168736
570 0.219619
575 0.204921
580 0.216272
585 0.144827
590 0.210414
595 0.254413
600 0.0289513
Ex : 308
200 0.0573489
205 0.137227
210 0.256756
215 0.217915
220 0.234369
225 0.139944
230 0.155901
235 0.287692
240 0.131374
245 0.131113
250 0.230927
255 0.171344
260 0.179987
265 0.127217
270 0.233043
275 0.325391
280 0.138719
285 0.195524
290 0.184726
295 0.154667
300 0.189697
305 0.209542
310 0.177981
315 0.231399
320 0.192647
325 0.119648
330 0.235012
335 0.256748
340 0.359676
345 0.558135
350 0.407742
355 0.414229
360 0.326139
365 0.30377
370 0.239848
375 0.338993
380 0.323373
385 0.483565
390 0.438672
395 0.439934
400 0.575254
405 0.569935
410 0.532702
415 0.589424
420 0.570766
425 0.681242
430 0.57992
435 0.275387
440 0.426656
445 0.378508
450 0.351384
455 0.388676
460 0.529094
465 0.474242
470 0.441397
475 0.321759
480 0.217821
485 0.374332
490 0.37908
495 0.433471
500 0.4158
505 0.302468
510 0.166925
515 0.302812
520 0.138089
525 0.168275
530 0.24853
535 0.218811
540 0.116208
545 0.267385
550 0.279053
555 0.250496
560 0.154456
565 0.141481
570 0.262029
575 0.232274
580 0.288113
585 0.156513
590 0.223613
595 0.113883
600 0.0129595
Ex : 313
200 0.108911
205 0.22085
210 0.424443
215 0.145316
220 0.222865
225 0.218618
230 0.232396
235 0.193699
240 0.273799
245 0.121798
250 0.118057
255 0.0810897
260 0.183968
265 0.102321
270 0.0707062
275 0.32279
280 0.110716
285 0.136993
290 0.0842727
295 0.126761
300 0.0640139
305 0.336538
310 0.142367
315 0.158759
320 0.095139
325 0.221891
330 0.212003
335 0.261052
340 0.420647
345 0.455007
350 0.30555
355 0.445139
360 0.477415
365 0.660565
370 0.552295
375 0.727104
380 0.923342
385 0.861229
390 0.834022
395 1.02615
400 0.910751
405 0.982096
410 0.927024
415 0.95328
420 0.885739
425 0.718766
430 0.889873
435 0.858882
440 0.8729
445 0.938364
450 0.891478
455 0.588287
460 0.360475
465 0.580691
470 0.968909
475 0.692712
480 0.372826
485 0.492962
490 0.457549
495 0.299981
500 0.320559
505 0.300635
510 0.369488
515 0.225362
520 0.207286
525 0.276524
530 0.240316
535 0.227957
540 0.293136
545 0.279777
550 0.225471
555 0.348154
560 0.317305
565 0.239775
570 0.318954
575 0.216932
580 0.252362
585 0.183857
590 0.0988039
595 0.224092
600 0.0255008
Ex : 318
200 0.0678996
205 0.152423
210 0.19098
215 0.0963481
220 0.100456
225 0.0860142
230 0.163797
235 0.0631972
240 0.133286
245 0.0880289
250 0.177306
255 0.158004
260 0.0651592
265 0.124256
270 0.262305
275 0.183869
280 0.328242
285 0.107841
290 0.263743
295 0.159246
300 0.179704
305 0.173104
310 0.112946
315 0.547303
320 0.391091
325 0.36985
330 0.425805
335 0.610455
340 1.19383
345 1.27046
350 1.93267
355 2.57142
360 4.243
365 4.81366
370 5.45782
375 6.06575
380 7.50427
385 7.64558
390 8.93484
395 9.04348
400 9.91107
405 9.61163
410 9.72313
415 9.71539
420 9.56319
425 9.36428
430 8.9154
435 8.52234
440 8.19676
445 7.62763
450 7.2879
455 6.62571
460 6.33301
465 6.10676
470 5.58692
475 4.63065
480 4.25745
485 3.98717
490 3.5894
495 3.11282
500 2.34878
505 2.03993
510 1.8671
515 1.76682
520 1.42101
525 1.21213
530 0.907249
535 0.814351
540 0.630535
545 0.514497
550 0.679648
555 0.374319
560 0.519746
565 0.289544
570 0.342895
575 0.177148
580 0.112719
585 0.109603
590 0.132075
595 0.217638
600 0.0247664
Ex : 323
200 0.166392
205 0.108296
210 0.124541
215 0.242289
220 0.146393
225 0.0532057
230 0.0924462
235 0.104358
240 0.195642
245 0.204331
250 0.162636
255 0.0988599
260 0.0976216
265 0.0372482
270 0.0564056
275 0.180843
280 0.111245
285 0.103725
290 0.114187
295 0.0905918
300 0.175384
305 0.135587
310 0.175581
315 6.55534
320 34.0526
325 14.5022
330 3.49066
335 2.6249
340 3.70446
345 5.94615
350 8.2595
355 11.832
360 14.9991
365 18.1177
370 20.9167
375 24.215
380 28.0823
385 31.5079
390 34.3522
395 35.641
400 37.2553
405 36.9599
410 37.4235
415 37.473
420 36.8947
425 34.9541
430 32.8361
435 32.2911
440 30.3756
445 28.7311
450 27.929
455 26.0661
460 23.9238
465 21.8789
470 20.5755
475 18.7894
480 17.0076
485 15.1059
490 13.8544
495 11.5688
500 11.504
505 9.14504
510 8.4818
515 6.99075
520 5.93713
525 5.3903
530 4.33219
535 3.72426
540 3.38741
545 2.48679
550 1.95063
555 1.76974
560 1.5216
565 1.24977
570 1.08722
575 0.708284
580 0.559424
585 0.504462
590 0.51321
595 0.300209
600 0.378063
Ex : 328
200 0.0989826
205 0.113213
210 0.0831449
215 0.202863
220 0.182731
225 0.218214
230 0.139816
235 0.194823
240 0.0979189
245 0.100274
250 0.101836
255 0.222138
260 0.0800268
265 0.102971
270 0.126715
275 0.125148
280 0.195587
285 0.109434
290 0.0652329
295 0.0926716
300 0.270961
305 0.0806275
310 0.118331
315 1.86809
320 81.3494
325 189.992
330 57.1068
335 9.78301
340 6.16393
345 7.2353
350 9.03336
355 13.8715
360 17.6746
365 20.3541
370 22.931
375 25.3554
380 29.4915
385 32.7503
390 35.3341
395 37.3604
400 39.2995
405 39.8854
410 39.8236
415 38.5572
420 38.1235
425 35.7562
430 35.5733
435 33.7041
440 31.9171
445 30.5408
450 28.097
455 26.5929
460 24.6933
465 22.6761
470 20.5918
475 18.782
480 17.4903
485 16.0413
490 14.158
495 12.567
500 11.1471
505 9.74584
510 8.45277
515 7.07794
520 6.08623
525 5.3226
530 4.25971
535 4.42619
540 3.49476
545 2.67423
550 2.47566
555 2.06362
560 1.68216
565 1.40709
570 1.05028
575 0.712854
580 0.547493
585 0.680831
590 0.421017
595 0.371529
600 0.687497
Ex : 333
200 0.236721
205 0.287931
210 0.2959
215 0.121757
220 0.0861352
225 0.145189
230 0.132484
235 0.0710796
240 0.129131
245 0.0919508
250 0.175435
255 0.0769942
260 0.100468
265 0.138602
270 0.151726
275 0.139465
280 0.268653
285 0.24468
290 0.117978
295 0.172302
300 0.110001
305 0.120969
310 0.145494
315 0.171608
320 9.89852
325 209.037
330 366.779
335 96.2814
340 14.4547
345 5.92135
350 5.90708
355 6.43047
360 9.46196
365 14.4599
370 15.4096
375 15.0065
380 16.0084
385 18.5608
390 21.8739
395 22.8087
400 22.6972
405 23.6259
410 24.4545
415 23.7272
420 22.6282
425 21.262
430 19.7779
435 19.4657
440 18.6576
445 17.4201
450 15.5558
455 14.569
460 13.274
465 12.4214
470 11.7043
475 10.6199
480 9.50201
485 8.50027
490 7.19326
495 7.23394
500 6.15893
505 5.53616
510 5.0689
515 4.23109
520 3.49748
525 2.90251
530 2.8791
535 2.33364
540 1.97687
545 1.66351
550 1.30393
555 1.3242
560 1.04017
565 0.954089
570 0.771468
575 0.53476
580 0.592472
585 0.414733
590 0.331042
595 0.317125
600 0.0789685
Ex : 338
200 0.276792
205 0.169028
210 0.0796542
215 0.156634
220 0.168485
225 0.167239
230 0.11965
235 0.141108
240 0.125535
245 0.0902413
250 0.116357
255 0.165482
260 0.0801096
265 0.0902221
270 0.0497164
275 0.166529
280 0.0960523
285 0.232324
290 0.199672
295 0.116048
300 0.0825622
305 0.0821118
310 0.200477
315 0.19209
320 0.267828
325 19.8881
330 326.217
335 467.296
340 117.488
345 16.3339
350 5.35805
355 3.90958
360 3.79705
365 5.626
370 10.0386
375 10.4644
380 9.42164
385 10.0999
390 12.5209
395 13.5549
400 13.1007
405 13.897
410 14.5712
415 14.0563
420 13.9334
425 12.4997
430 11.5924
435 10.7752
440 10.6747
445 9.66894
450 9.03106
455 8.35766
460 7.5962
465 6.9908
470 6.58231
475 5.7404
480 5.25314
485 4.60077
490 4.16688
495 3.81399
500 3.6316
505 3.2416
510 2.72145
515 2.63389
520 2.14293
525 2.00433
530 1.81278
535 1.33771
540 1.41361
545 1.21304
550 0.944107
555 0.802314
560 0.751166
565 0.579721
570 0.554408
575 0.597692
580 0.504716
585 0.333396
590 0.327806
595 0.232358
600 0.0717219
Ex : 343
200 0.0913002
205 0.0924668
210 0.191003
215 0.137556
220 0.118034
225 0.0822923
230 0.122479
235 0.126237
240 0.0761008
245 0.0711954
250 0.117749
255 0.109325
260 0.103007
265 0.185196
270 0.13088
275 0.12791
280 0.0910779
285 0.142507
290 0.0911701
295 0.110087
300 0.192603
305 0.0827854
310 0.207386
315 0.139645
320 0.167795
325 0.393737
330 22.9622
335 361.17
340 531.362
345 131.016
350 17.4815
355 4.4768
360 2.74831
365 2.19369
370 3.02912
375 7.09204
380 9.08864
385 9.49268
390 10.2447
395 10.2877
400 9.93072
405 10.4734
410 11.5594
415 12.2292
420 11.5908
425 10.5538
430 9.26056
435 9.72425
440 9.22104
445 7.91647
450 7.53738
455 6.67058
460 6.57316
465 5.8192
470 5.22483
475 4.86878
480 4.34897
485 4.08734
490 3.64858
495 3.27601
500 3.05822
505 2.85859
510 2.43735
515 2.01291
520 2.08428
525 1.88997
530 1.51985
535 1.40566
540 1.30709
545 1.0998
550 0.875917
555 1.01162
560 0.809483
565 0.559538
570 0.466
575 0.471265
580 0.419157
585 0.366263
590 0.320818
595 0.314685
600 0.158246
Ex : 348
200 0.0900495
205 0.0967932
210 0.189592
215 0.0665825
220 0.17244
225 0.0510291
230 0.133552
235 0.108711
240 0.0862212
245 0.100721
250 0.0793771
255 0.138747
260 0.138065
265 0.0659087
270 0.13723
275 0.0883224
280 0.0779486
285 0.0921157
290 0.127865
295 0.109449
300 0.127509
305 0.106354
310 0.124142
315 0.163682
320 0.12705
325 0.270908
330 0.510959
335 22.9926
340 360.07
345 551.812
350 143.375
355 18.3659
360 4.15345
365 2.41989
370 1.88328
375 2.41247
380 6.69518
385 12.6129
390 13.3317
395 12.5131
400 11.2412
405 12.1524
410 13.4428
415 14.857
420 13.4334
425 11.2526
430 10.6172
435 10.0085
440 9.72042
445 9.33341
450 8.0154
455 7.60449
460 6.92748
465 6.65031
470 5.91764
475 5.2751
480 4.91986
485 4.5307
490 4.07959
495 3.55929
500 3.27847
505 3.35978
510 2.88209
515 2.35419
520 2.24124
525 1.98574
530 1.84311
535 1.4231
540 1.26996
545 0.97423
550 0.986793
555 0.901511
560 0.77053
565 0.624522
570 0.51417
575 0.407697
580 0.503541
585 0.397021
590 0.233329
595 0.324502
600 0.0369271
Ex : 353
200 0.0808453
205 0.0577473
210 0.0575082
215 0.1052
220 0.0978782
225 0.095227
230 0.0606924
235 0.152637
240 0.0618183
245 0.0852291
250 0.0726591
255 0.073556
260 0.10029
265 0.11079
270 0.117161
275 0.0862996
280 0.136926
285 0.0655137
290 0.0725143
295 0.0993569
300 0.0887761
305 0.103035
310 0.0807247
315 0.148165
320 0.171625
325 0.111131
330 0.380495
335 0.670303
340 24.4641
345 399.037
350 586.788
355 143.449
360 18.3469
365 4.06687
370 2.61079
375 1.87009
380 3.18338
385 8.61991
390 16.1519
395 16.3267
400 13.6345
405 12.8826
410 14.3443
415 15.8077
420 15.2725
425 13.1321
430 11.4209
435 11.1607
440 11.2232
445 10.6444
450 9.28974
455 7.96056
460 7.19753
465 7.06223
470 6.74538
475 6.19548
480 5.62415
485 4.86707
490 4.41874
495 4.0987
500 3.45994
505 3.50721
510 3.01984
515 2.56302
520 2.26698
525 1.91563
530 1.83874
535 1.52404
540 1.45487
545 1.39404
550 1.05588
555 0.998852
560 0.873546
565 0.674912
570 0.634894
575 0.574491
580 0.424782
585 0.441869
590 0.233823
595 0.241053
600 0.0274309
Ex : 358
200 0.019146
205 0.106585
210 0.0869589
215 0.0809233
220 0.176106
225 0.139141
230 0.155049
235 0.0739181
240 0.0518875
245 0.106487
250 0.0778745
255 0.0921444
260 0.15352
265 0.0571575
270 0.0656746
275 0.112453
280 0.0705852
285 0.0962332
290 0.146612
295 0.0890545
300 0.119
305 0.0994273
310 0.0674076
315 0.104518
320 0.108673
325 0.121549
330 0.120185
335 0.312502
340 0.625232
345 25.0876
350 389.831
355 597.912
360 145.149
365 18.5159
370 3.88112
375 2.6799
380 2.99741
385 5.49462
390 11.3696
395 15.841
400 14.9858
405 13.4183
410 13.8172
415 14.8009
420 14.0352
425 12.2027
430 11.3868
435 10.4467
440 10.3055
445 9.74195
450 9.08353
455 7.72417
460 7.03941
465 6.56618
470 6.7713
475 5.73678
480 5.41631
485 4.92209
490 4.56576
495 4.01245
500 3.70733
505 3.12463
510 3.15608
515 2.65555
520 2.37632
525 2.01952
530 1.75176
535 1.49894
540 1.53784
545 1.46594
550 1.20447
555 0.95432
560 0.720653
565 0.741906
570 0.602906
575 0.485228
580 0.38632
585 0.371779
590 0.354473
595 0.261323
600 0.279572
Ex : 363
200 0.122312
205 0.0735822
210 0.110563
215 0.107494
220 0.104159
225 0.0966294
230 0.0817689
235 0.0952847
240 0.0564433
245 0.0414463
250 0.050435
255 0.147879
260 0.106081
265 0.0886571
270 0.0941981
275 0.0475743
280 0.0759097
285 0.0423531
290 0.0739636
295 0.0336348
300 0.0714424
305 0.0685266
310 0.141036
315 0.105282
320 0.0737477
325 0.18429
330 0.135734
335 0.208527
340 0.318919
345 0.494271
350 23.1921
355 378.462
360 588.802
365 152.257
370 19.1476
375 4.28265
380 4.27938
385 7.81014
390 11.5372
395 13.1905
400 15.3426
405 16.4493
410 16.6506
415 16.98
420 14.7843
425 12.8087
430 11.873
435 11.4664
440 11.4082
445 10.7834
450 9.76402
455 8.52659
460 7.81937
465 7.0923
470 6.67647
475 6.4857
480 5.74249
485 5.2684
490 4.60557
495 4.25563
500 3.92649
505 3.73869
510 3.17762
515 2.82462
520 2.42846
525 2.20113
530 1.88288
535 1.8828
540 1.42788
545 1.26781
550 1.23624
555 1.02931
560 0.892361
565 0.778457
570 0.64785
575 0.490797
580 0.289029
585 0.417607
590 0.328297
595 0.276204
600 0.197321
Ex : 368
200 0.0784829
205 0.0506221
210 0.0438293
215 0.072263
220 0.0361422
225 0.0690221
230 0.0389167
235 0.0382261
240 0.0739513
245 0.0920959
250 0.0624314
255 0.0500905
260 0.142802
265 0.0762331
270 0.0450469
275 0.0873604
280 0.110975
285 0.117536
290 0.0539082
295 0.115675
300 0.116856
305 0.0679361
310 0.162844
315 0.12493
320 0.0684679
325 0.067843
330 0.149238
335 0.144998
340 0.268395
345 0.276412
350 0.530644
355 18.7824
360 357.76
365 595.419
370 162.66
375 20.7075
380 6.12255
385 9.35517
390 14.1874
395 16.2147
400 15.1713
405 18.1034
410 22.2623
415 22.5031
420 19.7189
425 16.3978
430 14.5213
435 14.0346
440 13.9512
445 13.0287
450 11.473
455 10.1906
460 9.17802
465 8.80638
470 7.90588
475 7.18849
480 6.68727
485 5.88679
490 5.57072
495 5.24018
500 4.42177
505 3.99729
510 3.56186
515 3.27371
520 2.65738
525 2.26272
530 2.15692
535 1.73713
540 1.45683
545 1.4672
550 1.37016
555 1.14018
560 1.06866
565 0.841195
570 0.614095
575 0.563218
580 0.43345
585 0.297316
590 0.359851
595 0.166745
600 0.191292
Ex : 373
200 0.0370753
205 0.0675588
210 0.0674403
215 0.0725779
220 0.0758462
225 0.0355842
230 0.076193
235 0.0523213
240 0.0396903
245 0.0704624
250 0.100665
255 0.0543331
260 0.0744879
265 0.0712314
270 0.0568527
275 0.0977727
280 0.065065
285 0.0623099
290 0.0720616
295 0.0582212
300 0.0834601
305 0.0911714
310 0.0688009
315 0.052672
320 0.0946513
325 0.0854094
330 0.110491
335 0.163156
340 0.176684
345 0.159478
350 0.317068
355 0.579841
360 21.4742
365 368.416
370 576.391
375 153.895
380 21.1011
385 8.77851
390 14.2061
395 17.6104
400 15.4021
405 14.635
410 17.9727
415 23.5413
420 22.6769
425 18.3981
430 14.4174
435 13.7609
440 13.9545
445 13.0092
450 11.6801
455 9.96503
460 9.1008
465 8.1854
470 7.96739
475 7.17422
480 6.75257
485 6.24523
490 5.23002
495 5.0283
500 4.70203
505 4.18463
510 3.47402
515 3.11522
520 2.83476
525 2.62052
530 2.29335
535 2.01821
540 1.81368
545 1.60412
550 1.3982
555 1.08599
560 0.924803
565 0.72765
570 0.783939
575 0.540463
580 0.428422
585 0.314438
590 0.291805
595 0.282831
600 0.354441
Ex : 378
200 0.113167
205 0.0491501
210 0.072483
215 0.111041
220 0.0901415
225 0.0781154
230 0.0764171
235 0.0797293
240 0.0660124
245 0.115369
250 0.0709588
255 0.054141
260 0.0473065
265 0.0731885
270 0.0716854
275 0.0928624
280 0.0451039
285 0.0537422
290 0.133756
295 0.0767555
300 0.0638982
305 0.047269
310 0.103067
315 0.147892
320 0.0939289
325 0.064614
330 0.0841176
335 0.1244
340 0.115249
345 0.201172
350 0.223653
355 0.325962
360 0.562124
365 21.0108
370 370.105
375 596.796
380 163.085
385 24.4839
390 12.6987
395 12.7948
400 11.4968
405 10.6233
410 12.1441
415 15.0452
420 17.147
425 14.9053
430 11.8956
435 10.8268
440 10.4804
445 10.0795
450 9.33024
455 8.06489
460 7.38132
465 6.78956
470 6.4304
475 6.35343
480 5.75235
485 5.35585
490 5.09526
495 4.4331
500 4.19282
505 3.79729
510 3.65527
515 2.9219
520 2.65106
525 2.28988
530 2.22845
535 1.90812
540 1.7466
545 1.44581
550 1.39917
555 1.14288
560 0.835128
565 0.797103
570 0.760504
575 0.547629
580 0.495593
585 0.345321
590 0.228635
595 0.229658
600 0.10272
Ex : 383
200 0.0974949
205 0.0445188
210 0.0761802
215 0.0664704
220 0.103892
225 0.0865626
230 0.0505598
235 0.0840711
240 0.0606005
245 0.0602363
250 0.0492496
255 0.0500979
260 0.0921313
265 0.044162
270 0.0787919
275 0.0560057
280 0.0899789
285 0.0274884
290 0.0467367
295 0.0292085
300 0.0764438
305 0.067935
310 0.053842
315 0.0991206
320 0.0731312
325 0.0642427
330 0.075409
335 0.0962654
340 0.0766334
345 0.123802
350 0.261108
355 0.201551
360 0.323937
365 0.644185
370 19.7685
375 368.573
380 622.073
385 174.152
390 29.8476
395 13.2505
400 10.8706
405 11.1976
410 13.1581
415 14.1737
420 13.4876
425 13.8707
430 13.4782
435 11.6329
440 11.1184
445 9.81503
450 8.54731
455 7.89708
460 6.96477
465 7.0772
470 6.64457
475 6.11633
480 5.5812
485 5.27418
490 4.834
495 4.55147
500 4.0464
505 3.82774
510 3.25214
515 3.3309
520 2.91214
525 2.42644
530 2.10254
535 1.8799
540 1.76116
545 1.5476
550 1.40149
555 1.07733
560 1.02338
565 0.859862
570 0.761113
575 0.61674
580 0.455423
585 0.380055
590 0.34825
595 0.206269
600 0.0234726
Ex : 388
200 0.0782012
205 0.111577
210 0.0451863
215 0.0781635
220 0.0486788
225 0.0325288
230 0.0429437
235 0.0387206
240 0.0628117
245 0.0810181
250 0.0538757
255 0.0321838
260 0.118469
265 0.0793108
270 0.059259
275 0.0349152
280 0.0601399
285 0.0747703
290 0.0935223
295 0.0762035
300 0.0713816
305 0.0659679
310 0.0508424
315 0.0883171
320 0.0454983
325 0.106861
330 0.0777235
335 0.0669945
340 0.129419
345 0.137452
350 0.083998
355 0.137072
360 0.178456
365 0.353843
370 0.679227
375 20.8501
380 382.636
385 634.796
390 181.031
395 33.1793
400 15.1131
405 13.7729
410 15.7304
415 16.8767
420 15.9522
425 14.0523
430 13.8657
435 14.7874
440 13.7464
445 12.4761
450 10.7041
455 8.88205
460 7.99576
465 7.54227
470 7.3856
475 6.88118
480 6.02842
485 5.54035
490 5.15897
495 4.78839
500 4.38241
505 3.65777
510 3.40935
515 3.25336
520 2.82952
525 2.47244
530 2.22701
535 1.97903
540 1.74593
545 1.48124
550 1.38566
555 1.34324
560 1.06179
565 0.910457
570 0.803934
575 0.59505
580 0.433655
585 0.333743
590 0.31517
595 0.209365
600 0.268295
Ex : 393
200 0.042164
205 0.0618103
210 0.0598039
215 0.0534074
220 0.0589418
225 0.0978545
230 0.0584817
235 0.068217
240 0.0487199
245 0.0668039
250 0.0539873
255 0.0599915
260 0.0790654
265 0.095301
270 0.0782834
275 0.0759174
280 0.0832909
285 0.0328034
290 0.0604646
295 0.0476256
300 0.0887158
305 0.0533993
310 0.0531066
315 0.0586823
320 0.077907
325 0.049144
330 0.0543961
335 0.0724046
340 0.0938155
345 0.129548
350 0.117605
355 0.164431
360 0.167102
365 0.179269
370 0.40272
375 0.73318
380 18.7859
385 375.518
390 656.027
395 186.031
400 33.6631
405 15.0461
410 14.444
415 18.1361
420 17.8753
425 14.0383
430 11.9524
435 12.4796
440 14.7834
445 13.5689
450 11.3158
455 9.6421
460 7.59015
465 7.5138
470 7.26538
475 6.56342
480 5.98794
485 5.43093
490 4.89918
495 4.61892
500 4.22984
505 4.06584
510 3.35025
515 3.20772
520 2.86555
525 2.60869
530 2.31717
535 1.90387
540 1.73596
545 1.63507
550 1.41468
555 1.25975
560 0.96541
565 0.885822
570 0.75119
575 0.560237
580 0.451491
585 0.329089
590 0.237059
595 0.212577
600 0.075195
Ex : 398
200 0.0627071
205 0.0448743
210 0.0411234
215 0.0470076
220 0.0712784
225 0.0512684
230 0.0981212
235 0.0832497
240 0.0298568
245 0.0373186
250 0.0502161
255 0.0342993
260 0.0401843
265 0.0743224
270 0.0600088
275 0.0526297
280 0.0644058
285 0.044212
290 0.0849045
295 0.0660079
300 0.0252787
305 0.0694158
310 0.0589972
315 0.0521136
320 0.105041
325 0.0479244
330 0.0391639
335 0.0634744
340 0.0575058
345 0.0851004
350 0.0839922
355 0.0850103
360 0.092211
365 0.157268
370 0.210191
375 0.320811
380 0.785571
385 19.7765
390 386.667
395 674.271
400 183.952
405 27.9911
410 10.5849
415 11.1985
420 11.3202
425 9.13813
430 7.5303
435 7.15682
440 8.33427
445 10.1296
450 9.42544
455 7.33444
460 6.48053
465 5.4272
470 5.28156
475 5.17055
480 4.90453
485 4.34953
490 4.26688
495 3.77598
500 3.65133
505 3.33071
510 3.25207
515 2.75428
520 2.49715
525 2.13487
530 2.02411
535 1.93197
540 1.71042
545 1.44559
550 1.23489
555 1.09613
560 1.0323
565 0.874452
570 0.647869
575 0.573386
580 0.453242
585 0.294754
590 0.219101
595 0.196333
600 0.340774
Ex : 403
200 0.0316533
205 0.0332974
210 0.034847
215 0.0386341
220 0.0711722
225 0.0444327
230 0.033091
235 0.0494214
240 0.0720328
245 0.072384
250 0.0687593
255 0.055957
260 0.0367956
265 0.0696778
270 0.0847465
275 0.0652676
280 0.0565229
285 0.030072
290 0.0427298
295 0.0503461
300 0.0450404
305 0.08465
310 0.0634527
315 0.0426194
320 0.0628204
325 0.11349
330 0.0588347
335 0.108302
340 0.0671929
345 0.129582
350 0.0889912
355 0.111324
360 0.0847859
365 0.131172
370 0.179322
375 0.15551
380 0.424473
385 1.02798
390 23.0503
395 401.073
400 656.569
405 179.072
410 24.1315
415 6.77056
420 5.4106
425 4.57017
430 4.07819
435 3.76566
440 4.04715
445 4.66242
450 6.47059
455 6.61503
460 5.00602
465 4.68303
470 4.23518
475 3.81398
480 3.89524
485 3.65804
490 3.54743
495 3.48828
500 3.06625
505 2.91944
510 2.95745
515 2.65068
520 2.49712
525 2.19785
530 1.95801
535 1.64121
540 1.5371
545 1.37794
550 1.35571
555 1.09896
560 1.13177
565 0.852332
570 0.780342
575 0.597447
580 0.419689
585 0.342237
590 0.222034
595 0.20287
600 0.232497
Ex : 408
200 0.0673085
205 0.0389278
210 0.0501834
215 0.0582104
220 0.0670091
225 0.033806
230 0.14661
235 0.0837974
240 0.0497553
245 0.0691651
250 0.0400764
255 0.0668205
260 0.0513439
265 0.0921852
270 0.0543827
275 0.0569326
280 0.0634495
285 0.0806778
290 0.0681107
295 0.0463538
300 0.0959606
305 0.0596691
310 0.0327653
315 0.0544289
320 0.0668867
325 0.0894294
330 0.0670474
335 0.1213
340 0.0997035
345 0.0656447
350 0.0572788
355 0.115141
360 0.085288
365 0.114514
370 0.173686
375 0.124225
380 0.177659
385 0.409978
390 0.887317
395 22.5075
400 402.89
405 673.592
410 179.395
415 23.8332
420 5.84635
425 3.55355
430 3.5618
435 3.35317
440 3.39102
445 3.29865
450 3.86321
455 5.16472
460 6.29321
465 5.29274
470 4.70059
475 4.15614
480 3.77929
485 3.79685
490 3.49192
495 3.15893
500 3.07025
505 2.97372
510 2.85331
515 2.42823
520 2.27084
525 2.01721
530 1.82073
535 1.77655
540 1.656
545 1.51089
550 1.13873
555 1.14213
560 0.916937
565 0.817673
570 0.817441
575 0.572874
580 0.362309
585 0.335956
590 0.308368
595 0.215076
600 0.0427471
Ex : 413
200 0.0358594
205 0.0262694
210 0.0489753
215 0.0576778
220 0.035846
225 0.0597162
230 0.0504836
235 0.0826372
240 0.100712
245 0.0906394
250 0.0382766
255 0.0452194
260 0.030759
265 0.0638294
270 0.0568126
275 0.0423369
280 0.0391558
285 0.0634035
290 0.0458292
295 0.0463778
300 0.0882378
305 0.0375867
310 0.0795303
315 0.0508757
320 0.0529901
325 0.0485076
330 0.0794769
335 0.0641659
340 0.0915906
345 0.0499866
350 0.0640669
355 0.0565398
360 0.0978756
365 0.06497
370 0.107965
375 0.123893
380 0.17245
385 0.228612
390 0.424264
395 0.686386
400 23.062
405 407.611
410 657.677
415 168.387
420 22.0725
425 5.12072
430 3.10339
435 3.30629
440 3.31277
445 3.14434
450 2.95115
455 3.08664
460 4.04139
465 5.85515
470 5.05344
475 4.25689
480 4.00654
485 3.39192
490 3.19963
495 3.10907
500 2.98169
505 2.6544
510 2.4845
515 2.40646
520 2.2543
525 1.94686
530 1.84905
535 1.62248
540 1.52051
545 1.3674
550 1.22004
555 0.952779
560 0.974957
565 0.795118
570 0.596449
575 0.497292
580 0.383355
585 0.332961
590 0.240175
595 0.258651
600 0.097603
Ex : 418
200 0.0473829
205 0.0423842
210 0.0462116
215 0.043502
220 0.053455
225 0.0465406
230 0.0657094
235 0.0590711
240 0.0910824
245 0.0376973
250 0.0801102
255 0.0637847
260 0.0413243
265 0.0611536
270 0.0648905
275 0.0301524
280 0.0503096
285 0.0501581
290 0.062292
295 0.0396639
300 0.0466275
305 0.0380427
310 0.0273729
315 0.0335914
320 0.0362378
325 0.042295
330 0.0340581
335 0.0471909
340 0.0513002
345 0.13068
350 0.0894368
355 0.0880431
360 0.060865
365 0.100798
370 0.126515
375 0.141258
380 0.13259
385 0.173003
390 0.2538
395 0.329416
400 0.750089
405 22.6741
410 413.73
415 672.051
420 180.478
425 22.8405
430 4.38694
435 2.23727
440 2.47084
445 2.36254
450 2.08171
455 2.05796
460 2.12214
465 2.976
470 4.707
475 4.87485
480 3.76804
485 3.5256
490 2.94194
495 2.60243
500 2.48159
505 2.39699
510 2.3486
515 2.20992
520 1.88524
525 1.81149
530 1.47311
535 1.63006
540 1.50896
545 1.18488
550 1.14168
555 0.880659
560 0.855618
565 0.753041
570 0.624362
575 0.502061
580 0.399346
585 0.309165
590 0.302078
595 0.192204
600 0.109326
Ex : 423
200 0.142151
205 0.100384
210 0.102882
215 0.0785037
220 0.0715852
225 0.0513925
230 0.0811334
235 0.0595812
240 0.0386285
245 0.0464346
250 0.0431732
255 0.0549032
260 0.0582917
265 0.0545082
270 0.0413823
275 0.0703539
280 0.0668099
285 0.0785573
290 0.0600853
295 0.0384975
300 0.0474187
305 0.0492504
310 0.0489048
315 0.0782265
320 0.0728161
325 0.0794773
330 0.0664374
335 0.0401991
340 0.0745562
345 0.0920844
350 0.0825201
355 0.0867168
360 0.127779
365 0.0884141
370 0.103317
375 0.0789705
380 0.098055
385 0.152781
390 0.179576
395 0.223269
400 0.313096
405 0.585808
410 21.5948
415 412.332
420 656.394
425 165.734
430 20.7169
435 3.77486
440 1.70766
445 1.72745
450 1.72742
455 1.50823
460 1.51229
465 1.69271
470 2.15235
475 3.62512
480 4.58305
485 3.54407
490 3.22202
495 2.72745
500 2.22179
505 2.26359
510 2.17471
515 1.93875
520 1.76301
525 1.63355
530 1.64716
535 1.34914
540 1.19758
545 1.28924
550 1.07495
555 1.03938
560 0.807185
565 0.744161
570 0.665497
575 0.515817
580 0.306993
585 0.296203
590 0.296114
595 0.242541
600 0.082626
Ex : 428
200 0.06896
205 0.057502
210 0.116507
215 0.0573383
220 0.0468519
225 0.0805079
230 0.0536711
235 0.0691861
240 0.0513214
245 0.0233706
250 0.0412146
255 0.0211786
260 0.0476807
265 0.0902489
270 0.0729951
275 0.0525673
280 0.0795728
285 0.0471957
290 0.0332754
295 0.0797188
300 0.0505826
305 0.0350533
310 0.036984
315 0.065778
320 0.0528109
325 0.0520591
330 0.132076
335 0.0886504
340 0.0362067
345 0.051473
350 0.0848667
355 0.0382493
360 0.0564906
365 0.0469382
370 0.0502232
375 0.0852218
380 0.0892344
385 0.0912539
390 0.16793
395 0.148672
400 0.257394
405 0.344006
410 0.778829
415 24.0994
420 424.543
425 685.838
430 174.995
435 21.3779
440 3.61686
445 1.52059
450 1.56161
455 1.6136
460 1.36565
465 1.22856
470 1.55838
475 1.77401
480 2.91056
485 4.2341
490 3.46784
495 2.69876
500 2.4688
505 2.09074
510 1.86061
515 1.67742
520 1.64284
525 1.61246
530 1.4166
535 1.34597
540 1.32122
545 1.07379
550 0.91749
555 0.813993
560 0.757776
565 0.685679
570 0.614027
575 0.473208
580 0.433671
585 0.355306
590 0.271287
595 0.195437
600 0.680985
Ex : 433
200 0.069127
205 0.0543287
210 0.0785723
215 0.0663935
220 0.0719624
225 0.102258
230 0.0645367
235 0.0716353
240 0.03782
245 0.0439643
250 0.054949
255 0.0289688
260 0.0709703
265 0.0666346
270 0.0988368
275 0.111388
280 0.0343492
285 0.0571368
290 0.0448308
295 0.0295407
300 0.0887789
305 0.071365
310 0.0397916
315 0.0624513
320 0.0570836
325 0.0543814
330 0.0946362
335 0.0521036
340 0.054142
345 0.0843974
350 0.0524607
355 0.0387
360 0.0960777
365 0.0831124
370 0.111625
375 0.0639693
380 0.0861052
385 0.0911692
390 0.19547
395 0.13452
400 0.174559
405 0.210467
410 0.362875
415 0.634356
420 27.5357
425 459.227
430 674.823
435 170.161
440 20.9335
445 3.67798
450 1.4525
455 1.59927
460 1.58218
465 1.32308
470 1.24864
475 1.29654
480 1.64901
485 2.53064
490 3.99344
495 3.48112
500 2.57826
505 2.28644
510 1.97206
515 1.69206
520 1.49853
525 1.39721
530 1.32971
535 1.24609
540 1.13009
545 1.05305
550 1.00089
555 0.762966
560 0.80249
565 0.699025
570 0.580494
575 0.456139
580 0.365961
585 0.241196
590 0.301223
595 0.176193
600 0.0797272
Ex : 438
200 0.0543401
205 0.0493683
210 0.0478651
215 0.0447679
220 0.0357309
225 0.0460366
230 0.0459191
235 0.0562239
240 0.0908152
245 0.0518522
250 0.0556506
255 0.0510534
260 0.0726573
265 0.0389876
270 0.0669331
275 0.0403608
280 0.0519869
285 0.0469949
290 0.0250648
295 0.0896542
300 0.099484
305 0.0650452
310 0.0507369
315 0.0819087
320 0.0975166
325 0.0653414
330 0.0771418
335 0.0580751
340 0.0446293
345 0.0399258
350 0.106325
355 0.054548
360 0.0875053
365 0.0849464
370 0.0497074
375 0.11049
380 0.131229
385 0.0809175
390 0.098637
395 0.110477
400 0.17144
405 0.213705
410 0.243059
415 0.423091
420 0.656932
425 25.6236
430 441.78
435 734.839
440 184.257
445 22.6219
450 3.69497
455 1.3908
460 1.36528
465 1.50378
470 1.51707
475 1.26941
480 1.27333
485 1.31352
490 2.08466
495 3.39181
500 3.609
505 2.53935
510 2.30631
515 1.95235
520 1.56467
525 1.46169
530 1.25865
535 1.20452
540 1.04911
545 0.961641
550 0.875214
555 0.961515
560 0.712061
565 0.699559
570 0.547407
575 0.482171
580 0.379836
585 0.308979
590 0.232858
595 0.233088
600 0.0969513
Ex : 443
200 0.0423217
205 0.107532
210 0.077736
215 0.0645223
220 0.0555534
225 0.0634251
230 0.0716413
235 0.0530461
240 0.0729291
245 0.0802379
250 0.0478474
255 0.0520011
260 0.0676378
265 0.0539238
270 0.0612672
275 0.0737824
280 0.0733844
285 0.0477361
290 0.0467241
295 0.0395826
300 0.048515
305 0.0894837
310 0.0523458
315 0.0453214
320 0.0468193
325 0.0493077
330 0.110552
335 0.0920522
340 0.0581213
345 0.048157
350 0.0756159
355 0.0680076
360 0.0595963
365 0.064904
370 0.034393
375 0.10934
380 0.0814378
385 0.0908381
390 0.0691662
395 0.121925
400 0.0900889
405 0.150029
410 0.162914
415 0.299199
420 0.371913
425 0.702677
430 28.3936
435 473.876
440 716.642
445 182.471
450 22.3207
455 3.70719
460 1.44197
465 1.5307
470 1.47104
475 1.37953
480 1.30144
485 1.22313
490 1.42765
495 1.57749
500 2.61958
505 3.53262
510 2.65832
515 1.98018
520 1.80863
525 1.54883
530 1.17223
535 1.15768
540 1.00137
545 0.992203
550 0.925572
555 0.820351
560 0.808593
565 0.59423
570 0.567498
575 0.418918
580 0.366633
585 0.309589
590 0.20871
595 0.226589
600 0.23098
Ex : 448
200 0.0361926
205 0.0536566
210 0.0292964
215 0.039684
220 0.0968734
225 0.041274
230 0.0366869
235 0.0379912
240 0.0281938
245 0.132866
250 0.0612412
255 0.0353515
260 0.0490323
265 0.0799042
270 0.0619664
275 0.0550334
280 0.049473
285 0.0981323
290 0.052048
295 0.0326315
300 0.0580433
305 0.0604809
310 0.0866536
315 0.0422248
320 0.0491259
325 0.113251
330 0.0514744
335 0.0668995
340 0.0555964
345 0.0530924
350 0.0728646
355 0.0616251
360 0.0428254
365 0.0672012
370 0.0768331
375 0.118684
380 0.140269
385 0.124623
390 0.109947
395 0.0939625
400 0.151458
405 0.140847
410 0.129266
415 0.164429
420 0.258497
425 0.400049
430 0.799131
435 29.0026
440 494.477
445 756.165
450 188.066
455 22.995
460 3.89057
465 1.63855
470 1.36132
475 1.55187
480 1.39642
485 1.20319
490 1.04728
495 1.31429
500 1.36571
505 2.30822
510 3.50599
515 2.90505
520 1.99757
525 1.71763
530 1.52401
535 1.25031
540 1.03685
545 0.94516
550 0.876659
555 0.823225
560 0.705882
565 0.63208
570 0.516126
575 0.515601
580 0.313703
585 0.240338
590 0.271778
595 0.225857
600 0.0257016
Ex : 453
200 0.0569435
205 0.0372262
210 0.0578929
215 0.096396
220 0.0597224
225 0.0972061
230 0.0479053
235 0.0321027
240 0.0508087
245 0.0586816
250 0.0404398
255 0.0340684
260 0.0187682
265 0.0412103
270 0.0300442
275 0.0618132
280 0.0581625
285 0.0578374
290 0.0348697
295 0.0771986
300 0.0319248
305 0.0566005
310 0.056366
315 0.0282711
320 0.0680906
325 0.0468851
330 0.0439604
335 0.0428173
340 0.0597058
345 0.0574096
350 0.0350298
355 0.0965927
360 0.0492714
365 0.0422391
370 0.0695482
375 0.0770674
380 0.0791015
385 0.0665576
390 0.0780751
395 0.121732
400 0.0552859
405 0.133305
410 0.143102
415 0.184344
420 0.208478
425 0.224461
430 0.388678
435 0.781475
440 31.9216
445 543.16
450 801.276
455 186.991
460 23.0142
465 4.02638
470 1.5551
475 1.42109
480 1.64575
485 1.38993
490 1.16182
495 1.22458
500 1.05406
505 1.08873
510 1.697
515 2.99575
520 3.00905
525 1.91179
530 1.57964
535 1.5736
540 1.23706
545 0.999121
550 0.84212
555 0.80335
560 0.76817
565 0.642498
570 0.566897
575 0.484165
580 0.369737
585 0.32711
590 0.276539
595 0.224293
600 0.0255237
Ex : 458
200 0.041274
205 0.0450009
210 0.0390357
215 0.0603807
220 0.0429744
225 0.0437376
230 0.0685021
235 0.0927851
240 0.0528016
245 0.0747604
250 0.0337181
255 0.0436656
260 0.0806045
265 0.0915761
270 0.0599041
275 0.0510436
280 0.068513
285 0.0842825
290 0.0589362
295 0.0514266
300 0.0592947
305 0.0790992
310 0.0546263
315 0.0329722
320 0.0878854
325 0.0810717
330 0.0844323
335 0.0814007
340 0.0587462
345 0.0714148
350 0.0439309
355 0.0588138
360 0.0724842
365 0.0749445
370 0.0726114
375 0.058149
380 0.0698578
385 0.10949
390 0.0569569
395 0.0956962
400 0.111176
405 0.103423
410 0.135445
415 0.142093
420 0.151051
425 0.146847
430 0.256756
435 0.394777
440 0.738496
445 34.8089
450 564.003
455 830.589
460 203.821
465 25.0743
470 4.23061
475 1.52699
480 1.27003
485 1.30726
490 1.31811
495 1.14846
500 1.11722
505 1.04414
510 1.23064
515 1.25061
520 2.26166
525 3.16229
530 2.06064
535 1.57398
540 1.39994
545 1.13996
550 0.989287
555 0.764069
560 0.682979
565 0.655501
570 0.62672
575 0.435528
580 0.318011
585 0.344445
590 0.306327
595 0.290735
600 0.445476
Ex : 463
200 0.0440279
205 0.0417616
210 0.0586251
215 0.0810376
220 0.0576401
225 0.0462177
230 0.0301277
235 0.0278866
240 0.0710986
245 0.0411809
250 0.0687742
255 0.0452185
260 0.041638
265 0.0384649
270 0.0407113
275 0.060069
280 0.0348073
285 0.0671777
290 0.0718227
295 0.0608183
300 0.0564099
305 0.0894281
310 0.0749621
315 0.0283164
320 0.0341786
325 0.0899273
330 0.0381159
335 0.0751688
340 0.0620581
345 0.0873663
350 0.0616901
355 0.0606509
360 0.0705726
365 0.102858
370 0.0724616
375 0.0756589
380 0.0839969
385 0.062379
390 0.070306
395 0.0863555
400 0.0836556
405 0.0799025
410 0.0680998
415 0.111386
420 0.148268
425 0.129911
430 0.193431
435 0.199589
440 0.363145
445 0.854918
450 33.6413
455 597.018
460 891.347
465 216.424
470 26.5195
475 4.2291
480 1.45775
485 1.27361
490 1.50907
495 1.41469
500 1.20766
505 1.16625
510 1.07696
515 1.00442
520 1.09063
525 1.80861
530 2.82562
535 2.41966
540 1.71263
545 1.47379
550 1.24817
555 0.908238
560 0.804714
565 0.689057
570 0.619389
575 0.428558
580 0.405638
585 0.410324
590 0.256286
595 0.20826
600 0.558664
Ex : 468
200 0.0340483
205 0.0609271
210 0.0551225
215 0.0386545
220 0.0664249
225 0.0785943
230 0.0663861
235 0.0520527
240 0.0603166
245 0.0662073
250 0.0385974
255 0.0833735
260 0.0595595
265 0.036397
270 0.0486467
275 0.0497792
280 0.0784531
285 0.0746945
290 0.056875
295 0.0643966
300 0.0626431
305 0.0514097
310 0.0534464
315 0.0320208
320 0.0639747
325 0.0484383
330 0.0874286
335 0.0716839
340 0.0520375
345 0.0473017
350 0.0692825
355 0.0648981
360 0.0507609
365 0.0844431
370 0.0368138
375 0.0775961
380 0.0742986
385 0.0515222
390 0.0595601
395 0.0878645
400 0.0924643
405 0.121218
410 0.0900161
415 0.0628183
420 0.163838
425 0.162339
430 0.156056
435 0.145747
440 0.228671
445 0.344431
450 0.75709
455 37.1167
460 621.171
465 962.655
470 231.708
475 28.063
480 4.50798
485 1.59157
490 1.21814
495 1.36616
500 1.4207
505 1.08997
510 0.945969
515 1.02781
520 0.910111
525 1.16352
530 1.49369
535 2.59226
540 2.62702
545 1.65782
550 1.39154
555 1.20616
560 0.971014
565 0.729995
570 0.610987
575 0.571129
580 0.437857
585 0.396496
590 0.295508
595 0.239743
600 0.218566
Ex : 473
200 0.064152
205 0.0562189
210 0.0709299
215 0.0496506
220 0.0391335
225 0.0803504
230 0.0594548
235 0.0513619
240 0.051719
245 0.0666455
250 0.0536381
255 0.0770392
260 0.0860545
265 0.0334322
270 0.0590882
275 0.0629822
280 0.0315137
285 0.0574948
290 0.031298
295 0.0653469
300 0.0505955
305 0.0659349
310 0.0616478
315 0.0665863
320 0.0537292
325 0.0442133
330 0.0658492
335 0.0681636
340 0.0523029
345 0.0825182
350 0.0456208
355 0.0627443
360 0.0735854
365 0.117248
370 0.0936995
375 0.111024
380 0.105935
385 0.130166
390 0.0700198
395 0.106905
400 0.0696365
405 0.0795007
410 0.0977467
415 0.10041
420 0.107909
425 0.0967705
430 0.119527
435 0.213113
440 0.17012
445 0.250233
450 0.416667
455 0.86515
460 44.2504
465 666.34
470 937.756
475 217.035
480 26.3434
485 4.11193
490 1.41712
495 1.07616
500 1.31339
505 1.28047
510 1.0662
515 1.05467
520 1.0871
525 0.964459
530 1.01359
535 1.23904
540 2.01766
545 2.51043
550 1.77781
555 1.22923
560 1.1439
565 0.923072
570 0.663697
575 0.50529
580 0.426369
585 0.320539
590 0.268965
595 0.264692
600 0.158185
Ex : 478
200 0.0701609
205 0.0621198
210 0.0812666
215 0.0513157
220 0.0715863
225 0.0851652
230 0.0728852
235 0.119943
240 0.059811
245 0.12729
250 0.0561923
255 0.0640283
260 0.123659
265 0.107847
270 0.062269
275 0.0528908
280 0.0636695
285 0.0686573
290 0.0558507
295 0.0469121
300 0.0716713
305 0.0589816
310 0.0650855
315 0.0453181
320 0.0688569
325 0.104071
330 0.0489419
335 0.106015
340 0.0529899
345 0.0913295
350 0.0884253
355 0.098328
360 0.0753318
365 0.142429
370 0.0724571
375 0.075661
380 0.0820436
385 0.113174
390 0.090211
395 0.149741
400 0.0641365
405 0.137179
410 0.131377
415 0.055634
420 0.100318
425 0.130573
430 0.16169
435 0.165729
440 0.158431
445 0.24254
450 0.319763
455 0.532561
460 1.12349
465 49.5246
470 706.796
475 1021.74
480 243.771
485 29.3591
490 4.6228
495 1.4251
500 0.971054
505 1.12967
510 1.1871
515 1.10151
520 0.983588
525 0.995296
530 1.00281
535 0.979429
540 1.0373
545 1.51848
550 2.12717
555 1.84115
560 1.25205
565 1.09078
570 0.83133
575 0.607837
580 0.427417
585 0.339258
590 0.295761
595 0.329605
600 0.412621
Ex : 483
200 0.0692124
205 0.0460866
210 0.0522525
215 0.0794405
220 0.0446418
225 0.0516798
230 0.0805336
235 0.0392914
240 0.073113
245 0.0739893
250 0.0801061
255 0.0471853
260 0.0422182
265 0.0607968
270 0.0733207
275 0.115771
280 0.0393563
285 0.0452634
290 0.0565013
295 0.0891075
300 0.0456652
305 0.0650592
310 0.0445647
315 0.0707459
320 0.0833277
325 0.0930977
330 0.0583563
335 0.04958
340 0.0681265
345 0.0909993
350 0.0748604
355 0.0545449
360 0.0413645
365 0.0424589
370 0.0742336
375 0.0832588
380 0.114359
385 0.0985451
390 0.0898265
395 0.0999351
400 0.0942254
405 0.126173
410 0.0631029
415 0.0657539
420 0.0736889
425 0.0828819
430 0.113826
435 0.152624
440 0.107732
445 0.163195
450 0.25616
455 0.329183
460 0.591642
465 1.06466
470 38.8559
475 683.425
480 1050.34
485 255.063
490 30.672
495 4.68137
500 1.37993
505 1.09882
510 1.12825
515 1.23973
520 1.10163
525 1.02462
530 1.05083
535 0.879439
540 0.858962
545 0.877963
550 1.11849
555 1.82884
560 2.14114
565 1.30901
570 0.972327
575 0.809177
580 0.660325
585 0.470122
590 0.409433
595 0.256007
600 0.417229
Ex : 488
200 0.0904431
205 0.0677433
210 0.0839819
215 0.0431813
220 0.105328
225 0.093773
230 0.0750593
235 0.0796667
240 0.0632631
245 0.0494928
250 0.0340822
255 0.0896401
260 0.0711833
265 0.089275
270 0.0963258
275 0.0886303
280 0.071251
285 0.0484898
290 0.0474771
295 0.0579402
300 0.0429092
305 0.0823523
310 0.0904102
315 0.0787577
320 0.112481
325 0.101257
330 0.07108
335 0.0864055
340 0.0516447
345 0.0448462
350 0.112285
355 0.0853333
360 0.06916
365 0.0960265
370 0.118183
375 0.0776996
380 0.0806323
385 0.141259
390 0.082079
395 0.0866568
400 0.111016
405 0.139849
410 0.120274
415 0.113017
420 0.0705914
425 0.133035
430 0.127558
435 0.137525
440 0.130734
445 0.147877
450 0.182261
455 0.246551
460 0.458173
465 0.602407
470 1.08246
475 48.0348
480 776.993
485 1093.43
490 251.636
495 30.4449
500 4.71408
505 1.54848
510 1.01396
515 0.928558
520 1.23861
525 1.18024
530 1.03043
535 0.835917
540 0.958465
545 0.873732
550 0.899323
555 0.759354
560 1.3652
565 1.80309
570 1.24256
575 0.837005
580 0.636989
585 0.500914
590 0.292546
595 0.267831
600 0.3611
Ex : 493
200 0.0818059
205 0.0711918
210 0.0377408
215 0.0375926
220 0.0427804
225 0.0451246
230 0.0409747
235 0.0870816
240 0.0746106
245 0.111214
250 0.147002
255 0.0821792
260 0.0702155
265 0.0563828
270 0.0562326
275 0.0401722
280 0.101272
285 0.0532953
290 0.0904844
295 0.0672768
300 0.0712983
305 0.0736096
310 0.0285414
315 0.0560145
320 0.0648592
325 0.0787814
330 0.13275
335 0.0640166
340 0.087203
345 0.0969186
350 0.0887238
355 0.0793828
360 0.0812696
365 0.0563345
370 0.0705713
375 0.0952707
380 0.120128
385 0.0693192
390 0.0984123
395 0.116774
400 0.104579
405 0.101894
410 0.169637
415 0.14487
420 0.127482
425 0.161191
430 0.138423
435 0.121648
440 0.127592
445 0.14019
450 0.196254
455 0.214975
460 0.265629
465 0.39659
470 0.57491
475 1.00907
480 45.182
485 763.831
490 1160.47
495 270.036
500 32.3889
505 4.84178
510 1.58212
515 0.958011
520 0.98217
525 1.22638
530 0.990731
535 0.874984
540 0.911537
545 0.854263
550 0.642916
555 0.762127
560 0.79239
565 1.00139
570 1.48521
575 1.27949
580 0.769651
585 0.684196
590 0.395981
595 0.377027
600 0.184427
Ex : 498
200 0.112937
205 0.0603907
210 0.080767
215 0.083997
220 0.0332167
225 0.12013
230 0.0710788
235 0.0880133
240 0.0619423
245 0.0658394
250 0.0863035
255 0.0996408
260 0.0482491
265 0.0948646
270 0.0837186
275 0.0771141
280 0.0556653
285 0.0601755
290 0.0602442
295 0.101409
300 0.0658914
305 0.146945
310 0.0555226
315 0.0735499
320 0.0376086
325 0.121851
330 0.0900978
335 0.0701374
340 0.0633858
345 0.0627616
350 0.0877625
355 0.0854653
360 0.132618
365 0.137608
370 0.156511
375 0.155542
380 0.08012
385 0.105249
390 0.134704
395 0.10989
400 0.0924647
405 0.0971861
410 0.16404
415 0.0896838
420 0.0834794
425 0.0686745
430 0.143152
435 0.130739
440 0.183115
445 0.11556
450 0.146694
455 0.143496
460 0.198228
465 0.34309
470 0.372383
475 0.6434
480 1.15729
485 56.0235
490 844.902
495 1149.66
500 263.051
505 31.7138
510 4.75445
515 1.43769
520 1.10461
525 1.04631
530 1.17308
535 1.06944
540 0.931886
545 0.777051
550 0.77572
555 0.729498
560 0.697731
565 0.637767
570 0.665652
575 1.1382
580 1.22564
585 0.708847
590 0.443089
595 0.412519
600 0.605475
Ex : 503
200 0.0457273
205 0.0590235
210 0.102174
215 0.0945583
220 0.125633
225 0.0910161
230 0.0474385
235 0.102852
240 0.0421341
245 0.0833357
250 0.0553166
255 0.071846
260 0.0671371
265 0.0944418
270 0.0858206
275 0.107723
280 0.068027
285 0.0675115
290 0.12683
295 0.132549
300 0.0436648
305 0.0769912
310 0.116547
315 0.135585
320 0.0982833
325 0.0820543
330 0.0825068
335 0.0791252
340 0.062759
345 0.172268
350 0.136679
355 0.0604638
360 0.122011
365 0.120094
370 0.0597943
375 0.156208
380 0.0925633
385 0.11681
390 0.0582652
395 0.129004
400 0.203084
405 0.108503
410 0.137415
415 0.112401
420 0.133743
425 0.129262
430 0.144235
435 0.105683
440 0.12169
445 0.143078
450 0.132545
455 0.107729
460 0.227088
465 0.278775
470 0.317232
475 0.29117
480 0.588314
485 1.20001
490 49.3343
495 817.484
500 1164.83
505 274.462
510 32.9195
515 4.90381
520 1.62586
525 1.11323
530 0.953331
535 1.13037
540 1.14448
545 1.03457
550 0.868013
555 0.744869
560 0.524267
565 0.487353
570 0.487011
575 0.498756
580 0.822727
585 1.06083
590 0.596849
595 0.319409
600 0.0363476
Ex : 508
200 0.0524483
205 0.0512411
210 0.0739632
215 0.115111
220 0.0715249
225 0.0766602
230 0.0808701
235 0.0877785
240 0.0700277
245 0.100473
250 0.146779
255 0.0686046
260 0.0719674
265 0.0501407
270 0.0931614
275 0.166209
280 0.0735915
285 0.0703942
290 0.11028
295 0.0769122
300 0.116793
305 0.0754344
310 0.0982613
315 0.0994336
320 0.084589
325 0.0705591
330 0.0906623
335 0.0726835
340 0.0524843
345 0.107256
350 0.0819438
355 0.0903996
360 0.112089
365 0.146872
370 0.0898917
375 0.0968558
380 0.103377
385 0.0677866
390 0.0948256
395 0.0717743
400 0.0776303
405 0.124409
410 0.111989
415 0.134942
420 0.126423
425 0.170114
430 0.128775
435 0.109987
440 0.112512
445 0.151018
450 0.147775
455 0.143445
460 0.221271
465 0.22055
470 0.21461
475 0.27528
480 0.472341
485 0.692297
490 1.02929
495 54.1137
500 842.77
505 1194.5
510 291.933
515 35.161
520 5.14679
525 1.72553
530 1.10333
535 0.93077
540 0.982792
545 0.916745
550 0.831212
555 0.742845
560 0.643636
565 0.498711
570 0.491401
575 0.422791
580 0.534693
585 0.455318
590 0.681147
595 0.684861
600 0.353103
Ex : 513
200 0.0884521
205 0.0738698
210 0.0748316
215 0.0893144
220 0.093239
225 0.103758
230 0.0827156
235 0.0490462
240 0.0483114
245 0.0478544
250 0.0908533
255 0.168953
260 0.128727
265 0.126469
270 0.0581991
275 0.0594803
280 0.0951204
285 0.0721715
290 0.0652201
295 0.0846218
300 0.101711
305 0.0781314
310 0.0413614
315 0.193039
320 0.132519
325 0.0922538
330 0.167765
335 0.109451
340 0.0975069
345 0.0870163
350 0.114742
355 0.0716484
360 0.0930783
365 0.0584626
370 0.094558
375 0.0684287
380 0.0849039
385 0.0574111
390 0.136314
395 0.0845475
400 0.190427
405 0.0968647
410 0.128871
415 0.152154
420 0.131409
425 0.120547
430 0.134314
435 0.0996658
440 0.131398
445 0.114093
450 0.0977255
455 0.121471
460 0.152767
465 0.17618
470 0.224802
475 0.235893
480 0.341371
485 0.407749
490 0.654698
495 1.10766
500 51.658
505 831.966
510 1210.98
515 295.987
520 35.6501
525 5.20801
530 1.64514
535 0.961767
540 0.84256
545 0.894876
550 0.859171
555 0.828671
560 0.647444
565 0.553265
570 0.385287
575 0.475748
580 0.406404
585 0.304786
590 0.392978
595 0.560698
600 0.449468
Ex : 518
200 0.0522006
205 0.0554586
210 0.0939868
215 0.0665119
220 0.0756364
225 0.0592794
230 0.0521604
235 0.0942374
240 0.0745879
245 0.0457404
250 0.118166
255 0.0992548
260 0.0925866
265 0.090672
270 0.114005
275 0.0625526
280 0.0535346
285 0.0648724
290 0.0508568
295 0.0491794
300 0.061264
305 0.120925
310 0.110739
315 0.1344
320 0.0835425
325 0.0889004
330 0.0573492
335 0.0984105
340 0.104063
345 0.0753692
350 0.0491748
355 0.0860575
360 0.0586574
365 0.0409724
370 0.120973
375 0.0747248
380 0.13427
385 0.123025
390 0.0573412
395 0.111962
400 0.157515
405 0.0891649
410 0.212565
415 0.185904
420 0.156039
425 0.146488
430 0.0969325
435 0.113226
440 0.237013
445 0.13707
450 0.108124
455 0.0915448
460 0.130722
465 0.242605
470 0.241103
475 0.232016
480 0.288259
485 0.273993
490 0.403179
495 0.585615
500 1.01958
505 52.2369
510 846.352
515 1254.58
520 305.254
525 36.5777
530 5.1911
535 1.57095
540 0.971093
545 0.670644
550 0.715813
555 0.829745
560 0.666404
565 0.655138
570 0.521704
575 0.375145
580 0.349064
585 0.300635
590 0.242081
595 0.36269
600 0.158873
Ex : 523
200 0.114598
205 0.0828712
210 0.10966
215 0.0866717
220 0.102015
225 0.066614
230 0.0427657
235 0.108848
240 0.114346
245 0.0686567
250 0.0492862
255 0.087684
260 0.134204
265 0.060983
270 0.103649
275 0.134656
280 0.0773966
285 0.0702557
290 0.0935426
295 0.0769149
300 0.0526792
305 0.0349075
310 0.144376
315 0.0994321
320 0.110436
325 0.101062
330 0.148737
335 0.0815898
340 0.138806
345 0.0890207
350 0.104286
355 0.0978463
360 0.108616
365 0.197499
370 0.202597
375 0.146564
380 0.141588
385 0.105303
390 0.0761307
395 0.0838367
400 0.138106
405 0.110621
410 0.0724612
415 0.135088
420 0.117627
425 0.0636037
430 0.0933506
435 0.193163
440 0.177389
445 0.138128
450 0.175254
455 0.173367
460 0.142109
465 0.180268
470 0.229625
475 0.172323
480 0.23729
485 0.237828
490 0.201149
495 0.447368
500 0.626359
505 1.11013
510 47.3124
515 784.8
520 1213.72
525 313.354
530 37.3717
535 5.29135
540 1.40957
545 0.96817
550 0.725784
555 0.726127
560 0.735075
565 0.662662
570 0.433098
575 0.39274
580 0.356076
585 0.271441
590 0.300133
595 0.204894
600 0.373367
Ex : 528
200 0.0704846
205 0.131873
210 0.099061
215 0.106814
220 0.0827676
225 0.0916561
230 0.0686318
235 0.13213
240 0.0650996
245 0.0408436
250 0.0913134
255 0.0983358
260 0.0778376
265 0.0357321
270 0.0618407
275 0.0877696
280 0.0403291
285 0.0946191
290 0.0898127
295 0.0901786
300 0.0576356
305 0.0892813
310 0.133289
315 0.100059
320 0.116303
325 0.067559
330 0.0607587
335 0.086815
340 0.095235
345 0.0712159
350 0.130151
355 0.131626
360 0.105582
365 0.162223
370 0.0935013
375 0.0906196
380 0.0932197
385 0.123708
390 0.0803743
395 0.156938
400 0.170306
405 0.103232
410 0.100205
415 0.135412
420 0.148427
425 0.145183
430 0.135929
435 0.0682301
440 0.126172
445 0.0833334
450 0.150993
455 0.156493
460 0.154089
465 0.190551
470 0.140659
475 0.107709
480 0.243814
485 0.243824
490 0.238265
495 0.316733
500 0.467481
505 0.622581
510 1.14374
515 44.0319
520 780.18
525 1209.51
530 301.166
535 36.1154
540 5.08632
545 1.34437
550 0.771758
555 0.560154
560 0.613142
565 0.625714
570 0.521024
575 0.404446
580 0.297148
585 0.268905
590 0.299496
595 0.29621
600 0.271247
Ex : 533
200 0.094406
205 0.0631239
210 0.144223
215 0.172042
220 0.0905098
225 0.11646
230 0.128219
235 0.14018
240 0.131181
245 0.119861
250 0.0961111
255 0.120355
260 0.113574
265 0.0755115
270 0.08818
275 0.0885093
280 0.0961841
285 0.116734
290 0.0639627
295 0.0438383
300 0.125001
305 0.0854936
310 0.0752163
315 0.056426
320 0.0653286
325 0.131855
330 0.0887416
335 0.116928
340 0.0924473
345 0.107072
350 0.116278
355 0.0970075
360 0.126714
365 0.0983485
370 0.0682101
375 0.1262
380 0.0880336
385 0.125106
390 0.142042
395 0.150447
400 0.116025
405 0.120659
410 0.118208
415 0.0850788
420 0.134041
425 0.159545
430 0.129257
435 0.217594
440 0.146954
445 0.13071
450 0.111206
455 0.0807811
460 0.145964
465 0.135353
470 0.13686
475 0.226105
480 0.252798
485 0.169588
490 0.204869
495 0.306504
500 0.35631
505 0.508938
510 0.60373
515 0.948042
520 45.803
525 746.037
530 1197.94
535 310.645
540 37.0953
545 5.07999
550 1.31623
555 0.731462
560 0.641582
565 0.430192
570 0.540739
575 0.511408
580 0.443036
585 0.413728
590 0.329785
595 0.230108
600 0.0261854
Ex : 538
200 0.0865397
205 0.141725
210 0.118831
215 0.116639
220 0.0909737
225 0.0507446
230 0.0710861
235 0.0809185
240 0.0410278
245 0.105227
250 0.0657361
255 0.0963896
260 0.0682734
265 0.0933889
270 0.108078
275 0.0610882
280 0.124313
285 0.103861
290 0.146684
295 0.115801
300 0.108012
305 0.0969184
310 0.102773
315 0.107291
320 0.0755593
325 0.0812911
330 0.0691293
335 0.117719
340 0.0686897
345 0.214034
350 0.180227
355 0.0972032
360 0.148982
365 0.172074
370 0.0793176
375 0.0581382
380 0.0731939
385 0.108812
390 0.0763008
395 0.188265
400 0.093388
405 0.182935
410 0.118797
415 0.115728
420 0.0777319
425 0.0848856
430 0.0909885
435 0.134675
440 0.136665
445 0.0990315
450 0.194952
455 0.131808
460 0.237068
465 0.183802
470 0.175403
475 0.175382
480 0.196716
485 0.133132
490 0.246823
495 0.18406
500 0.208232
505 0.310727
510 0.37698
515 0.629248
520 0.978935
525 38.1111
530 713.691
535 1181.34
540 315.731
545 37.6961
550 5.13943
555 1.1604
560 0.59216
565 0.416827
570 0.394123
575 0.388209
580 0.412
585 0.329047
590 0.303236
595 0.306543
600 0.187349
Ex : 543
200 0.112482
205 0.125862
210 0.0857811
215 0.10367
220 0.114042
225 0.112109
230 0.126309
235 0.143555
240 0.109497
245 0.0889041
250 0.177924
255 0.0849379
260 0.074339
265 0.0613883
270 0.146054
275 0.132325
280 0.111118
285 0.145238
290 0.117378
295 0.0901196
300 0.104133
305 0.114467
310 0.153483
315 0.10275
320 0.149285
325 0.169254
330 0.0940691
335 0.0601755
340 0.0767861
345 0.147155
350 0.13021
355 0.111252
360 0.14325
365 0.183262
370 0.181907
375 0.12306
380 0.0997195
385 0.0792519
390 0.0995562
395 0.157516
400 0.110816
405 0.183166
410 0.095424
415 0.13712
420 0.18694
425 0.0953324
430 0.157757
435 0.0939431
440 0.160656
445 0.0940968
450 0.11095
455 0.109963
460 0.0972135
465 0.114222
470 0.14648
475 0.137305
480 0.131304
485 0.16806
490 0.180868
495 0.147081
500 0.203773
505 0.325001
510 0.436054
515 0.498195
520 0.689712
525 1.04805
530 36.0002
535 709.591
540 1196.02
545 324.337
550 38.7242
555 5.05956
560 1.18653
565 0.703145
570 0.403944
575 0.330021
580 0.334972
585 0.289322
590 0.241344
595 0.298153
600 0.156333
Ex : 548
200 0.0750102
205 0.129039
210 0.120465
215 0.116305
220 0.0835648
225 0.0922217
230 0.102039
235 0.0700172
240 0.105801
245 0.0871335
250 0.106619
255 0.0712781
260 0.0892734
265 0.106337
270 0.0636697
275 0.0886526
280 0.0663552
285 0.103098
290 0.0981495
295 0.0744868
300 0.169727
305 0.101052
310 0.116296
315 0.0872265
320 0.102443
325 0.0789658
330 0.106251
335 0.134523
340 0.136138
345 0.137032
350 0.185269
355 0.117428
360 0.0865625
365 0.156478
370 0.0905701
375 0.0992454
380 0.162002
385 0.137897
390 0.115604
395 0.173431
400 0.0944187
405 0.116385
410 0.0989585
415 0.112683
420 0.0904039
425 0.0949326
430 0.118158
435 0.143114
440 0.179861
445 0.177676
450 0.109437
455 0.111963
460 0.0946231
465 0.213957
470 0.143208
475 0.0940656
480 0.278731
485 0.155329
490 0.165905
495 0.144855
500 0.218154
505 0.167009
510 0.294542
515 0.275276
520 0.484664
525 0.547475
530 0.948504
535 36.5233
540 697.708
545 1153.32
550 319.644
555 37.888
560 5.15267
565 0.997907
570 0.481243
575 0.277626
580 0.25869
585 0.416909
590 0.329272
595 0.233121
600 1.23683
Ex : 553
200 0.143137
205 0.0831813
210 0.216918
215 0.135303
220 0.140869
225 0.147736
230 0.186021
235 0.0999002
240 0.118608
245 0.10661
250 0.086878
255 0.116907
260 0.0998694
265 0.086117
270 0.0740684
275 0.056
280 0.0930035
285 0.0578275
290 0.111136
295 0.183721
300 0.130854
305 0.0698004
310 0.136677
315 0.0944438
320 0.0669903
325 0.106633
330 0.0753716
335 0.0908163
340 0.0795066
345 0.239307
350 0.0755182
355 0.139509
360 0.0623928
365 0.0869552
370 0.0965958
375 0.10253
380 0.152899
385 0.110454
390 0.0990434
395 0.14299
400 0.117502
405 0.133037
410 0.114539
415 0.137999
420 0.122214
425 0.0946878
430 0.0958486
435 0.117267
440 0.134173
445 0.166397
450 0.150961
455 0.118226
460 0.163138
465 0.159725
470 0.146358
475 0.149975
480 0.179939
485 0.187673
490 0.159288
495 0.2003
500 0.15071
505 0.191092
510 0.221436
515 0.284818
520 0.308298
525 0.254272
530 0.556202
535 0.902757
540 30.8117
545 658.94
550 1140.57
555 319.509
560 37.9523
565 4.97028
570 1.14778
575 0.555027
580 0.368911
585 0.24006
590 0.358698
595 0.306893
600 0.0974788
Ex : 558
200 0.0939451
205 0.135106
210 0.067831
215 0.163445
220 0.0954972
225 0.128563
230 0.140186
235 0.0919687
240 0.0813257
245 0.144898
250 0.13884
255 0.0692226
260 0.0947879
265 0.123246
270 0.218424
275 0.0927666
280 0.106155
285 0.0995251
290 0.06945
295 0.0719972
300 0.0549713
305 0.195916
310 0.150023
315 0.101873
320 0.11322
325 0.192196
330 0.123507
335 0.126858
340 0.154315
345 0.118192
350 0.127677
355 0.0852383
360 0.137153
365 0.0900393
370 0.136957
375 0.168495
380 0.0795676
385 0.0854625
390 0.121522
395 0.115076
400 0.132943
405 0.217329
410 0.160215
415 0.111986
420 0.147794
425 0.101034
430 0.12206
435 0.1606
440 0.148775
445 0.128239
450 0.0817885
455 0.140312
460 0.173618
465 0.131517
470 0.171984
475 0.163996
480 0.132898
485 0.318909
490 0.212703
495 0.138703
500 0.265295
505 0.192935
510 0.231958
515 0.171088
520 0.198781
525 0.259902
530 0.337502
535 0.528771
540 0.85733
545 30.5602
550 633.487
555 1123.04
560 319.567
565 38.1986
570 4.98511
575 0.96447
580 0.398946
585 0.46503
590 0.330123
595 0.242363
600 0.382062
Ex : 563
200 0.169058
205 0.112967
210 0.134887
215 0.143843
220 0.186467
225 0.113878
230 0.101364
235 0.104369
240 0.0528788
245 0.0684186
250 0.143567
255 0.136977
260 0.105265
265 0.111025
270 0.149886
275 0.142239
280 0.0716409
285 0.0508369
290 0.105217
295 0.120548
300 0.125448
305 0.133408
310 0.099143
315 0.123212
320 0.124596
325 0.155108
330 0.147769
335 0.0730528
340 0.124806
345 0.123459
350 0.0972268
355 0.125227
360 0.138412
365 0.0477149
370 0.148898
375 0.153857
380 0.12281
385 0.0952919
390 0.104514
395 0.115235
400 0.0781496
405 0.148228
410 0.141463
415 0.165355
420 0.138426
425 0.219307
430 0.140149
435 0.201653
440 0.0933318
445 0.137624
450 0.120422
455 0.182923
460 0.147282
465 0.124576
470 0.183617
475 0.168284
480 0.164182
485 0.190392
490 0.157892
495 0.21127
500 0.119355
505 0.161906
510 0.170749
515 0.158844
520 0.208129
525 0.205851
530 0.360886
535 0.369084
540 0.520507
545 0.877009
550 30.2336
555 608.342
560 1101.94
565 311.15
570 37.016
575 4.8124
580 0.948598
585 0.440525
590 0.304114
595 0.339937
600 0.0727683
Ex : 568
200 0.0698825
205 0.122582
210 0.0934418
215 0.0885883
220 0.0990042
225 0.0618358
230 0.17185
235 0.157801
240 0.229481
245 0.0950869
250 0.166783
255 0.175612
260 0.147355
265 0.0563715
270 0.199217
275 0.130039
280 0.108126
285 0.102305
290 0.157757
295 0.140727
300 0.125308
305 0.164609
310 0.102328
315 0.131066
320 0.150595
325 0.0527448
330 0.0679081
335 0.118227
340 0.0947644
345 0.0692164
350 0.062266
355 0.116652
360 0.236311
365 0.064447
370 0.111343
375 0.0501331
380 0.095468
385 0.0728816
390 0.0816012
395 0.108272
400 0.144408
405 0.121522
410 0.10053
415 0.0974912
420 0.0789362
425 0.210069
430 0.166855
435 0.112866
440 0.160269
445 0.138597
450 0.257552
455 0.108021
460 0.113805
465 0.0845588
470 0.128149
475 0.182105
480 0.160319
485 0.258014
490 0.10842
495 0.258467
500 0.208857
505 0.162387
510 0.221044
515 0.133921
520 0.227896
525 0.205767
530 0.154808
535 0.263654
540 0.300022
545 0.591223
550 0.879942
555 23.5597
560 546.096
565 1032.86
570 312.913
575 37.2914
580 4.75486
585 1.00311
590 0.340662
595 0.283051
600 1.16837
Ex : 573
200 0.167726
205 0.0903756
210 0.0829753
215 0.133607
220 0.088583
225 0.0992411
230 0.13059
235 0.146613
240 0.119738
245 0.104442
250 0.0971866
255 0.0921389
260 0.070521
265 0.0938597
270 0.157909
275 0.128053
280 0.13921
285 0.245855
290 0.148662
295 0.0510674
300 0.0866197
305 0.12065
310 0.133429
315 0.13391
320 0.0926682
325 0.126994
330 0.186314
335 0.103305
340 0.0897042
345 0.134842
350 0.0980095
355 0.079094
360 0.200098
365 0.144623
370 0.0578373
375 0.0879199
380 0.0827488
385 0.0790924
390 0.079334
395 0.206293
400 0.190814
405 0.150261
410 0.15467
415 0.131122
420 0.0724834
425 0.1284
430 0.165168
435 0.0949703
440 0.109874
445 0.129715
450 0.160999
455 0.157386
460 0.113137
465 0.157921
470 0.15394
475 0.113634
480 0.116597
485 0.214968
490 0.206063
495 0.247332
500 0.229001
505 0.233484
510 0.198075
515 0.183578
520 0.161619
525 0.243009
530 0.209399
535 0.248689
540 0.277717
545 0.308989
550 0.366
555 0.702377
560 20.3312
565 477.919
570 959.647
575 300.242
580 35.9911
585 4.64456
590 0.914864
595 0.385427
600 0.061351
Ex : 578
200 0.0952458
205 0.127972
210 0.110179
215 0.110178
220 0.122875
225 0.105308
230 0.176618
235 0.141774
240 0.124502
245 0.0599534
250 0.164673
255 0.138204
260 0.0983775
265 0.0984152
270 0.0946221
275 0.110089
280 0.110687
285 0.100164
290 0.100718
295 0.0635653
300 0.124147
305 0.146013
310 0.139521
315 0.0918665
320 0.107181
325 0.11497
330 0.160253
335 0.176253
340 0.093737
345 0.105928
350 0.130902
355 0.175998
360 0.0961498
365 0.10779
370 0.218008
375 0.170737
380 0.135567
385 0.164192
390 0.126627
395 0.13793
400 0.129044
405 0.160079
410 0.161406
415 0.168345
420 0.172583
425 0.105513
430 0.0673948
435 0.265656
440 0.105123
445 0.110785
450 0.110556
455 0.173894
460 0.160785
465 0.15617
470 0.170188
475 0.164324
480 0.158092
485 0.164647
490 0.151166
495 0.150147
500 0.160098
505 0.127086
510 0.13478
515 0.142083
520 0.183503
525 0.322584
530 0.163851
535 0.139133
540 0.249083
545 0.256072
550 0.448525
555 0.541633
560 0.649287
565 17.1885
570 422.613
575 837.132
580 257.021
585 30.44
590 3.79176
595 0.722127
600 0.425805
Ex : 583
200 0.118191
205 0.156357
210 0.0731805
215 0.0745649
220 0.120743
225 0.0840665
230 0.185181
235 0.0842132
240 0.0688137
245 0.0893915
250 0.112218
255 0.106675
260 0.081227
265 0.110892
270 0.0663375
275 0.0877321
280 0.102804
285 0.0638722
290 0.209166
295 0.0707057
300 0.103506
305 0.229555
310 0.194902
315 0.161186
320 0.0691409
325 0.233045
330 0.0766198
335 0.0782722
340 0.098994
345 0.16943
350 0.0906135
355 0.138686
360 0.107587
365 0.226429
370 0.149662
375 0.16219
380 0.0959545
385 0.146189
390 0.105825
395 0.0692265
400 0.109102
405 0.143699
410 0.238912
415 0.164007
420 0.216842
425 0.159526
430 0.248409
435 0.169384
440 0.237546
445 0.197209
450 0.102938
455 0.104581
460 0.146342
465 0.128214
470 0.135157
475 0.188775
480 0.129771
485 0.153574
490 0.106126
495 0.167535
500 0.0979385
505 0.150993
510 0.146787
515 0.244973
520 0.166983
525 0.132981
530 0.142144
535 0.214456
540 0.260106
545 0.302853
550 0.193426
555 0.330691
560 0.469809
565 0.661235
570 13.64
575 378.83
580 722.763
585 211.471
590 25.0029
595 3.21408
600 0.605764
Ex : 588
200 0.0793898
205 0.0673392
210 0.111849
215 0.0716429
220 0.122018
225 0.213543
230 0.145718
235 0.0839102
240 0.118976
245 0.0504771
250 0.158877
255 0.152269
260 0.246005
265 0.1516
270 0.178168
275 0.173704
280 0.243023
285 0.104185
290 0.0603346
295 0.0963049
300 0.197186
305 0.116365
310 0.139048
315 0.0781706
320 0.0761748
325 0.152673
330 0.12718
335 0.0963189
340 0.0971216
345 0.103031
350 0.164152
355 0.151316
360 0.142627
365 0.0794308
370 0.208915
375 0.161955
380 0.110074
385 0.156622
390 0.146438
395 0.131197
400 0.120757
405 0.193252
410 0.0956991
415 0.0669225
420 0.140808
425 0.0863815
430 0.239413
435 0.175204
440 0.0927422
445 0.108299
450 0.234843
455 0.116904
460 0.123481
465 0.18006
470 0.143492
475 0.190222
480 0.165514
485 0.1328
490 0.183324
495 0.179488
500 0.137491
505 0.326994
510 0.16798
515 0.113323
520 0.166009
525 0.177644
530 0.205126
535 0.202347
540 0.279828
545 0.138293
550 0.176908
555 0.19694
560 0.354408
565 0.553322
570 0.525111
575 12.9017
580 318.723
585 624.668
590 189.461
595 22.4088
600 2.7441
Ex : 593
200 0.159358
205 0.127882
210 0.0748176
215 0.0958884
220 0.113345
225 0.174759
230 0.0476666
235 0.0609025
240 0.204766
245 0.0798815
250 0.137253
255 0.0677295
260 0.101434
265 0.11001
270 0.0533435
275 0.181563
280 0.0671005
285 0.114594
290 0.128555
295 0.22878
300 0.122711
305 0.102231
310 0.0845296
315 0.104471
320 0.148042
325 0.115887
330 0.0928973
335 0.111423
340 0.0897899
345 0.160414
350 0.129574
355 0.182187
360 0.137406
365 0.10859
370 0.0743283
375 0.18454
380 0.139419
385 0.142581
390 0.103877
395 0.170751
400 0.14024
405 0.129471
410 0.122637
415 0.0925496
420 0.107816
425 0.101775
430 0.148846
435 0.128057
440 0.10337
445 0.151563
450 0.168809
455 0.12752
460 0.118505
465 0.179084
470 0.12032
475 0.0999595
480 0.110523
485 0.124609
490 0.150047
495 0.101745
500 0.132836
505 0.171515
510 0.286333
515 0.184112
520 0.152911
525 0.108455
530 0.146507
535 0.124588
540 0.133904
545 0.190083
550 0.224399
555 0.323356
560 0.273578
565 0.254097
570 0.32006
575 0.560959
580 11.0927
585 286.62
590 514.872
595 157.717
600 24.2643
Ex : 598
200 0.105842
205 0.128165
210 0.181977
215 0.1363
220 0.167189
225 0.126967
230 0.127316
235 0.110385
240 0.148706
245 0.133168
250 0.142579
255 0.167927
260 0.116011
265 0.14431
270 0.102227
275 0.108347
280 0.117576
285 0.179997
290 0.176314
295 0.0748179
300 0.101665
305 0.208409
310 0.126401
315 0.0717445
320 0.270082
325 0.137065
330 0.0701017
335 0.0826908
340 0.236074
345 0.207563
350 0.103382
355 0.0956105
360 0.202171
365 0.162746
370 0.102735
375 0.100973
380 0.118125
385 0.106336
390 0.0657997
395 0.126068
400 0.115709
405 0.116419
410 0.0959491
415 0.13441
420 0.114194
425 0.146484
430 0.197325
435 0.132807
440 0.117827
445 0.202224
450 0.229403
455 0.165354
460 0.0845928
465 0.127234
470 0.22793
475 0.147407
480 0.0921635
485 0.248809
490 0.185258
495 0.187298
500 0.216989
505 0.23668
510 0.0940111
515 0.207255
520 0.290818
525 0.240529
530 0.192555
535 0.0788521
540 0.188714
545 0.142014
550 0.106655
555 0.154139
560 0.246652
565 0.261049
570 0.184999
575 0.291602
580 0.428107
585 10.972
590 247.906
595 443.512
600 283.292
Ex : 603
200 0.0891245
205 0.0863387
210 0.0400265
215 0.181901
220 0.15693
225 0.131492
230 0.186937
235 0.156084
240 0.203508
245 0.0865219
250 0.0747718
255 0.161369
260 0.112205
265 0.240539
270 0.125859
275 0.231823
280 0.0885918
285 0.0755165
290 0.0479331
295 0.135117
300 0.136238
305 0.117962
310 0.102379
315 0.0938337
320 0.139417
325 0.159051
330 0.229361
335 0.147115
340 0.0831445
345 0.0931723
350 0.163354
355 0.251782
360 0.1886
365 0.181707
370 0.12034
375 0.271774
380 0.217319
385 0.216271
390 0.175304
395 0.172227
400 0.141645
405 0.131886
410 0.119891
415 0.15303
420 0.0932382
425 0.124812
430 0.134615
435 0.113943
440 0.224628
445 0.127714
450 0.151954
455 0.218344
460 0.100212
465 0.259209
470 0.139766
475 0.119079
480 0.0962281
485 0.158092
490 0.089744
495 0.22522
500 0.237223
505 0.151912
510 0.203801
515 0.196372
520 0.167432
525 0.234279
530 0.117535
535 0.147824
540 0.137194
545 0.164257
550 0.115167
555 0.139228
560 0.166143
565 0.129527
570 0.190462
575 0.326717
580 0.425155
585 0.575846
590 9.73608
595 219.737
600 455.167
