File format V 1.0
jeu. 5. janv. 18:38:43 2017
Operator : 
Comments : 

=============================================
SpectroFluorometer parameters
Mode : 3D measurement
Data : Fluorescence
Phospho. : Ordinary
Spectrum : Fluorescence

Scan speed : 2400 nm/mn
Response : 100 ms
PM Voltage : 700 V
Shutter : On

Lambda Ex. Start : 203
Lambda Ex. End : 603
Lambda Ex. Step : 5
Ex. Slit : 5 nm

Lambda Em. Start : 200
Lambda Em. End : 600
Lambda Em. Step : 5
Em. Slit : 5 nm

Repetition : 1
Decal lambda em : 10
=============================================
DATA
Ex : 203
200 3.77596
205 3.8486
210 3.93693
215 5.7163
220 5.06041
225 5.86573
230 5.13396
235 9.71066
240 7.15299
245 6.54148
250 4.92221
255 6.71371
260 3.68198
265 4.14414
270 3.08874
275 2.57937
280 6.37845
285 7.48796
290 6.50032
295 5.30366
300 6.29207
305 3.35943
310 3.28769
315 5.46332
320 4.50461
325 5.66079
330 5.40031
335 5.82909
340 6.36335
345 4.94486
350 7.52723
355 4.07729
360 3.60456
365 4.83623
370 5.51208
375 5.70588
380 5.09462
385 6.28855
390 5.25868
395 5.33485
400 4.91382
405 3.59759
410 2.81709
415 5.03117
420 4.19026
425 4.0822
430 5.59378
435 7.73679
440 3.29936
445 6.62108
450 7.5262
455 6.09785
460 2.93359
465 5.54348
470 3.83585
475 7.34589
480 5.88086
485 6.34988
490 7.35055
495 6.52683
500 6.20194
505 4.31463
510 8.95916
515 4.97789
520 3.88843
525 4.60867
530 4.94498
535 6.07921
540 3.61511
545 6.30386
550 5.17965
555 3.82382
560 4.97012
565 4.35597
570 4.52998
575 5.69011
580 7.44009
585 5.34252
590 5.66516
595 4.91726
600 2.47967
Ex : 208
200 4.85475
205 6.85893
210 7.97473
215 6.84661
220 4.3982
225 4.0927
230 7.89097
235 6.60511
240 6.3967
245 7.92409
250 5.6214
255 3.92771
260 5.14541
265 5.57731
270 6.36372
275 2.71813
280 6.16727
285 3.21435
290 6.64092
295 4.15117
300 3.50712
305 3.75906
310 4.34959
315 4.05599
320 2.32113
325 3.74954
330 5.68336
335 4.02668
340 3.98194
345 6.23248
350 4.52259
355 2.97349
360 5.20999
365 2.97682
370 4.68368
375 2.88464
380 8.69148
385 5.79014
390 7.25501
395 6.54026
400 5.17041
405 5.26064
410 4.60884
415 6.30914
420 3.9959
425 6.03986
430 5.11324
435 4.64363
440 3.8676
445 4.96553
450 4.26754
455 3.3907
460 4.65994
465 5.62466
470 6.84349
475 4.50082
480 3.50184
485 5.74756
490 6.2812
495 3.80872
500 3.3552
505 4.99007
510 4.49546
515 7.64983
520 11.4568
525 4.89698
530 5.7329
535 3.18645
540 2.62853
545 4.95816
550 6.25833
555 5.44828
560 4.89822
565 6.89401
570 3.60035
575 5.87289
580 5.11378
585 4.40177
590 6.12548
595 5.74082
600 8.62912
Ex : 213
200 3.75439
205 2.73233
210 4.55241
215 6.4779
220 5.32097
225 9.24963
230 5.63968
235 4.99805
240 4.83145
245 4.31617
250 4.48634
255 5.8626
260 4.69335
265 4.66443
270 6.93634
275 4.24998
280 5.21713
285 3.78091
290 6.32984
295 4.51185
300 4.318
305 5.96498
310 3.51174
315 4.69349
320 4.4751
325 5.171
330 6.61895
335 5.2465
340 6.32211
345 4.46403
350 4.54969
355 5.96081
360 6.27539
365 4.70946
370 5.76991
375 7.62245
380 9.01461
385 3.90013
390 5.81739
395 7.14667
400 5.46583
405 5.75897
410 5.99143
415 6.26742
420 4.98491
425 6.56424
430 3.50355
435 3.79743
440 6.91464
445 2.92088
450 3.41864
455 6.16537
460 4.54537
465 5.77746
470 3.85821
475 3.99932
480 3.03506
485 3.79118
490 4.61135
495 4.7283
500 4.32547
505 3.93154
510 4.31493
515 3.81817
520 4.18575
525 4.81356
530 2.84683
535 4.14448
540 5.04956
545 6.47727
550 6.40003
555 6.94666
560 6.0562
565 4.72465
570 4.70436
575 2.961
580 6.05405
585 4.73528
590 3.17215
595 2.27186
600 13.2562
Ex : 218
200 3.44199
205 3.16744
210 4.0043
215 4.32136
220 4.56729
225 5.62694
230 7.1919
235 2.57588
240 5.60022
245 7.55489
250 2.94901
255 4.45722
260 5.78652
265 6.40629
270 5.25277
275 4.02932
280 3.87205
285 4.20818
290 5.07822
295 4.18497
300 3.72725
305 4.96904
310 4.65669
315 4.72254
320 5.19728
325 4.81191
330 4.12686
335 4.08668
340 4.81787
345 4.24946
350 6.26404
355 6.2516
360 5.00896
365 6.11678
370 8.48855
375 7.63739
380 4.29895
385 5.42375
390 5.91451
395 5.19321
400 4.78376
405 3.81925
410 5.73629
415 4.81038
420 3.30131
425 4.62466
430 3.67512
435 6.53394
440 7.74131
445 4.34979
450 5.18918
455 5.21962
460 4.52147
465 3.48239
470 5.3401
475 5.07898
480 9.14979
485 3.59643
490 4.79717
495 5.97747
500 3.32546
505 4.36136
510 4.95181
515 3.99444
520 4.93884
525 4.00837
530 7.37744
535 1.88241
540 4.64059
545 4.29916
550 4.56977
555 3.94987
560 4.97102
565 3.99633
570 1.82079
575 6.5319
580 6.95626
585 4.19542
590 4.69696
595 4.89366
600 0.55688
Ex : 223
200 3.46809
205 6.41885
210 6.13728
215 5.53266
220 7.2885
225 3.80601
230 4.46913
235 5.67643
240 4.37
245 9.96155
250 4.33869
255 4.45501
260 3.86776
265 3.37913
270 7.9742
275 2.87107
280 3.4467
285 4.31879
290 4.56321
295 3.56858
300 6.29733
305 4.15065
310 4.37968
315 3.81922
320 6.52157
325 4.86985
330 5.54028
335 3.81122
340 4.60604
345 4.01117
350 4.51459
355 2.72473
360 3.15926
365 6.59629
370 7.64112
375 5.17831
380 4.19076
385 6.52721
390 5.2929
395 6.08834
400 3.73798
405 3.57276
410 3.05544
415 4.46084
420 9.871
425 4.09906
430 6.2635
435 10.7088
440 3.50672
445 3.41115
450 4.98295
455 6.25764
460 6.56385
465 5.32167
470 5.64616
475 4.74001
480 3.75435
485 3.266
490 4.01549
495 3.51624
500 3.22707
505 6.76153
510 4.2709
515 3.38158
520 4.52189
525 8.19667
530 4.53264
535 4.86242
540 7.39251
545 5.25724
550 6.62245
555 4.29371
560 5.4586
565 3.92065
570 2.86713
575 3.89556
580 3.5527
585 4.531
590 3.08044
595 2.87749
600 9.54397
Ex : 228
200 4.59799
205 4.09589
210 3.76837
215 4.30294
220 5.21763
225 6.23919
230 3.89747
235 3.42438
240 3.64847
245 6.92775
250 4.58637
255 4.71598
260 6.00386
265 3.24688
270 5.07491
275 8.70973
280 4.34472
285 3.6156
290 3.78192
295 3.94675
300 5.41008
305 6.62721
310 6.46946
315 5.68345
320 6.04275
325 3.44527
330 3.76685
335 3.83226
340 3.71
345 3.66854
350 5.15866
355 4.89484
360 9.27217
365 5.61521
370 4.26911
375 2.86379
380 5.50926
385 3.52636
390 2.7247
395 4.59013
400 4.30503
405 3.95603
410 5.49871
415 3.91072
420 2.82989
425 3.45157
430 2.83332
435 4.04647
440 6.03674
445 3.4209
450 5.06785
455 2.54604
460 2.99885
465 3.95355
470 7.24905
475 6.05878
480 3.45369
485 6.69543
490 4.78357
495 3.36277
500 2.82708
505 5.1865
510 6.35519
515 5.59265
520 5.88835
525 4.87587
530 4.12324
535 4.501
540 2.76932
545 2.89804
550 3.65418
555 5.8509
560 4.91682
565 3.15935
570 3.89967
575 3.89707
580 3.79563
585 3.14771
590 2.94967
595 3.66479
600 4.55266
Ex : 233
200 7.62687
205 5.62315
210 4.8801
215 3.0639
220 2.78461
225 3.44415
230 3.6855
235 6.31054
240 4.17519
245 4.73246
250 3.71869
255 5.75376
260 3.43633
265 4.69983
270 3.37911
275 3.58545
280 2.97357
285 3.87451
290 3.79109
295 3.11559
300 4.28234
305 3.54559
310 4.74631
315 3.26045
320 3.20006
325 3.19546
330 3.20205
335 3.4887
340 4.71669
345 4.79474
350 2.90334
355 2.79306
360 5.56121
365 4.3005
370 5.20003
375 3.96187
380 3.55256
385 4.32246
390 3.95654
395 4.68523
400 4.9243
405 4.69889
410 3.56047
415 5.37635
420 3.11824
425 3.53502
430 2.57046
435 4.31355
440 5.00356
445 3.59291
450 3.80451
455 4.14698
460 4.10493
465 4.17938
470 5.55938
475 3.32941
480 4.72333
485 3.61165
490 5.67531
495 3.63204
500 5.29612
505 5.98772
510 4.43821
515 2.85114
520 2.29098
525 5.36838
530 6.96563
535 3.17511
540 5.60058
545 3.90571
550 5.42825
555 3.93427
560 4.30155
565 4.46914
570 3.3366
575 4.32881
580 3.65762
585 4.45871
590 2.70633
595 5.03439
600 0.572894
Ex : 238
200 2.39823
205 4.52815
210 2.5695
215 3.67367
220 4.06496
225 3.34177
230 2.91229
235 4.27052
240 2.0881
245 4.26373
250 3.45118
255 3.37656
260 4.44337
265 4.8185
270 4.43938
275 3.47975
280 4.52489
285 3.8788
290 2.91586
295 3.9687
300 4.18156
305 3.45811
310 5.16507
315 6.31196
320 5.77386
325 3.9197
330 3.7948
335 4.17314
340 4.91378
345 2.97919
350 2.42238
355 3.28875
360 3.90423
365 3.08355
370 4.07139
375 4.16173
380 1.85298
385 4.48005
390 2.47958
395 5.54545
400 4.48887
405 2.33583
410 2.14295
415 5.41914
420 4.00602
425 4.12171
430 7.82139
435 3.8008
440 2.72645
445 4.08988
450 6.03407
455 4.03847
460 3.42898
465 3.0759
470 3.58543
475 3.97945
480 4.45986
485 4.61031
490 3.17598
495 3.991
500 2.91136
505 3.65352
510 3.93288
515 3.58519
520 4.04502
525 2.26632
530 2.84955
535 4.08957
540 5.46527
545 7.40331
550 3.26146
555 3.31865
560 2.68563
565 2.63586
570 3.65127
575 2.80866
580 3.64183
585 4.79378
590 4.83384
595 3.89095
600 0.442775
Ex : 243
200 2.28571
205 3.10349
210 3.29423
215 2.33482
220 2.53354
225 2.86184
230 2.40982
235 2.81986
240 3.04451
245 1.37389
250 2.96443
255 1.8891
260 2.404
265 1.83581
270 4.002
275 2.80768
280 2.24619
285 3.00317
290 2.46182
295 3.72464
300 4.20791
305 3.53132
310 2.88251
315 2.93835
320 2.65672
325 2.21502
330 2.54172
335 2.93013
340 3.42468
345 2.42005
350 2.38183
355 3.76978
360 4.83142
365 3.75323
370 3.76637
375 5.24433
380 2.84612
385 3.24212
390 4.14431
395 3.78524
400 7.58496
405 4.62352
410 3.23539
415 2.16472
420 3.95135
425 3.03017
430 2.7774
435 5.1473
440 7.26689
445 2.57111
450 4.35435
455 4.83617
460 3.1146
465 4.49227
470 3.71791
475 5.57236
480 4.60189
485 4.1323
490 6.13647
495 3.29436
500 3.05443
505 3.30385
510 5.48064
515 3.80224
520 4.69458
525 2.96597
530 2.50417
535 3.35151
540 5.09691
545 2.74747
550 2.59794
555 3.96472
560 3.32418
565 2.1175
570 2.29642
575 3.85479
580 2.81636
585 4.96774
590 3.86455
595 2.86838
600 0.32641
Ex : 248
200 2.69649
205 3.81072
210 2.79112
215 2.10114
220 3.94082
225 4.02895
230 2.92213
235 2.35687
240 3.53025
245 1.99293
250 2.29557
255 3.14579
260 2.46194
265 2.15334
270 2.04032
275 1.77654
280 2.01565
285 1.95633
290 2.49682
295 2.88112
300 2.70722
305 3.64352
310 2.91814
315 2.51667
320 3.43154
325 2.95259
330 2.37837
335 2.88994
340 3.23163
345 3.48805
350 3.57504
355 4.02115
360 3.82634
365 3.70402
370 2.7239
375 2.28887
380 3.3693
385 5.21973
390 2.25969
395 2.45251
400 2.75424
405 3.54923
410 2.57859
415 4.46486
420 2.74064
425 4.1572
430 3.80731
435 2.90406
440 3.82422
445 3.22553
450 3.429
455 2.5972
460 2.68949
465 3.61261
470 3.00176
475 2.22403
480 3.93935
485 3.09812
490 2.87598
495 2.84532
500 3.96544
505 1.67594
510 3.30409
515 3.49881
520 1.59938
525 5.20279
530 3.20917
535 2.77844
540 3.41934
545 2.06588
550 2.51854
555 2.53482
560 2.84768
565 1.5831
570 2.63293
575 3.02924
580 2.73109
585 2.70445
590 2.35372
595 3.19843
600 0.363969
Ex : 253
200 1.36415
205 2.25012
210 1.89007
215 2.91825
220 3.09227
225 2.64883
230 2.10114
235 2.47965
240 2.03749
245 1.92895
250 1.73112
255 1.99944
260 1.97997
265 1.37984
270 2.11561
275 1.37449
280 1.22695
285 1.51896
290 2.80159
295 3.24009
300 2.07032
305 1.39109
310 1.12683
315 3.68037
320 2.79354
325 1.92092
330 2.35133
335 3.6309
340 2.493
345 1.73066
350 1.45219
355 2.47483
360 2.37278
365 3.00569
370 3.10124
375 2.24582
380 2.53989
385 2.23466
390 2.96603
395 2.54313
400 1.69544
405 1.60029
410 3.17461
415 3.53319
420 2.47154
425 3.57562
430 3.28894
435 2.0504
440 2.78116
445 2.76221
450 1.52547
455 2.09575
460 1.86154
465 3.00375
470 4.05342
475 3.1247
480 3.11124
485 2.25482
490 2.36741
495 2.61808
500 2.99615
505 2.52257
510 2.4497
515 3.1271
520 2.99765
525 2.07711
530 1.82962
535 2.13217
540 3.74839
545 2.20886
550 1.63482
555 3.90907
560 2.13578
565 2.61203
570 2.64307
575 2.15688
580 2.33247
585 1.44045
590 1.48428
595 2.17017
600 1.24394
Ex : 258
200 1.2848
205 1.64108
210 1.73903
215 1.82594
220 1.41821
225 0.86031
230 1.47374
235 2.14073
240 2.10115
245 1.46466
250 1.33622
255 2.23999
260 1.48926
265 1.63355
270 1.68208
275 1.57783
280 2.2133
285 2.36557
290 1.99827
295 1.05977
300 1.67195
305 2.19193
310 1.64753
315 1.57484
320 2.02243
325 1.22961
330 1.13666
335 1.89979
340 2.284
345 2.99926
350 1.85272
355 2.07621
360 2.03318
365 2.19835
370 2.30304
375 2.8831
380 2.22326
385 2.74119
390 1.7486
395 2.1261
400 1.65904
405 1.98366
410 1.74235
415 1.68127
420 1.95599
425 1.86305
430 1.43711
435 1.70189
440 1.72057
445 3.02386
450 1.58085
455 1.87156
460 1.95649
465 1.10484
470 2.73521
475 3.23573
480 2.04044
485 2.03816
490 2.60902
495 2.416
500 2.49335
505 2.9895
510 2.54757
515 2.2286
520 3.29932
525 2.16149
530 2.46836
535 2.64154
540 1.8852
545 1.45561
550 0.851233
555 2.14301
560 1.96575
565 1.77981
570 1.5537
575 2.93191
580 2.2809
585 1.65956
590 1.79853
595 1.64803
600 8.95111
Ex : 263
200 0.829525
205 1.79767
210 1.50134
215 1.30783
220 1.17626
225 1.18651
230 0.753338
235 2.53781
240 1.31912
245 2.60526
250 1.36932
255 2.1684
260 1.14678
265 1.62777
270 0.983893
275 1.72338
280 1.73595
285 1.60123
290 1.47813
295 1.247
300 2.16144
305 1.94541
310 2.66767
315 1.38063
320 1.23803
325 1.95087
330 2.0307
335 1.55586
340 1.91869
345 1.51511
350 2.17533
355 1.48549
360 0.926401
365 1.86858
370 2.6497
375 1.38907
380 2.11632
385 1.9845
390 1.79641
395 1.53451
400 2.98424
405 1.56736
410 2.64104
415 1.44477
420 1.43842
425 1.55585
430 1.46536
435 2.09099
440 1.72215
445 1.16232
450 1.70928
455 1.63727
460 1.83809
465 1.43992
470 2.69653
475 1.6886
480 1.11529
485 1.38338
490 1.20757
495 1.84532
500 1.04551
505 0.950643
510 2.375
515 2.68816
520 2.58864
525 1.9329
530 2.05698
535 1.50052
540 1.70849
545 1.70854
550 1.69852
555 1.61644
560 1.6661
565 1.58092
570 2.34618
575 2.46349
580 1.65326
585 1.74976
590 1.53986
595 2.06764
600 1.31139
Ex : 268
200 0.682993
205 0.896417
210 0.740758
215 0.642592
220 0.797066
225 1.63272
230 1.18534
235 1.05878
240 1.36619
245 1.58814
250 0.957551
255 0.887273
260 0.805075
265 1.09516
270 0.593221
275 0.937731
280 1.08046
285 0.785763
290 0.846408
295 0.523551
300 0.829144
305 1.77678
310 1.33921
315 0.93133
320 2.12354
325 1.49945
330 1.11712
335 1.45093
340 1.22685
345 1.29326
350 1.37178
355 0.713863
360 1.95812
365 1.62568
370 1.3539
375 0.991446
380 1.49614
385 1.46193
390 1.56569
395 2.13823
400 1.4798
405 1.34716
410 1.50606
415 1.41886
420 1.15063
425 1.83499
430 0.974835
435 1.46888
440 1.65617
445 1.11261
450 1.79597
455 1.14028
460 0.87953
465 2.11496
470 1.10618
475 1.51447
480 1.12983
485 2.33247
490 1.31198
495 1.53148
500 0.960661
505 1.39543
510 1.53774
515 1.10472
520 2.30184
525 1.78322
530 2.23118
535 2.13529
540 1.31739
545 1.54287
550 1.36492
555 1.46835
560 1.30338
565 1.09655
570 1.13551
575 1.51886
580 1.10224
585 1.3135
590 0.857948
595 1.54146
600 0.175412
Ex : 273
200 1.45465
205 1.02596
210 1.39439
215 1.04292
220 0.679909
225 0.720167
230 0.75706
235 0.633684
240 1.18111
245 1.60974
250 1.34552
255 0.573468
260 1.19912
265 0.948809
270 1.82566
275 1.79317
280 0.919378
285 1.07495
290 0.881094
295 1.2152
300 0.937354
305 1.1713
310 1.15947
315 1.46224
320 1.01472
325 0.720059
330 0.816478
335 0.814896
340 0.758128
345 1.2513
350 0.96965
355 1.30155
360 1.36701
365 1.74171
370 1.09432
375 1.23424
380 1.16617
385 0.997101
390 1.22024
395 0.994264
400 1.58251
405 0.901366
410 1.19654
415 1.5454
420 1.34395
425 1.35913
430 1.54221
435 1.00418
440 0.732139
445 1.17156
450 0.907531
455 1.3851
460 1.05174
465 1.66608
470 0.657258
475 0.818536
480 1.36657
485 1.1168
490 1.26819
495 0.791963
500 1.04911
505 0.702284
510 0.981771
515 0.701864
520 1.21027
525 0.927342
530 1.42644
535 1.34162
540 1.67908
545 1.23681
550 0.883981
555 1.34266
560 1.04794
565 0.76
570 1.25042
575 0.981181
580 0.674895
585 0.720867
590 1.83831
595 1.34517
600 0.153075
Ex : 278
200 0.83679
205 1.31082
210 0.596282
215 0.799033
220 0.881369
225 0.763739
230 0.480057
235 1.00396
240 0.883359
245 0.927001
250 0.781158
255 0.618671
260 0.560936
265 0.572429
270 0.846893
275 1.08837
280 1.06575
285 0.668616
290 0.410135
295 0.71335
300 0.676268
305 0.659508
310 0.815422
315 0.697636
320 0.928261
325 0.712787
330 0.985948
335 1.32738
340 0.782451
345 0.571466
350 0.796758
355 0.771992
360 0.881283
365 0.61378
370 0.982684
375 1.11464
380 1.14116
385 0.652101
390 0.855913
395 1.10859
400 0.996853
405 0.712905
410 0.869133
415 1.15321
420 1.62985
425 1.58816
430 0.882541
435 0.885376
440 0.881225
445 0.903707
450 0.913243
455 0.864219
460 1.13238
465 0.665038
470 0.943268
475 0.937455
480 0.977562
485 1.19438
490 0.544249
495 0.795784
500 1.06611
505 0.859422
510 1.04932
515 0.850223
520 0.30151
525 0.779455
530 1.53267
535 1.18974
540 0.814864
545 1.13641
550 1.32145
555 1.4318
560 1.07069
565 0.755756
570 1.0218
575 0.99033
580 0.868386
585 0.826205
590 0.64961
595 0.986859
600 0.112301
Ex : 283
200 0.456763
205 0.844403
210 0.657063
215 0.562855
220 0.566724
225 0.904017
230 0.673672
235 0.561995
240 0.534956
245 0.58012
250 0.332743
255 0.741714
260 0.39441
265 1.11502
270 0.657811
275 0.594148
280 0.799607
285 1.19054
290 0.753683
295 0.643994
300 0.591118
305 0.423337
310 0.606723
315 0.728528
320 0.573981
325 0.801283
330 0.828909
335 0.710932
340 0.871336
345 0.784521
350 1.38347
355 0.672263
360 0.493263
365 0.805894
370 0.69114
375 1.04941
380 0.813201
385 0.839482
390 0.587791
395 1.1576
400 1.18094
405 0.829197
410 1.19397
415 0.929565
420 0.675435
425 0.911643
430 0.672212
435 0.72695
440 0.609116
445 0.454123
450 0.676762
455 0.843442
460 0.93501
465 0.868003
470 0.567304
475 0.614362
480 1.01436
485 1.14867
490 0.930898
495 0.522853
500 0.501614
505 0.81249
510 0.639407
515 0.979107
520 0.38735
525 0.714087
530 0.723437
535 0.691758
540 0.396929
545 1.0414
550 0.628746
555 0.602869
560 1.6078
565 1.56536
570 0.763411
575 0.792933
580 1.01178
585 0.688879
590 0.688814
595 0.544039
600 1.69585
Ex : 288
200 0.281681
205 0.508417
210 0.347091
215 0.432317
220 0.681961
225 0.701168
230 0.471435
235 0.610882
240 0.535291
245 0.382467
250 0.484953
255 0.377846
260 0.829803
265 0.36213
270 0.442216
275 0.319719
280 0.613681
285 0.788423
290 0.377556
295 0.389278
300 0.371529
305 0.652175
310 0.474257
315 0.318168
320 0.782132
325 0.592812
330 0.544689
335 0.572086
340 0.581732
345 0.672899
350 0.599672
355 0.70936
360 0.420976
365 0.526646
370 0.697975
375 0.798274
380 0.847
385 0.866997
390 0.513621
395 0.815287
400 0.778655
405 0.665865
410 1.19651
415 0.91082
420 0.844581
425 0.63126
430 0.878348
435 0.75047
440 0.916424
445 0.988243
450 1.00315
455 0.986336
460 0.826687
465 1.04255
470 0.928881
475 0.685489
480 0.569788
485 0.840059
490 1.02035
495 0.699846
500 0.504035
505 0.78305
510 0.435473
515 0.464805
520 0.467795
525 0.456104
530 0.861021
535 0.494264
540 0.343917
545 0.414305
550 0.750209
555 0.471163
560 0.608267
565 0.710624
570 1.1551
575 1.02436
580 0.753788
585 0.361882
590 0.62418
595 0.48731
600 0.66898
Ex : 293
200 0.599156
205 0.500638
210 0.344414
215 0.296816
220 0.291936
225 0.437463
230 0.404645
235 0.456344
240 0.70299
245 0.651897
250 0.316653
255 0.281154
260 0.461063
265 0.308673
270 0.43309
275 0.416642
280 0.546736
285 0.550831
290 0.411462
295 0.464951
300 0.731262
305 0.677649
310 0.520925
315 0.456806
320 0.307289
325 0.560618
330 0.376852
335 0.616199
340 0.440846
345 0.465455
350 0.634568
355 0.590036
360 0.558476
365 0.848719
370 0.516911
375 0.654661
380 0.893558
385 0.792429
390 0.677005
395 0.895509
400 0.503949
405 0.550373
410 1.11503
415 0.581423
420 0.933685
425 0.526229
430 0.450235
435 0.814037
440 0.638827
445 0.681006
450 0.470046
455 1.04123
460 0.580319
465 0.654142
470 0.877798
475 0.650863
480 0.675486
485 0.531687
490 0.885541
495 0.645031
500 0.570055
505 0.618807
510 0.6478
515 0.322694
520 0.39782
525 0.435656
530 0.563269
535 0.349599
540 0.227029
545 0.65972
550 0.401867
555 0.392256
560 0.417876
565 0.447651
570 0.620439
575 1.1668
580 1.14156
585 0.795389
590 0.521549
595 0.527308
600 0.580169
Ex : 298
200 0.260009
205 0.377798
210 0.359998
215 0.359653
220 0.516661
225 0.284079
230 0.360859
235 0.266342
240 0.431259
245 0.368536
250 0.304655
255 0.279595
260 0.298825
265 0.288614
270 0.286633
275 0.298023
280 0.46405
285 0.41024
290 0.436547
295 0.597708
300 0.483655
305 0.358375
310 0.718856
315 0.948984
320 0.338051
325 0.5359
330 0.407488
335 0.806151
340 0.35797
345 0.620684
350 0.65938
355 0.380806
360 0.521161
365 0.48995
370 0.413469
375 0.676658
380 0.582931
385 0.704796
390 0.620551
395 0.776251
400 0.565806
405 0.603205
410 0.623194
415 0.672686
420 0.541765
425 0.839701
430 1.03869
435 0.754395
440 0.747193
445 0.563602
450 0.773264
455 0.592915
460 0.347477
465 0.497667
470 0.398495
475 0.488449
480 0.56305
485 0.453006
490 0.391533
495 0.605459
500 0.530369
505 0.422592
510 0.499912
515 0.409783
520 0.464008
525 0.299337
530 0.624453
535 0.620976
540 0.346034
545 0.479003
550 0.276372
555 0.476615
560 0.236811
565 0.285973
570 0.295931
575 0.35823
580 0.485106
585 1.01753
590 1.00942
595 1.0207
600 0.749155
Ex : 303
200 0.199761
205 0.304027
210 0.163843
215 0.319982
220 0.296181
225 0.466865
230 0.362059
235 0.447066
240 0.566092
245 0.353755
250 0.48229
255 0.363933
260 0.359164
265 0.179218
270 0.355906
275 0.28229
280 0.30703
285 0.376225
290 0.3305
295 0.348614
300 0.764296
305 0.379899
310 0.232042
315 0.398304
320 0.518489
325 0.347542
330 0.283004
335 0.384064
340 0.469895
345 0.39503
350 0.457993
355 0.313225
360 0.333513
365 0.521208
370 0.542663
375 0.698457
380 0.474579
385 0.702516
390 0.540628
395 0.572588
400 0.534304
405 0.564197
410 0.562403
415 0.485882
420 0.67542
425 0.628763
430 0.347998
435 0.599684
440 0.560143
445 0.38377
450 0.795645
455 0.644641
460 0.450306
465 0.493274
470 0.375619
475 0.522416
480 0.50148
485 0.511862
490 0.342421
495 0.27626
500 0.534351
505 0.335456
510 0.607338
515 0.462187
520 0.336009
525 0.263699
530 0.365319
535 0.536772
540 0.685567
545 0.37895
550 0.49653
555 0.508995
560 0.355592
565 0.175594
570 0.412707
575 0.339408
580 0.387323
585 0.673352
590 0.358695
595 0.701926
600 1.33279
Ex : 308
200 0.305797
205 0.216441
210 0.259656
215 0.31556
220 0.285584
225 0.243529
230 0.245575
235 0.236027
240 0.148774
245 0.167885
250 0.273202
255 0.324726
260 0.250447
265 0.289368
270 0.235018
275 0.243628
280 0.285309
285 0.203592
290 0.482704
295 0.28426
300 0.387827
305 0.463816
310 0.274717
315 0.154354
320 0.264407
325 0.27388
330 0.46253
335 0.508528
340 0.32479
345 0.303102
350 0.419513
355 0.337752
360 0.545368
365 0.435672
370 0.394368
375 0.495973
380 0.611715
385 0.440205
390 0.554281
395 0.760507
400 0.516985
405 0.630476
410 0.461255
415 0.644953
420 0.471021
425 0.53923
430 0.627071
435 0.533457
440 0.523425
445 0.528621
450 0.569489
455 0.455705
460 0.555099
465 0.43934
470 0.650927
475 0.543295
480 0.420801
485 0.231024
490 0.464747
495 0.338205
500 0.598488
505 0.347845
510 0.508014
515 0.517484
520 0.62068
525 0.369849
530 0.471313
535 0.332618
540 0.307847
545 0.382416
550 0.226592
555 0.393296
560 0.350644
565 0.283028
570 0.231845
575 0.373308
580 0.316974
585 0.258012
590 0.260179
595 0.284228
600 0.866418
Ex : 313
200 0.211298
205 0.291866
210 0.254015
215 0.201086
220 0.386727
225 0.353989
230 0.165394
235 0.163329
240 0.299086
245 0.242248
250 0.172582
255 0.22316
260 0.336972
265 0.204475
270 0.160468
275 0.1742
280 0.239469
285 0.239336
290 0.166832
295 0.314477
300 0.316071
305 0.58717
310 0.742764
315 0.379925
320 0.278831
325 0.762651
330 0.511899
335 0.450777
340 0.36215
345 0.532612
350 0.35783
355 0.434649
360 0.621887
365 0.571559
370 0.492705
375 0.581879
380 0.646445
385 0.811563
390 0.913194
395 0.870783
400 0.606421
405 0.92617
410 0.711788
415 0.712753
420 0.583744
425 0.674522
430 0.654848
435 0.733975
440 0.63223
445 0.598899
450 0.439433
455 0.633736
460 0.699264
465 0.506821
470 0.371258
475 0.400884
480 0.54161
485 0.421118
490 0.379434
495 0.375985
500 0.305907
505 0.293287
510 0.433234
515 0.523342
520 0.543261
525 0.272692
530 0.522154
535 0.254957
540 0.267628
545 0.372288
550 0.31714
555 0.235458
560 0.204583
565 0.335398
570 0.288758
575 0.189922
580 0.262884
585 0.26072
590 0.365447
595 0.438357
600 0.259774
Ex : 318
200 0.216981
205 0.309361
210 0.218882
215 0.207233
220 0.172861
225 0.203995
230 0.312199
235 0.292874
240 0.258418
245 0.145782
250 0.193685
255 0.256397
260 0.288809
265 0.181167
270 0.169523
275 0.17958
280 0.200644
285 0.320908
290 0.141359
295 0.17205
300 0.460739
305 0.357777
310 0.455579
315 1.07064
320 0.624226
325 0.47414
330 0.634663
335 0.796004
340 1.08229
345 1.12017
350 1.71239
355 2.12927
360 2.3277
365 3.10529
370 3.91339
375 4.43252
380 5.18002
385 5.50855
390 5.64016
395 6.75389
400 7.3567
405 6.64225
410 6.35748
415 6.84102
420 6.69265
425 6.38459
430 6.05062
435 6.16011
440 5.48539
445 5.55407
450 5.02893
455 4.6953
460 4.45989
465 4.23942
470 3.61568
475 3.51942
480 2.99152
485 2.54889
490 2.70601
495 2.03171
500 1.85325
505 1.7649
510 1.32765
515 1.31971
520 1.01928
525 1.208
530 0.709382
535 0.959924
540 0.837146
545 0.714594
550 0.552212
555 0.446733
560 0.343814
565 0.286762
570 0.290371
575 0.385477
580 0.318464
585 0.268295
590 0.367012
595 0.426735
600 0.0485608
Ex : 323
200 0.18298
205 0.19608
210 0.171086
215 0.191923
220 0.186586
225 0.161296
230 0.166308
235 0.247726
240 0.159504
245 0.30446
250 0.159801
255 0.112966
260 0.201834
265 0.258131
270 0.138521
275 0.18748
280 0.215259
285 0.179301
290 0.251967
295 0.140012
300 0.335165
305 0.165141
310 0.328311
315 5.42813
320 26.8292
325 12.105
330 2.71224
335 2.68485
340 3.73201
345 4.9519
350 7.60949
355 10.7134
360 12.6499
365 14.9646
370 18.1451
375 20.634
380 24.8749
385 26.4477
390 28.52
395 31.1242
400 32.2147
405 32.2435
410 32.6211
415 32.1898
420 32.5864
425 30.6112
430 28.9921
435 27.7095
440 26.4871
445 25.2792
450 23.8326
455 22.5037
460 21.0471
465 19.4892
470 17.2618
475 16.3109
480 15.1123
485 13.0027
490 11.8684
495 10.4168
500 9.48004
505 8.5611
510 7.52275
515 6.19443
520 5.72866
525 4.70927
530 4.13404
535 3.38701
540 2.79885
545 2.49142
550 1.92301
555 1.74836
560 1.73191
565 1.23374
570 1.08715
575 0.785692
580 0.673464
585 0.459317
590 0.37107
595 0.467751
600 0.124841
Ex : 328
200 0.162866
205 0.203111
210 0.214104
215 0.283694
220 0.197734
225 0.218431
230 0.197433
235 0.170361
240 0.196318
245 0.181741
250 0.230826
255 0.18926
260 0.189156
265 0.180815
270 0.122383
275 0.194004
280 0.114253
285 0.121942
290 0.239104
295 0.183315
300 0.203509
305 0.195352
310 0.22072
315 1.46476
320 63.5414
325 164.91
330 51.9402
335 9.44308
340 5.84555
345 7.11506
350 9.61279
355 12.8615
360 17.4915
365 19.4902
370 22.491
375 25.2542
380 29.2805
385 32.1199
390 34.721
395 36.9664
400 37.8388
405 38.5019
410 38.3714
415 38.3465
420 36.6559
425 36.088
430 34.4668
435 32.6607
440 30.7885
445 28.9242
450 28.0359
455 25.8553
460 24.6177
465 22.1039
470 19.8
475 18.3114
480 16.7401
485 15.3729
490 13.3869
495 11.6618
500 10.7019
505 9.76786
510 8.3815
515 7.32875
520 6.63487
525 5.69786
530 4.59314
535 4.31834
540 3.53897
545 2.97895
550 2.45768
555 2.11616
560 1.80509
565 1.3031
570 1.25556
575 1.05184
580 0.805634
585 0.50662
590 0.616454
595 0.533572
600 0.150152
Ex : 333
200 0.167414
205 0.152696
210 0.156375
215 0.188676
220 0.2179
225 0.132109
230 0.257033
235 0.233812
240 0.17984
245 0.195242
250 0.174229
255 0.136515
260 0.181128
265 0.201102
270 0.181821
275 0.271536
280 0.196931
285 0.271414
290 0.221023
295 0.314935
300 0.233708
305 0.337445
310 0.330421
315 0.180576
320 9.95273
325 200.769
330 346.627
335 91.8968
340 13.9822
345 6.04911
350 6.10686
355 7.16303
360 9.79667
365 15.1179
370 15.5234
375 15.8088
380 16.6845
385 19.1574
390 22.1046
395 23.4077
400 23.1652
405 22.9967
410 24.3108
415 24.4095
420 24.1709
425 22.2897
430 20.2223
435 19.5887
440 18.4364
445 17.7082
450 15.8719
455 14.5777
460 13.9606
465 12.5474
470 11.2704
475 10.8201
480 9.70094
485 9.34715
490 8.1573
495 7.49339
500 6.4432
505 5.56857
510 4.79213
515 4.31439
520 3.7367
525 3.33396
530 2.82594
535 2.59962
540 2.10978
545 1.95808
550 1.5877
555 1.42944
560 1.19637
565 1.07618
570 1.08381
575 0.882013
580 0.59826
585 0.513445
590 0.374062
595 0.372745
600 0.150491
Ex : 338
200 0.114541
205 0.183063
210 0.0961219
215 0.130943
220 0.0809386
225 0.187182
230 0.16116
235 0.14927
240 0.151053
245 0.194115
250 0.103876
255 0.186203
260 0.233636
265 0.257887
270 0.226545
275 0.165774
280 0.195724
285 0.174348
290 0.306069
295 0.138383
300 0.213139
305 0.270018
310 0.186545
315 0.262531
320 0.278493
325 19.206
330 305.932
335 456.738
340 114.588
345 16.1226
350 5.69972
355 4.58845
360 3.92583
365 5.88226
370 10.4506
375 10.4886
380 9.76664
385 10.6962
390 12.5082
395 13.7902
400 13.2757
405 13.0587
410 14.3403
415 14.7284
420 14.0191
425 13.2021
430 11.8606
435 11.4558
440 10.8334
445 10.3111
450 9.4111
455 8.1628
460 7.40581
465 7.10469
470 7.10978
475 6.41708
480 5.7571
485 5.89555
490 5.1188
495 4.49789
500 3.8881
505 3.75936
510 3.13968
515 2.72846
520 2.54026
525 2.07935
530 1.79429
535 1.63388
540 1.44937
545 1.25434
550 1.30236
555 1.06967
560 0.966631
565 0.724461
570 0.794749
575 0.665039
580 0.504138
585 0.397875
590 0.452409
595 0.340673
600 0.334169
Ex : 343
200 0.141869
205 0.163821
210 0.13419
215 0.107831
220 0.0817315
225 0.180507
230 0.212622
235 0.14441
240 0.261223
245 0.163091
250 0.125319
255 0.216867
260 0.171897
265 0.117369
270 0.160578
275 0.209028
280 0.167861
285 0.195909
290 0.15397
295 0.21673
300 0.180816
305 0.220066
310 0.1436
315 0.184389
320 0.299319
325 0.498674
330 21.6603
335 352.409
340 521.487
345 126.946
350 16.9302
355 4.60081
360 3.25639
365 2.68664
370 3.58326
375 7.54269
380 9.46772
385 9.7718
390 10.6311
395 11.1212
400 10.0001
405 10.7416
410 11.6014
415 12.5772
420 12.0849
425 10.39
430 9.58409
435 9.60233
440 9.30172
445 8.43474
450 8.07026
455 7.2381
460 6.45002
465 6.33603
470 5.63882
475 5.34174
480 4.89827
485 4.53525
490 4.43856
495 3.70263
500 3.47972
505 3.06438
510 2.63144
515 2.22392
520 1.95106
525 1.80083
530 1.61075
535 1.45185
540 1.24103
545 1.1877
550 1.17351
555 0.932144
560 0.858097
565 0.610316
570 0.798258
575 0.550122
580 0.550853
585 0.379588
590 0.467524
595 0.42774
600 0.240287
Ex : 348
200 0.109765
205 0.151329
210 0.155279
215 0.145121
220 0.160026
225 0.132627
230 0.177786
235 0.197917
240 0.162519
245 0.207034
250 0.0980717
255 0.16256
260 0.113699
265 0.111917
270 0.220075
275 0.171512
280 0.102209
285 0.220002
290 0.18083
295 0.146706
300 0.127503
305 0.120208
310 0.115533
315 0.255417
320 0.354986
325 0.333989
330 0.600546
335 23.116
340 363.686
345 562.553
350 143.667
355 18.7006
360 4.49087
365 2.83529
370 2.35189
375 2.93714
380 7.28733
385 12.5372
390 13.3691
395 13.3748
400 11.944
405 12.5251
410 14.3047
415 14.6724
420 13.6335
425 12.4388
430 11.143
435 10.7443
440 10.2205
445 9.83115
450 8.8629
455 7.89757
460 7.38795
465 6.8256
470 6.01075
475 5.87169
480 5.31668
485 4.62426
490 4.23243
495 4.00296
500 3.45042
505 3.54775
510 2.76887
515 2.68678
520 2.11196
525 2.15657
530 1.90085
535 1.84424
540 1.48807
545 1.0978
550 1.06974
555 0.948935
560 0.630405
565 0.694073
570 0.634441
575 0.589747
580 0.506369
585 0.460622
590 0.422814
595 0.348406
600 0.607034
Ex : 353
200 0.142213
205 0.193865
210 0.196997
215 0.117048
220 0.102612
225 0.124588
230 0.13205
235 0.0862923
240 0.101931
245 0.1156
250 0.0958932
255 0.0981019
260 0.137465
265 0.143032
270 0.223498
275 0.14361
280 0.150508
285 0.200096
290 0.274547
295 0.162992
300 0.201291
305 0.165487
310 0.237747
315 0.195867
320 0.237182
325 0.255561
330 0.322876
335 0.621715
340 23.7596
345 379.517
350 561.909
355 140.059
360 18.2877
365 4.02482
370 2.42496
375 2.27963
380 3.66643
385 9.10425
390 16.4069
395 16.4608
400 13.9497
405 12.818
410 14.8156
415 16.576
420 16.4422
425 13.304
430 12.2207
435 11.8348
440 11.4612
445 10.9448
450 9.88132
455 8.4157
460 7.6684
465 7.06295
470 6.85727
475 6.56221
480 5.98002
485 5.34555
490 4.51038
495 4.10232
500 3.89684
505 3.63703
510 3.30773
515 2.73782
520 2.59019
525 2.1397
530 1.88686
535 1.77461
540 1.53272
545 1.31245
550 1.13542
555 1.02684
560 0.951329
565 0.89666
570 0.798059
575 0.480166
580 0.528769
585 0.481631
590 0.371536
595 0.331336
600 0.326236
Ex : 358
200 0.141971
205 0.228614
210 0.156655
215 0.102571
220 0.147888
225 0.161696
230 0.0919307
235 0.134025
240 0.12266
245 0.113333
250 0.103247
255 0.114204
260 0.190624
265 0.176356
270 0.166742
275 0.124564
280 0.174489
285 0.170566
290 0.215
295 0.168494
300 0.073464
305 0.233871
310 0.260572
315 0.203244
320 0.208845
325 0.178962
330 0.185031
335 0.47228
340 0.714543
345 23.4048
350 375.503
355 572.592
360 144.833
365 18.4639
370 4.06618
375 2.95557
380 3.32087
385 6.18241
390 11.3624
395 16.2392
400 15.2012
405 13.3339
410 13.8513
415 14.987
420 14.5255
425 12.6593
430 11.17
435 10.9817
440 10.9812
445 10.9034
450 9.84224
455 8.55904
460 7.36674
465 7.4508
470 6.69639
475 6.23178
480 5.93037
485 5.34587
490 4.83953
495 4.44849
500 4.0166
505 3.36831
510 3.24903
515 2.98535
520 2.60077
525 2.25072
530 1.95363
535 1.87006
540 1.82999
545 1.42045
550 1.34664
555 1.15272
560 0.996468
565 0.861574
570 0.612387
575 0.612981
580 0.450517
585 0.337223
590 0.371201
595 0.294776
600 0.0978657
Ex : 363
200 0.101177
205 0.158646
210 0.143817
215 0.11919
220 0.119794
225 0.107652
230 0.0664443
235 0.124281
240 0.194325
245 0.147117
250 0.138127
255 0.104211
260 0.119467
265 0.11218
270 0.189686
275 0.107395
280 0.0927948
285 0.0977569
290 0.133177
295 0.122379
300 0.10162
305 0.149236
310 0.0973633
315 0.155082
320 0.138958
325 0.17357
330 0.250472
335 0.203907
340 0.387112
345 0.672964
350 21.8345
355 367.088
360 582.275
365 151.746
370 19.2413
375 4.48332
380 4.77912
385 8.01041
390 11.3861
395 13.1444
400 15.3076
405 16.936
410 17.4092
415 17.7425
420 15.874
425 13.9335
430 12.8085
435 12.2716
440 12.3159
445 11.5492
450 9.92041
455 9.05792
460 8.06732
465 7.94413
470 7.47513
475 6.75299
480 6.03389
485 5.61332
490 5.30917
495 4.88176
500 4.26294
505 3.89581
510 3.41727
515 3.09938
520 2.8379
525 2.27448
530 2.27788
535 1.99921
540 1.77357
545 1.47194
550 1.15651
555 1.06753
560 1.02481
565 0.775033
570 0.781687
575 0.614327
580 0.484609
585 0.397778
590 0.395197
595 0.299957
600 0.720942
Ex : 368
200 0.280405
205 0.146309
210 0.129923
215 0.116189
220 0.128572
225 0.115917
230 0.152913
235 0.120724
240 0.0953148
245 0.095934
250 0.119424
255 0.10964
260 0.138808
265 0.13497
270 0.0946926
275 0.11182
280 0.0848506
285 0.130349
290 0.0933287
295 0.166346
300 0.0960549
305 0.0773167
310 0.229556
315 0.12459
320 0.118151
325 0.163079
330 0.159348
335 0.207779
340 0.20025
345 0.37078
350 0.657007
355 17.8074
360 358.069
365 600.425
370 159.258
375 20.5608
380 6.20677
385 9.40793
390 14.4202
395 16.1014
400 15.1911
405 18.2758
410 22.9666
415 23.8679
420 21.2467
425 17.5432
430 15.6708
435 15.3855
440 15.3223
445 14.1825
450 12.2459
455 11.2028
460 9.86675
465 8.86227
470 8.71646
475 8.07441
480 7.061
485 6.52987
490 6.13355
495 5.38826
500 4.6585
505 4.10241
510 3.93627
515 3.5783
520 3.08752
525 2.62236
530 2.403
535 1.9667
540 1.75559
545 1.52077
550 1.44931
555 1.2278
560 1.19157
565 0.809751
570 0.736884
575 0.559133
580 0.420828
585 0.449235
590 0.429268
595 0.2935
600 0.305113
Ex : 373
200 0.131658
205 0.0938223
210 0.111633
215 0.0926799
220 0.105069
225 0.113099
230 0.0837289
235 0.139533
240 0.0815509
245 0.0969246
250 0.0856612
255 0.137423
260 0.13514
265 0.0607696
270 0.107235
275 0.0989131
280 0.0778283
285 0.138497
290 0.0722907
295 0.122657
300 0.124605
305 0.126012
310 0.0954987
315 0.11022
320 0.12725
325 0.142855
330 0.168794
335 0.168432
340 0.236381
345 0.239935
350 0.482359
355 0.693717
360 20.5185
365 365.153
370 598.482
375 159.516
380 21.4419
385 9.25752
390 14.3647
395 17.1043
400 15.1131
405 14.4603
410 18.9917
415 24.9575
420 22.6046
425 18.6588
430 15.4837
435 14.5384
440 14.6971
445 13.8588
450 11.9416
455 10.5046
460 9.13439
465 8.9682
470 8.66327
475 8.00809
480 7.09214
485 6.37369
490 6.20822
495 5.01588
500 4.69649
505 4.21824
510 3.76716
515 3.48251
520 2.94539
525 2.51078
530 2.2653
535 2.15607
540 1.92085
545 1.65604
550 1.51443
555 1.25172
560 1.24027
565 0.87269
570 0.78488
575 0.620665
580 0.509569
585 0.448869
590 0.362996
595 0.278704
600 0.101373
Ex : 378
200 0.0968092
205 0.133825
210 0.121075
215 0.106606
220 0.0967841
225 0.133833
230 0.11161
235 0.131123
240 0.0982024
245 0.101263
250 0.0996747
255 0.0882651
260 0.112265
265 0.113097
270 0.0884282
275 0.128737
280 0.0977453
285 0.0931659
290 0.111357
295 0.117019
300 0.086886
305 0.137223
310 0.138589
315 0.122597
320 0.111327
325 0.120608
330 0.178966
335 0.179337
340 0.173557
345 0.148931
350 0.214639
355 0.440851
360 0.644114
365 20.004
370 372.539
375 617.938
380 166.56
385 24.8423
390 12.3449
395 13.0805
400 11.6413
405 10.9345
410 12.8668
415 15.599
420 18.5108
425 15.3812
430 12.6811
435 11.8243
440 11.095
445 10.739
450 9.69567
455 8.58956
460 8.02919
465 7.23035
470 7.28264
475 6.89381
480 6.48425
485 5.50369
490 5.19831
495 4.81929
500 4.50915
505 4.05838
510 3.54203
515 3.36638
520 2.7766
525 2.42416
530 2.3407
535 1.9001
540 1.69687
545 1.46438
550 1.41466
555 1.18598
560 1.13827
565 0.903913
570 0.734359
575 0.679369
580 0.464836
585 0.453459
590 0.377347
595 0.347087
600 0.407217
Ex : 383
200 0.0689785
205 0.0877945
210 0.0925865
215 0.0699369
220 0.160075
225 0.112101
230 0.0799268
235 0.113488
240 0.0573844
245 0.119446
250 0.0761431
255 0.184784
260 0.10964
265 0.117314
270 0.0694004
275 0.0947539
280 0.136627
285 0.0995329
290 0.102636
295 0.117645
300 0.0821513
305 0.0729504
310 0.155988
315 0.100282
320 0.113572
325 0.113928
330 0.150715
335 0.138484
340 0.15268
345 0.182399
350 0.148174
355 0.300309
360 0.343487
365 0.808241
370 18.9848
375 369.255
380 644.725
385 178.484
390 30.2153
395 13.2534
400 11.0014
405 11.3872
410 13.158
415 14.2021
420 13.8675
425 14.4838
430 14.2007
435 12.4945
440 11.8699
445 10.5571
450 9.57683
455 8.57845
460 7.96027
465 7.42426
470 6.94009
475 6.57478
480 5.97822
485 5.4707
490 5.22761
495 4.69209
500 4.47733
505 4.04734
510 3.53427
515 3.07842
520 3.0805
525 2.68964
530 2.35438
535 2.2201
540 1.73657
545 1.61824
550 1.4179
555 1.26769
560 1.15286
565 0.953705
570 0.838929
575 0.627189
580 0.422008
585 0.475007
590 0.344728
595 0.323574
600 0.165408
Ex : 388
200 0.103209
205 0.102434
210 0.117122
215 0.091879
220 0.144867
225 0.0928335
230 0.115948
235 0.106982
240 0.0919284
245 0.0971585
250 0.116561
255 0.0593028
260 0.079007
265 0.0935762
270 0.107003
275 0.0962996
280 0.0868725
285 0.0612081
290 0.0851454
295 0.0648008
300 0.0725159
305 0.0519771
310 0.169834
315 0.149846
320 0.174206
325 0.09545
330 0.155468
335 0.141637
340 0.167514
345 0.142101
350 0.193929
355 0.171852
360 0.265963
365 0.434761
370 0.750749
375 20.8612
380 382.625
385 645.316
390 181.383
395 33.4149
400 15.3169
405 13.8338
410 16.1954
415 17.7504
420 16.4689
425 14.3109
430 14.9597
435 15.8508
440 14.4646
445 13.7404
450 11.0765
455 9.71513
460 8.65597
465 8.45605
470 7.79068
475 7.2432
480 6.45794
485 6.12034
490 5.40539
495 5.12999
500 4.6168
505 4.18271
510 3.7234
515 3.57885
520 2.91177
525 2.81267
530 2.2692
535 1.97702
540 1.94333
545 1.66454
550 1.59956
555 1.26925
560 1.18107
565 0.981032
570 0.767518
575 0.591273
580 0.608894
585 0.451167
590 0.367871
595 0.294509
600 0.0806884
Ex : 393
200 0.0716548
205 0.12436
210 0.0429439
215 0.0929458
220 0.086609
225 0.104784
230 0.0985809
235 0.0823121
240 0.112816
245 0.116337
250 0.0815081
255 0.0857369
260 0.10726
265 0.105466
270 0.138864
275 0.100703
280 0.132921
285 0.124275
290 0.106231
295 0.0714033
300 0.0818609
305 0.140854
310 0.115504
315 0.094174
320 0.0885088
325 0.138544
330 0.100247
335 0.112382
340 0.118885
345 0.163546
350 0.123729
355 0.215251
360 0.242811
365 0.248818
370 0.393878
375 0.722601
380 18.8979
385 377.96
390 664.408
395 191.255
400 34.8273
405 15.0997
410 14.7513
415 18.4506
420 18.0011
425 14.9206
430 12.6737
435 13.3187
440 15.6081
445 14.2171
450 12.1488
455 9.9792
460 8.33576
465 7.79695
470 7.69384
475 6.99902
480 6.50761
485 6.00131
490 5.22179
495 4.67002
500 4.39306
505 4.14709
510 3.75464
515 3.33701
520 2.87907
525 2.69551
530 2.46912
535 2.25467
540 1.76582
545 1.57309
550 1.4318
555 1.30559
560 1.13572
565 0.947039
570 0.863808
575 0.57603
580 0.558294
585 0.424185
590 0.265222
595 0.24799
600 0.0693655
Ex : 398
200 0.0803326
205 0.0787718
210 0.0923509
215 0.104462
220 0.116723
225 0.109298
230 0.0930148
235 0.0816547
240 0.064603
245 0.100556
250 0.130076
255 0.106735
260 0.121833
265 0.0740465
270 0.0811667
275 0.0619677
280 0.0890982
285 0.0940103
290 0.0825563
295 0.0715869
300 0.108207
305 0.0679943
310 0.0976842
315 0.0919106
320 0.129811
325 0.0998319
330 0.1033
335 0.198237
340 0.161138
345 0.110227
350 0.10603
355 0.212137
360 0.188623
365 0.209959
370 0.221059
375 0.485563
380 0.802482
385 20.4939
390 387.793
395 672.417
400 184.877
405 28.0061
410 10.9963
415 11.4922
420 11.8079
425 9.72499
430 8.04493
435 7.31874
440 8.92125
445 10.8884
450 9.89419
455 7.77554
460 6.35176
465 5.83786
470 5.67191
475 5.35008
480 4.9641
485 4.72179
490 4.42128
495 4.06355
500 3.70477
505 3.47524
510 3.27946
515 2.76603
520 2.46819
525 2.32336
530 1.93716
535 1.79424
540 1.68116
545 1.52299
550 1.30204
555 1.16778
560 1.09294
565 0.866792
570 0.745643
575 0.634138
580 0.449152
585 0.3511
590 0.310666
595 0.30922
600 0.107286
Ex : 403
200 0.113045
205 0.074494
210 0.0626292
215 0.0836213
220 0.0502417
225 0.121521
230 0.104823
235 0.0895167
240 0.0772013
245 0.0972463
250 0.0584184
255 0.124342
260 0.118649
265 0.0794111
270 0.0749443
275 0.0639207
280 0.132738
285 0.0759194
290 0.104922
295 0.132825
300 0.0774211
305 0.0910572
310 0.0745828
315 0.0731063
320 0.143804
325 0.0708181
330 0.0813765
335 0.0785382
340 0.123242
345 0.102413
350 0.153166
355 0.138677
360 0.140811
365 0.161266
370 0.178513
375 0.206241
380 0.372496
385 0.97972
390 22.1786
395 397.435
400 663.716
405 181.227
410 24.8697
415 7.50425
420 5.30546
425 5.18197
430 4.54244
435 4.24691
440 4.42087
445 5.23792
450 6.77069
455 7.13194
460 5.61133
465 5.15323
470 4.71011
475 4.35525
480 4.34454
485 4.00227
490 3.69262
495 3.40487
500 3.1851
505 2.88271
510 2.97932
515 2.47834
520 2.35855
525 2.21944
530 1.9974
535 1.83636
540 1.73729
545 1.447
550 1.22863
555 1.13747
560 1.1129
565 0.935334
570 0.795982
575 0.594073
580 0.426165
585 0.422604
590 0.309438
595 0.267217
600 0.21554
Ex : 408
200 0.134612
205 0.0965863
210 0.0886344
215 0.07487
220 0.0922586
225 0.0830682
230 0.131229
235 0.087009
240 0.114438
245 0.0624842
250 0.135873
255 0.0553392
260 0.0705891
265 0.132747
270 0.104874
275 0.124366
280 0.0904151
285 0.0741906
290 0.11938
295 0.0926313
300 0.0747598
305 0.130249
310 0.0924492
315 0.132768
320 0.117254
325 0.082519
330 0.085827
335 0.11729
340 0.158141
345 0.136458
350 0.116811
355 0.143716
360 0.143552
365 0.15026
370 0.167761
375 0.22871
380 0.284095
385 0.404371
390 0.93656
395 20.1965
400 403.846
405 676.972
410 180.253
415 24.4636
420 6.27501
425 4.06219
430 4.0109
435 3.90678
440 4.03232
445 4.13327
450 4.25736
455 5.51404
460 6.79305
465 5.62362
470 4.84526
475 4.48722
480 4.0177
485 3.6485
490 3.43374
495 3.46655
500 3.2393
505 3.1485
510 2.61969
515 2.53334
520 2.48902
525 2.12988
530 1.90358
535 1.83255
540 1.64833
545 1.43422
550 1.23309
555 1.11416
560 0.861743
565 0.87598
570 0.734291
575 0.576039
580 0.455469
585 0.31664
590 0.323745
595 0.232572
600 0.239756
Ex : 413
200 0.0859473
205 0.0620559
210 0.0704942
215 0.125123
220 0.0816008
225 0.0658219
230 0.0832854
235 0.105455
240 0.0888888
245 0.0597069
250 0.0800767
255 0.0549176
260 0.130294
265 0.0993386
270 0.0949591
275 0.119435
280 0.125359
285 0.0746771
290 0.119202
295 0.115626
300 0.102599
305 0.133142
310 0.134211
315 0.133481
320 0.107927
325 0.0693762
330 0.0697823
335 0.093104
340 0.109503
345 0.130991
350 0.13502
355 0.128377
360 0.151482
365 0.115462
370 0.137522
375 0.119221
380 0.202168
385 0.343885
390 0.481738
395 0.808904
400 22.9556
405 413.686
410 673.697
415 174.361
420 23.2829
425 5.61022
430 3.49385
435 3.72351
440 3.64978
445 3.7204
450 3.46767
455 3.53523
460 4.72689
465 6.26581
470 5.40384
475 4.61256
480 4.14631
485 3.61292
490 3.11097
495 3.10335
500 2.99815
505 2.6783
510 2.53382
515 2.36677
520 2.19939
525 2.11557
530 1.90429
535 1.84577
540 1.63183
545 1.41799
550 1.22401
555 1.07845
560 0.86772
565 0.797649
570 0.786229
575 0.662925
580 0.490503
585 0.408417
590 0.306524
595 0.302703
600 0.343275
Ex : 418
200 0.0801482
205 0.0935544
210 0.0977849
215 0.141976
220 0.102626
225 0.0796097
230 0.123696
235 0.0917628
240 0.0725129
245 0.0747643
250 0.0945498
255 0.0882267
260 0.130573
265 0.0752082
270 0.0875874
275 0.0780234
280 0.0604777
285 0.0889628
290 0.0934545
295 0.0768773
300 0.0956669
305 0.0944337
310 0.0613525
315 0.0760475
320 0.0943703
325 0.0595267
330 0.0765526
335 0.0897262
340 0.105163
345 0.118876
350 0.095695
355 0.101432
360 0.155674
365 0.151176
370 0.166934
375 0.180587
380 0.149043
385 0.177653
390 0.284565
395 0.400089
400 0.878247
405 21.2425
410 408.604
415 680.647
420 182.961
425 23.3286
430 4.62393
435 2.62582
440 2.71681
445 2.74875
450 2.52683
455 2.44965
460 2.43232
465 3.15944
470 4.83985
475 4.97548
480 3.95457
485 3.43812
490 2.95402
495 2.59223
500 2.64847
505 2.39319
510 2.2449
515 2.14001
520 2.01754
525 1.86925
530 1.59297
535 1.54231
540 1.36445
545 1.28071
550 1.13942
555 0.97957
560 0.992741
565 0.817322
570 0.651103
575 0.570707
580 0.428222
585 0.350615
590 0.297646
595 0.306074
600 0.249045
Ex : 423
200 0.0924743
205 0.0864736
210 0.125453
215 0.0683087
220 0.127465
225 0.0725299
230 0.0896562
235 0.0446256
240 0.051468
245 0.0720799
250 0.08556
255 0.0732103
260 0.0676661
265 0.0841884
270 0.0721154
275 0.0896965
280 0.0819936
285 0.0964013
290 0.0700132
295 0.0720462
300 0.091901
305 0.105247
310 0.0628489
315 0.0649448
320 0.119626
325 0.0977463
330 0.117294
335 0.148972
340 0.102961
345 0.166437
350 0.0973202
355 0.136953
360 0.107032
365 0.138077
370 0.148299
375 0.118706
380 0.192789
385 0.251973
390 0.244649
395 0.337848
400 0.401489
405 0.907431
410 22.3487
415 428.983
420 680.808
425 172.025
430 21.7062
435 3.95007
440 1.87492
445 2.08112
450 2.01151
455 1.62945
460 1.69463
465 1.98429
470 2.32171
475 4.12433
480 4.85082
485 3.51615
490 2.9814
495 2.67756
500 2.35383
505 2.10063
510 2.05448
515 1.78255
520 1.96939
525 1.60051
530 1.73932
535 1.55731
540 1.29565
545 1.11271
550 1.09243
555 1.01287
560 0.965853
565 0.800841
570 0.678516
575 0.461843
580 0.491488
585 0.336669
590 0.281842
595 0.259302
600 0.222914
Ex : 428
200 0.101135
205 0.069967
210 0.16553
215 0.11518
220 0.101295
225 0.101118
230 0.137175
235 0.149079
240 0.0878665
245 0.135342
250 0.106522
255 0.0790998
260 0.140223
265 0.138822
270 0.082456
275 0.128703
280 0.114496
285 0.0804969
290 0.0542586
295 0.0743494
300 0.0779544
305 0.0757355
310 0.0589677
315 0.13162
320 0.197882
325 0.102528
330 0.0933467
335 0.095901
340 0.0669026
345 0.118759
350 0.178492
355 0.121762
360 0.0884949
365 0.116177
370 0.100752
375 0.145013
380 0.126399
385 0.155669
390 0.187662
395 0.253194
400 0.302296
405 0.488477
410 0.803253
415 24.7416
420 430.691
425 688.154
430 180.945
435 22.413
440 3.93637
445 1.73464
450 1.67811
455 1.56021
460 1.50731
465 1.40462
470 1.55529
475 1.87921
480 3.1241
485 4.6182
490 3.62668
495 2.83003
500 2.54603
505 2.00947
510 1.86213
515 1.76205
520 1.75834
525 1.50753
530 1.42056
535 1.28771
540 1.28515
545 1.06594
550 1.00729
555 0.98509
560 0.86247
565 0.800615
570 0.622264
575 0.598814
580 0.455076
585 0.351342
590 0.363044
595 0.282359
600 0.172985
Ex : 433
200 0.0719211
205 0.0826733
210 0.0821144
215 0.0704398
220 0.102196
225 0.103049
230 0.0743247
235 0.072632
240 0.132577
245 0.0703945
250 0.108935
255 0.0685693
260 0.0764716
265 0.0828784
270 0.0972327
275 0.0571161
280 0.116517
285 0.0836798
290 0.125573
295 0.135281
300 0.140865
305 0.071046
310 0.0820949
315 0.090061
320 0.0828309
325 0.155472
330 0.134133
335 0.110579
340 0.100378
345 0.149429
350 0.132068
355 0.110813
360 0.160573
365 0.145341
370 0.118175
375 0.140028
380 0.143148
385 0.139931
390 0.187028
395 0.213825
400 0.209297
405 0.307893
410 0.465854
415 0.752715
420 27.456
425 464.076
430 707.639
435 177.088
440 21.7111
445 3.71529
450 1.51405
455 1.50538
460 1.69925
465 1.59476
470 1.29506
475 1.31915
480 1.74049
485 2.52552
490 4.09797
495 3.79892
500 2.73672
505 2.5435
510 1.96485
515 1.70505
520 1.56435
525 1.49041
530 1.36744
535 1.40888
540 1.35695
545 1.12269
550 0.982693
555 0.893901
560 0.88463
565 0.743622
570 0.684661
575 0.53702
580 0.416233
585 0.382673
590 0.318906
595 0.221996
600 0.117762
Ex : 438
200 0.0847471
205 0.0542394
210 0.0832855
215 0.0723049
220 0.0741353
225 0.0637362
230 0.0625564
235 0.168362
240 0.0793796
245 0.0974776
250 0.0863854
255 0.0842148
260 0.114748
265 0.099563
270 0.0896115
275 0.10787
280 0.108694
285 0.0954218
290 0.0955052
295 0.0768965
300 0.0806201
305 0.0659939
310 0.0647138
315 0.0740152
320 0.066097
325 0.0871393
330 0.126466
335 0.090667
340 0.161283
345 0.117063
350 0.105473
355 0.117138
360 0.140956
365 0.0935106
370 0.140828
375 0.125872
380 0.129254
385 0.127815
390 0.122124
395 0.147529
400 0.191801
405 0.256627
410 0.285997
415 0.446456
420 0.743667
425 26.0952
430 466.445
435 756.094
440 189.189
445 23.1577
450 4.02406
455 1.5922
460 1.46511
465 1.79678
470 1.69629
475 1.37475
480 1.34247
485 1.52957
490 1.94859
495 3.57144
500 3.66123
505 2.57844
510 2.27981
515 1.94123
520 1.48147
525 1.43455
530 1.34755
535 1.29509
540 1.20946
545 1.11801
550 0.964579
555 0.915361
560 0.831764
565 0.794558
570 0.65463
575 0.51742
580 0.468108
585 0.365271
590 0.355174
595 0.246247
600 0.028022
Ex : 443
200 0.108768
205 0.0958526
210 0.0714021
215 0.0616271
220 0.0894241
225 0.0886772
230 0.0586699
235 0.113968
240 0.0939784
245 0.075134
250 0.0804082
255 0.142688
260 0.0949872
265 0.0804309
270 0.0778348
275 0.1126
280 0.0978776
285 0.107547
290 0.151575
295 0.0717217
300 0.128085
305 0.0514091
310 0.0726742
315 0.123238
320 0.119023
325 0.136413
330 0.079964
335 0.0884452
340 0.100968
345 0.158171
350 0.0969637
355 0.155905
360 0.100921
365 0.13933
370 0.175992
375 0.179818
380 0.107866
385 0.127658
390 0.161385
395 0.1467
400 0.214637
405 0.174254
410 0.249311
415 0.324247
420 0.446829
425 0.745355
430 29.0932
435 489.609
440 759.597
445 189.745
450 23.3689
455 4.05302
460 1.61415
465 1.5495
470 1.6878
475 1.58828
480 1.34461
485 1.41532
490 1.39953
495 1.69308
500 3.03851
505 3.82121
510 2.76875
515 1.99185
520 1.90662
525 1.67994
530 1.45105
535 1.24895
540 0.995605
545 1.00343
550 0.953838
555 0.870149
560 0.773611
565 0.717207
570 0.610218
575 0.558608
580 0.376864
585 0.438782
590 0.304274
595 0.368587
600 0.434149
Ex : 448
200 0.0633397
205 0.102864
210 0.0849496
215 0.100386
220 0.102476
225 0.11399
230 0.0864875
235 0.0786623
240 0.0930283
245 0.073283
250 0.0878403
255 0.0957667
260 0.120679
265 0.0731483
270 0.103992
275 0.0914087
280 0.0989227
285 0.110458
290 0.0505066
295 0.0656088
300 0.0719353
305 0.10254
310 0.0635776
315 0.0732957
320 0.0915754
325 0.101658
330 0.100583
335 0.0761427
340 0.0984213
345 0.146465
350 0.107331
355 0.0827607
360 0.117804
365 0.0990121
370 0.113987
375 0.104496
380 0.129056
385 0.124467
390 0.156523
395 0.133403
400 0.140955
405 0.169319
410 0.188783
415 0.249697
420 0.240583
425 0.473648
430 0.803919
435 30.2667
440 531.395
445 819.992
450 205.606
455 25.1998
460 4.3515
465 1.6694
470 1.59
475 1.73553
480 1.59908
485 1.29741
490 1.30825
495 1.26918
500 1.44726
505 2.30865
510 3.35285
515 2.74466
520 1.99257
525 1.81654
530 1.69196
535 1.18329
540 1.02511
545 1.01072
550 0.988359
555 0.878792
560 0.832236
565 0.677023
570 0.72031
575 0.576642
580 0.386647
585 0.330041
590 0.302502
595 0.260693
600 0.305308
Ex : 453
200 0.101992
205 0.0975973
210 0.142963
215 0.0928764
220 0.0622251
225 0.0737512
230 0.0598461
235 0.121862
240 0.074646
245 0.0679748
250 0.0818142
255 0.0708315
260 0.107707
265 0.115698
270 0.0568445
275 0.0985764
280 0.082302
285 0.0739169
290 0.0746989
295 0.0767268
300 0.107221
305 0.100634
310 0.104881
315 0.089228
320 0.0724294
325 0.12556
330 0.0923675
335 0.134901
340 0.107604
345 0.102644
350 0.138521
355 0.115107
360 0.0748228
365 0.0884357
370 0.11179
375 0.108763
380 0.116025
385 0.104776
390 0.111957
395 0.116279
400 0.154329
405 0.157608
410 0.17977
415 0.250882
420 0.223747
425 0.29141
430 0.369788
435 0.758367
440 31.4093
445 563.165
450 833.312
455 197.026
460 24.2477
465 4.25399
470 1.62961
475 1.43231
480 1.54973
485 1.44393
490 1.32126
495 1.27848
500 1.20362
505 1.26187
510 1.76843
515 3.01356
520 2.99313
525 1.99813
530 1.7023
535 1.66608
540 1.32083
545 1.06125
550 0.920316
555 0.961646
560 0.857795
565 0.794146
570 0.646182
575 0.457754
580 0.414714
585 0.3461
590 0.330848
595 0.295077
600 0.168619
Ex : 458
200 0.0621601
205 0.0736785
210 0.0544092
215 0.102731
220 0.120429
225 0.0998208
230 0.0945102
235 0.0983086
240 0.0972163
245 0.148489
250 0.121099
255 0.0985895
260 0.0743313
265 0.0788978
270 0.13067
275 0.122393
280 0.100702
285 0.112455
290 0.0772871
295 0.0780016
300 0.0650763
305 0.107697
310 0.0805849
315 0.107883
320 0.103033
325 0.105302
330 0.161393
335 0.165975
340 0.10954
345 0.114947
350 0.124871
355 0.091499
360 0.0782576
365 0.147214
370 0.111266
375 0.138837
380 0.114621
385 0.153861
390 0.135085
395 0.0986229
400 0.145797
405 0.179305
410 0.17033
415 0.208402
420 0.180926
425 0.256868
430 0.313458
435 0.463581
440 0.936051
445 35.8537
450 589.633
455 882.02
460 214.491
465 26.4996
470 4.40036
475 1.62586
480 1.42831
485 1.59272
490 1.59781
495 1.33476
500 1.0854
505 1.18743
510 1.10946
515 1.40372
520 2.42852
525 3.1973
530 2.21745
535 1.70255
540 1.51326
545 1.28392
550 1.15923
555 0.938279
560 0.856584
565 0.778667
570 0.723326
575 0.535429
580 0.472527
585 0.349886
590 0.314926
595 0.320191
600 0.297939
Ex : 463
200 0.106335
205 0.104222
210 0.0783091
215 0.103578
220 0.0925507
225 0.0873289
230 0.0941385
235 0.135196
240 0.068331
245 0.0977975
250 0.113511
255 0.0704931
260 0.0953603
265 0.0978183
270 0.110453
275 0.0941948
280 0.0950731
285 0.16279
290 0.107808
295 0.0878755
300 0.089404
305 0.0692974
310 0.108846
315 0.0982425
320 0.0803401
325 0.0960897
330 0.113355
335 0.121224
340 0.115371
345 0.0948065
350 0.119693
355 0.0800471
360 0.136892
365 0.110046
370 0.0738968
375 0.123978
380 0.116766
385 0.131985
390 0.136983
395 0.0951358
400 0.153645
405 0.170811
410 0.139281
415 0.168543
420 0.19216
425 0.218091
430 0.199803
435 0.286164
440 0.49995
445 1.0057
450 34.249
455 619.591
460 960.044
465 234.416
470 28.716
475 4.60555
480 1.7762
485 1.35257
490 1.64138
495 1.5229
500 1.31384
505 1.11043
510 1.1095
515 1.21574
520 1.1257
525 2.05736
530 3.0175
535 2.50729
540 1.65353
545 1.4144
550 1.19419
555 0.944737
560 0.994296
565 0.822097
570 0.688576
575 0.550447
580 0.484527
585 0.35728
590 0.350103
595 0.258827
600 0.136872
Ex : 468
200 0.0932104
205 0.0545371
210 0.0534549
215 0.0614743
220 0.101774
225 0.0885775
230 0.0973707
235 0.0830259
240 0.0638036
245 0.0934902
250 0.0812481
255 0.0644053
260 0.0914133
265 0.0833025
270 0.0858864
275 0.0946567
280 0.0725863
285 0.107776
290 0.101263
295 0.0904386
300 0.0747187
305 0.0663086
310 0.0808599
315 0.109018
320 0.0777597
325 0.0824339
330 0.112256
335 0.076997
340 0.103977
345 0.115388
350 0.100898
355 0.10867
360 0.0966343
365 0.0877944
370 0.101117
375 0.106399
380 0.148237
385 0.0774075
390 0.101825
395 0.135765
400 0.100943
405 0.128973
410 0.117572
415 0.177236
420 0.153929
425 0.159982
430 0.237513
435 0.243752
440 0.299538
445 0.520608
450 0.935481
455 38.5531
460 631.742
465 1014.87
470 246.63
475 29.8856
480 4.83713
485 1.89544
490 1.40471
495 1.50378
500 1.37169
505 1.21574
510 1.01715
515 1.01352
520 1.16402
525 1.16415
530 1.56245
535 2.5691
540 2.72026
545 1.61908
550 1.27926
555 1.23166
560 1.07039
565 0.843105
570 0.653479
575 0.559273
580 0.552851
585 0.450384
590 0.352805
595 0.284907
600 0.136254
Ex : 473
200 0.108681
205 0.0802877
210 0.0771072
215 0.0968594
220 0.0807905
225 0.0632746
230 0.104379
235 0.051777
240 0.0867972
245 0.082683
250 0.0817684
255 0.117
260 0.148714
265 0.083313
270 0.0723995
275 0.100931
280 0.100672
285 0.07294
290 0.0973648
295 0.0464343
300 0.0944245
305 0.11328
310 0.0747562
315 0.104167
320 0.0837662
325 0.10538
330 0.106601
335 0.0746226
340 0.113174
345 0.101069
350 0.112059
355 0.141035
360 0.117314
365 0.10197
370 0.146386
375 0.121849
380 0.112313
385 0.0776249
390 0.113566
395 0.134496
400 0.120991
405 0.105438
410 0.163777
415 0.139878
420 0.15117
425 0.219153
430 0.187227
435 0.170171
440 0.300644
445 0.363813
450 0.550448
455 0.941845
460 44.9298
465 704.688
470 1000.96
475 233.118
480 28.3624
485 4.63979
490 1.6523
495 1.18704
500 1.36149
505 1.42552
510 1.28627
515 1.13314
520 1.00635
525 1.10395
530 1.0517
535 1.33106
540 2.19601
545 2.66474
550 1.7326
555 1.33708
560 1.3143
565 1.06086
570 0.743311
575 0.585486
580 0.59638
585 0.499171
590 0.361633
595 0.345085
600 0.318449
Ex : 478
200 0.0842412
205 0.0671127
210 0.0801867
215 0.0752407
220 0.116387
225 0.219035
230 0.121431
235 0.0978472
240 0.12403
245 0.0703798
250 0.117354
255 0.0940598
260 0.152019
265 0.107358
270 0.129081
275 0.103235
280 0.0730724
285 0.112793
290 0.115585
295 0.0995811
300 0.0728315
305 0.105395
310 0.145046
315 0.138456
320 0.149505
325 0.120191
330 0.159548
335 0.113821
340 0.101327
345 0.106832
350 0.0945739
355 0.127114
360 0.101319
365 0.149983
370 0.135655
375 0.175766
380 0.164276
385 0.119906
390 0.0814326
395 0.114241
400 0.106002
405 0.178436
410 0.159749
415 0.210304
420 0.151975
425 0.268695
430 0.212794
435 0.252103
440 0.29271
445 0.318801
450 0.439586
455 0.655683
460 1.24119
465 50.1695
470 735.028
475 1040.74
480 254.207
485 31.0036
490 5.05357
495 1.7037
500 1.13919
505 1.26709
510 1.27793
515 1.37201
520 1.21611
525 1.18163
530 1.26705
535 1.08203
540 1.10165
545 1.73346
550 2.44918
555 2.00485
560 1.27756
565 0.967339
570 1.08333
575 0.771506
580 0.483659
585 0.411398
590 0.363923
595 0.325176
600 0.0985457
Ex : 483
200 0.0909691
205 0.0763411
210 0.121953
215 0.0830341
220 0.100478
225 0.0966629
230 0.0884525
235 0.099549
240 0.0606399
245 0.100313
250 0.060955
255 0.117592
260 0.121963
265 0.100289
270 0.144247
275 0.0975456
280 0.101159
285 0.0958908
290 0.110607
295 0.101082
300 0.10688
305 0.11214
310 0.125501
315 0.0962225
320 0.0839087
325 0.117118
330 0.13333
335 0.0960802
340 0.123704
345 0.103073
350 0.100386
355 0.105259
360 0.113573
365 0.101315
370 0.126643
375 0.093684
380 0.146434
385 0.104038
390 0.14094
395 0.174607
400 0.152937
405 0.159125
410 0.131745
415 0.159546
420 0.151765
425 0.170443
430 0.190279
435 0.167132
440 0.196671
445 0.253318
450 0.372918
455 0.42949
460 0.729317
465 1.25267
470 40.1952
475 739.696
480 1145.42
485 274.971
490 33.2015
495 5.1361
500 1.57527
505 1.1386
510 1.15634
515 1.45916
520 1.36825
525 1.24139
530 1.08779
535 1.12825
540 1.16859
545 0.978601
550 1.18219
555 2.08036
560 2.24855
565 1.31142
570 0.967032
575 0.819896
580 0.495612
585 0.427227
590 0.408259
595 0.35808
600 0.29656
Ex : 488
200 0.0952294
205 0.117433
210 0.0728779
215 0.0868372
220 0.0994979
225 0.0898016
230 0.146943
235 0.118274
240 0.124418
245 0.0803125
250 0.096243
255 0.124114
260 0.0944275
265 0.0858793
270 0.0987192
275 0.084771
280 0.138852
285 0.157792
290 0.0736692
295 0.0810845
300 0.0782522
305 0.096067
310 0.0971393
315 0.121241
320 0.101571
325 0.0875772
330 0.0944054
335 0.160319
340 0.120545
345 0.120575
350 0.164674
355 0.0930465
360 0.0993147
365 0.116543
370 0.105908
375 0.112927
380 0.145324
385 0.130992
390 0.098612
395 0.150502
400 0.115367
405 0.137776
410 0.15564
415 0.148491
420 0.179284
425 0.201736
430 0.194821
435 0.207499
440 0.231432
445 0.244049
450 0.226242
455 0.330225
460 0.472298
465 0.781933
470 1.32968
475 49.7479
480 808.403
485 1147.76
490 271.365
495 32.7453
500 5.09266
505 1.61497
510 1.03623
515 1.16835
520 1.40088
525 1.42479
530 1.30633
535 1.2203
540 0.999974
545 0.994516
550 0.954541
555 0.904318
560 1.63204
565 2.09017
570 1.39937
575 0.898469
580 0.662667
585 0.533965
590 0.483596
595 0.335404
600 0.522488
Ex : 493
200 0.120184
205 0.146015
210 0.17031
215 0.114351
220 0.123516
225 0.127933
230 0.107399
235 0.11298
240 0.107259
245 0.128429
250 0.0945031
255 0.0657455
260 0.114407
265 0.116938
270 0.155586
275 0.0945746
280 0.0935858
285 0.108626
290 0.10736
295 0.109977
300 0.127796
305 0.0911262
310 0.194348
315 0.124373
320 0.0838231
325 0.0929983
330 0.107471
335 0.126209
340 0.115972
345 0.113789
350 0.1156
355 0.114587
360 0.162103
365 0.206069
370 0.104714
375 0.171371
380 0.1276
385 0.127875
390 0.147591
395 0.154294
400 0.23499
405 0.157256
410 0.14356
415 0.186189
420 0.155748
425 0.188302
430 0.214709
435 0.235663
440 0.233957
445 0.241132
450 0.273473
455 0.244163
460 0.406544
465 0.572697
470 0.787524
475 1.38562
480 47.2998
485 806.659
490 1210.19
495 281.54
500 33.7315
505 5.2207
510 1.7202
515 1.18876
520 1.2191
525 1.47852
530 1.37168
535 1.34744
540 1.14203
545 0.9558
550 0.861623
555 0.88238
560 0.920448
565 1.17463
570 1.70096
575 1.39175
580 0.825432
585 0.582843
590 0.498706
595 0.41865
600 0.451992
Ex : 498
200 0.0949555
205 0.141663
210 0.117335
215 0.118749
220 0.134902
225 0.121468
230 0.102309
235 0.140995
240 0.177326
245 0.187003
250 0.118859
255 0.138548
260 0.110991
265 0.145808
270 0.139021
275 0.186186
280 0.102211
285 0.151019
290 0.0911614
295 0.11713
300 0.110912
305 0.0707463
310 0.133563
315 0.12746
320 0.158644
325 0.14805
330 0.106843
335 0.150458
340 0.188865
345 0.144784
350 0.118097
355 0.149188
360 0.111813
365 0.137248
370 0.165939
375 0.112135
380 0.137234
385 0.110269
390 0.155206
395 0.11128
400 0.0985717
405 0.202743
410 0.163012
415 0.21578
420 0.15666
425 0.201263
430 0.256722
435 0.185551
440 0.164781
445 0.20506
450 0.33146
455 0.300149
460 0.363552
465 0.440911
470 0.483415
475 0.764276
480 1.2866
485 58.4875
490 883.878
495 1223.49
500 284.335
505 34.1395
510 5.20879
515 1.87464
520 1.29563
525 1.33061
530 1.41113
535 1.22157
540 1.15859
545 0.898116
550 0.973729
555 0.84558
560 0.78033
565 0.679482
570 0.818903
575 1.29591
580 1.33307
585 0.805412
590 0.653474
595 0.482343
600 0.0548888
Ex : 503
200 0.109238
205 0.116281
210 0.149269
215 0.131111
220 0.192932
225 0.0907654
230 0.156707
235 0.114041
240 0.118249
245 0.207835
250 0.179013
255 0.237286
260 0.136299
265 0.144455
270 0.121079
275 0.205987
280 0.171638
285 0.095307
290 0.109573
295 0.0658615
300 0.13118
305 0.0791373
310 0.103859
315 0.149387
320 0.123529
325 0.207337
330 0.119441
335 0.189005
340 0.238817
345 0.159811
350 0.112463
355 0.120097
360 0.114875
365 0.200853
370 0.0733082
375 0.112984
380 0.0972129
385 0.207167
390 0.136076
395 0.112974
400 0.162622
405 0.17588
410 0.199591
415 0.133383
420 0.22215
425 0.137861
430 0.182224
435 0.216027
440 0.225456
445 0.231069
450 0.189341
455 0.192588
460 0.319533
465 0.332975
470 0.43261
475 0.533159
480 0.903087
485 1.65719
490 53.201
495 881.517
500 1258.76
505 290.749
510 34.9579
515 5.41376
520 1.88378
525 1.30471
530 1.21388
535 1.29044
540 1.28341
545 0.991637
550 1.00561
555 0.796858
560 0.875254
565 0.912976
570 0.700457
575 0.648466
580 0.876151
585 1.10132
590 0.776205
595 0.473024
600 0.354367
Ex : 508
200 0.210332
205 0.12804
210 0.0918382
215 0.143236
220 0.0907796
225 0.113454
230 0.11262
235 0.157963
240 0.166063
245 0.129177
250 0.0718649
255 0.112146
260 0.151116
265 0.174216
270 0.162142
275 0.121778
280 0.0680478
285 0.122412
290 0.0980639
295 0.112418
300 0.0967653
305 0.104117
310 0.153151
315 0.155694
320 0.161051
325 0.110577
330 0.108357
335 0.125004
340 0.124216
345 0.156403
350 0.196184
355 0.129441
360 0.166667
365 0.195454
370 0.148177
375 0.138294
380 0.160264
385 0.135314
390 0.149239
395 0.161499
400 0.195541
405 0.174815
410 0.219854
415 0.217667
420 0.262893
425 0.138786
430 0.295709
435 0.183726
440 0.166993
445 0.269084
450 0.195358
455 0.21453
460 0.236289
465 0.316991
470 0.345389
475 0.373405
480 0.583007
485 0.815656
490 1.17446
495 57.3507
500 892.063
505 1268.19
510 305.553
515 36.8428
520 5.60768
525 2.00055
530 1.44981
535 1.27858
540 1.31187
545 1.31978
550 1.04509
555 0.924224
560 0.78374
565 0.74587
570 0.694275
575 0.629184
580 0.561506
585 0.533047
590 0.846548
595 0.900349
600 0.203161
Ex : 513
200 0.153217
205 0.198228
210 0.0860926
215 0.228294
220 0.0962396
225 0.132892
230 0.142489
235 0.144621
240 0.239744
245 0.159011
250 0.11939
255 0.183559
260 0.10626
265 0.178965
270 0.143811
275 0.191244
280 0.117641
285 0.15874
290 0.235259
295 0.168072
300 0.126761
305 0.10207
310 0.119779
315 0.0750846
320 0.134975
325 0.158783
330 0.124707
335 0.132032
340 0.166518
345 0.106055
350 0.131679
355 0.114026
360 0.193785
365 0.170083
370 0.114865
375 0.106565
380 0.142676
385 0.183412
390 0.198271
395 0.197679
400 0.19069
405 0.238226
410 0.182125
415 0.188436
420 0.114044
425 0.142952
430 0.132523
435 0.2083
440 0.159197
445 0.235971
450 0.202348
455 0.181735
460 0.241115
465 0.291643
470 0.259375
475 0.353662
480 0.369785
485 0.61114
490 0.878303
495 1.27668
500 52.8729
505 879.749
510 1306.92
515 321.514
520 38.6309
525 5.8954
530 2.0524
535 1.28169
540 1.1897
545 1.17132
550 1.0444
555 0.8898
560 0.870914
565 0.692723
570 0.606117
575 0.68887
580 0.537797
585 0.579773
590 0.434864
595 0.639
600 1.42664
Ex : 518
200 0.0727375
205 0.123896
210 0.133928
215 0.120968
220 0.121624
225 0.124933
230 0.131228
235 0.129956
240 0.158726
245 0.157621
250 0.156225
255 0.159126
260 0.180974
265 0.116174
270 0.0968856
275 0.138232
280 0.141952
285 0.0978342
290 0.173714
295 0.12185
300 0.137023
305 0.114071
310 0.137229
315 0.178625
320 0.108336
325 0.0794418
330 0.113125
335 0.135909
340 0.167439
345 0.156418
350 0.152944
355 0.179676
360 0.174081
365 0.114115
370 0.175785
375 0.105404
380 0.145397
385 0.0897915
390 0.141636
395 0.128342
400 0.127298
405 0.26023
410 0.149423
415 0.135563
420 0.137802
425 0.166587
430 0.20349
435 0.187462
440 0.180249
445 0.15442
450 0.225845
455 0.191188
460 0.176868
465 0.280161
470 0.23051
475 0.271105
480 0.299196
485 0.372294
490 0.54466
495 0.891152
500 1.40582
505 54.8077
510 871.727
515 1300.24
520 325.843
525 39.2196
530 5.95068
535 1.90794
540 1.18973
545 0.987709
550 1.13437
555 1.0897
560 0.997527
565 0.823189
570 0.662359
575 0.630117
580 0.449708
585 0.417817
590 0.307467
595 0.409281
600 0.204825
Ex : 523
200 0.180197
205 0.191357
210 0.203477
215 0.146025
220 0.137821
225 0.128084
230 0.112164
235 0.173127
240 0.154137
245 0.116847
250 0.129469
255 0.0861199
260 0.178391
265 0.11054
270 0.161931
275 0.176888
280 0.140582
285 0.0950389
290 0.0990882
295 0.136859
300 0.189228
305 0.160839
310 0.130219
315 0.0874218
320 0.142753
325 0.156927
330 0.15224
335 0.221404
340 0.125957
345 0.114743
350 0.12629
355 0.117865
360 0.142952
365 0.158439
370 0.119373
375 0.175903
380 0.214437
385 0.215176
390 0.139283
395 0.168181
400 0.153717
405 0.177001
410 0.170943
415 0.154519
420 0.217538
425 0.178574
430 0.205478
435 0.221914
440 0.178011
445 0.226799
450 0.225186
455 0.139467
460 0.246298
465 0.285238
470 0.252701
475 0.222242
480 0.293303
485 0.335937
490 0.405265
495 0.469055
500 0.76364
505 1.33797
510 49.0182
515 842.851
520 1301.81
525 335.479
530 40.3065
535 6.03493
540 1.89607
545 1.07843
550 0.816418
555 0.887498
560 1.03421
565 0.934082
570 0.778778
575 0.702557
580 0.436784
585 0.482987
590 0.417242
595 0.455273
600 0.5975
Ex : 528
200 0.0846452
205 0.0882708
210 0.0959706
215 0.134089
220 0.134713
225 0.155468
230 0.105132
235 0.18387
240 0.198403
245 0.111782
250 0.227053
255 0.139565
260 0.118165
265 0.0848834
270 0.14662
275 0.274533
280 0.227729
285 0.179666
290 0.126566
295 0.120648
300 0.10382
305 0.129881
310 0.132267
315 0.168306
320 0.130265
325 0.124099
330 0.190885
335 0.120129
340 0.219789
345 0.292516
350 0.143482
355 0.158353
360 0.215398
365 0.318972
370 0.120817
375 0.190189
380 0.138353
385 0.162724
390 0.167608
395 0.14422
400 0.1731
405 0.203788
410 0.188065
415 0.193029
420 0.165943
425 0.2113
430 0.149039
435 0.152892
440 0.181405
445 0.189856
450 0.229419
455 0.200625
460 0.327375
465 0.223451
470 0.312957
475 0.299724
480 0.359915
485 0.299527
490 0.380611
495 0.4856
500 0.547054
505 0.852219
510 1.3715
515 46.9013
520 845.166
525 1299.16
530 329.611
535 39.8735
540 5.75512
545 1.70033
550 1.16724
555 0.835847
560 0.752146
565 0.892088
570 0.787203
575 0.617564
580 0.623735
585 0.435447
590 0.472072
595 0.435906
600 0.593922
Ex : 533
200 0.117948
205 0.129706
210 0.170266
215 0.114139
220 0.148333
225 0.131322
230 0.172962
235 0.133121
240 0.190607
245 0.122745
250 0.17035
255 0.127551
260 0.114817
265 0.121131
270 0.119603
275 0.168954
280 0.143791
285 0.140601
290 0.165335
295 0.147963
300 0.166809
305 0.176676
310 0.144296
315 0.135156
320 0.234087
325 0.140263
330 0.185569
335 0.215601
340 0.17441
345 0.218109
350 0.17474
355 0.240684
360 0.174361
365 0.121336
370 0.160988
375 0.214237
380 0.172729
385 0.21715
390 0.18867
395 0.159373
400 0.142109
405 0.161094
410 0.190739
415 0.212027
420 0.198068
425 0.12957
430 0.234842
435 0.196304
440 0.243417
445 0.290102
450 0.214695
455 0.260361
460 0.243627
465 0.295493
470 0.258883
475 0.212136
480 0.23241
485 0.382928
490 0.291557
495 0.321278
500 0.417269
505 0.686274
510 0.770706
515 1.31125
520 48.2914
525 820.236
530 1292.07
535 332.956
540 39.9559
545 5.79181
550 1.59604
555 0.908767
560 0.765457
565 0.530152
570 0.803927
575 0.642069
580 0.50187
585 0.550469
590 0.454003
595 0.41762
600 1.11468
Ex : 538
200 0.098713
205 0.118155
210 0.206995
215 0.0875793
220 0.107874
225 0.158041
230 0.125552
235 0.144493
240 0.134603
245 0.157735
250 0.147769
255 0.20484
260 0.237976
265 0.164667
270 0.140424
275 0.111408
280 0.178417
285 0.1538
290 0.126684
295 0.15915
300 0.112053
305 0.166655
310 0.143095
315 0.229171
320 0.284393
325 0.139241
330 0.127141
335 0.17732
340 0.138669
345 0.178316
350 0.188113
355 0.130188
360 0.217806
365 0.184598
370 0.199582
375 0.168974
380 0.201756
385 0.150244
390 0.20157
395 0.114674
400 0.179026
405 0.165657
410 0.133226
415 0.162766
420 0.186609
425 0.107956
430 0.182629
435 0.189131
440 0.257138
445 0.178282
450 0.236323
455 0.223316
460 0.239134
465 0.217564
470 0.181315
475 0.243531
480 0.29543
485 0.243569
490 0.263794
495 0.356611
500 0.29096
505 0.323869
510 0.497461
515 0.698535
520 1.30865
525 40.1144
530 768.19
535 1275.33
540 347.064
545 41.6368
550 5.78235
555 1.46866
560 0.949761
565 0.783825
570 0.696725
575 0.507858
580 0.595861
585 0.400506
590 0.487359
595 0.332111
600 0.0763236
Ex : 543
200 0.189942
205 0.159513
210 0.126986
215 0.108492
220 0.125758
225 0.187083
230 0.144248
235 0.248541
240 0.156901
245 0.182271
250 0.154429
255 0.183119
260 0.188899
265 0.179976
270 0.154885
275 0.187841
280 0.165581
285 0.240041
290 0.171283
295 0.243318
300 0.167727
305 0.142909
310 0.180077
315 0.128735
320 0.0987694
325 0.143553
330 0.135028
335 0.134447
340 0.118912
345 0.169099
350 0.119798
355 0.184898
360 0.240908
365 0.269246
370 0.138086
375 0.0864026
380 0.116374
385 0.128462
390 0.194656
395 0.169046
400 0.113556
405 0.147919
410 0.150351
415 0.163677
420 0.282792
425 0.106814
430 0.194061
435 0.163659
440 0.18643
445 0.285437
450 0.192279
455 0.176398
460 0.217728
465 0.194893
470 0.226006
475 0.181697
480 0.367426
485 0.295434
490 0.302287
495 0.310014
500 0.283547
505 0.358298
510 0.451024
515 0.458414
520 0.788098
525 1.31619
530 36.97
535 754.348
540 1283.77
545 353.448
550 42.6701
555 5.96746
560 1.46629
565 0.813883
570 0.598365
575 0.475705
580 0.56444
585 0.449671
590 0.361913
595 0.377864
600 0.0429995
Ex : 548
200 0.110254
205 0.180753
210 0.143522
215 0.171542
220 0.140268
225 0.138368
230 0.139464
235 0.133805
240 0.095151
245 0.139802
250 0.120644
255 0.195703
260 0.134985
265 0.120284
270 0.138243
275 0.157433
280 0.150991
285 0.259667
290 0.203894
295 0.239199
300 0.140241
305 0.140086
310 0.126264
315 0.216818
320 0.141027
325 0.209424
330 0.145324
335 0.156815
340 0.197046
345 0.205087
350 0.155205
355 0.216991
360 0.129428
365 0.188506
370 0.15644
375 0.213677
380 0.190464
385 0.139964
390 0.202943
395 0.252239
400 0.228441
405 0.176497
410 0.138116
415 0.16241
420 0.221004
425 0.235174
430 0.249042
435 0.238037
440 0.185834
445 0.222283
450 0.268666
455 0.291257
460 0.25781
465 0.217863
470 0.201333
475 0.232553
480 0.247076
485 0.299319
490 0.23921
495 0.300439
500 0.2781
505 0.389307
510 0.278878
515 0.357558
520 0.505424
525 0.843896
530 1.31468
535 41.8799
540 755.478
545 1256.37
550 347.604
555 41.5458
560 5.67714
565 1.32755
570 0.830638
575 0.485023
580 0.488868
585 0.411223
590 0.443357
595 0.412295
600 0.30875
Ex : 553
200 0.133278
205 0.185323
210 0.169287
215 0.18864
220 0.252547
225 0.174449
230 0.174374
235 0.230053
240 0.214884
245 0.204264
250 0.190537
255 0.179205
260 0.145286
265 0.129282
270 0.214581
275 0.173803
280 0.163712
285 0.111672
290 0.113836
295 0.0862444
300 0.20964
305 0.0829862
310 0.109942
315 0.116937
320 0.16858
325 0.123809
330 0.119757
335 0.112926
340 0.13872
345 0.241132
350 0.183513
355 0.148895
360 0.126849
365 0.177618
370 0.253273
375 0.153946
380 0.208607
385 0.18853
390 0.179067
395 0.235846
400 0.167383
405 0.136202
410 0.194157
415 0.174824
420 0.296997
425 0.130708
430 0.185588
435 0.181636
440 0.161954
445 0.203394
450 0.201732
455 0.26965
460 0.188453
465 0.278437
470 0.196586
475 0.286712
480 0.283076
485 0.175902
490 0.252862
495 0.33456
500 0.221958
505 0.335709
510 0.363648
515 0.319455
520 0.455073
525 0.675175
530 0.696722
535 1.06626
540 35.0465
545 711.274
550 1227.61
555 348.89
560 41.8075
565 5.73807
570 1.24357
575 0.777111
580 0.528862
585 0.3626
590 0.415675
595 0.457967
600 0.684377
Ex : 558
200 0.168031
205 0.107987
210 0.113929
215 0.11477
220 0.140391
225 0.144111
230 0.14376
235 0.128897
240 0.191089
245 0.16527
250 0.155107
255 0.213841
260 0.102893
265 0.167111
270 0.238774
275 0.15293
280 0.164975
285 0.203421
290 0.224482
295 0.154749
300 0.215172
305 0.124765
310 0.121079
315 0.133591
320 0.147787
325 0.121727
330 0.151478
335 0.239077
340 0.208423
345 0.203872
350 0.169899
355 0.126285
360 0.142438
365 0.190468
370 0.14106
375 0.152657
380 0.188418
385 0.125089
390 0.155233
395 0.172283
400 0.152356
405 0.257461
410 0.183063
415 0.189888
420 0.16658
425 0.167277
430 0.232764
435 0.227571
440 0.293222
445 0.246221
450 0.228345
455 0.35622
460 0.291884
465 0.290882
470 0.274232
475 0.192346
480 0.236025
485 0.221351
490 0.215971
495 0.312779
500 0.234799
505 0.224915
510 0.321895
515 0.274546
520 0.286404
525 0.466331
530 0.526739
535 0.775582
540 1.07105
545 32.2958
550 670.647
555 1205.05
560 342.806
565 41.0473
570 5.6141
575 1.26063
580 0.650629
585 0.414699
590 0.37599
595 0.48006
600 0.054629
Ex : 563
200 0.194248
205 0.161885
210 0.167204
215 0.161011
220 0.233252
225 0.201167
230 0.117747
235 0.145984
240 0.140644
245 0.198845
250 0.146015
255 0.186769
260 0.0850188
265 0.128435
270 0.129989
275 0.166785
280 0.110154
285 0.18564
290 0.12547
295 0.161228
300 0.155811
305 0.103266
310 0.158725
315 0.144986
320 0.116276
325 0.10822
330 0.151157
335 0.249863
340 0.166485
345 0.0836926
350 0.199888
355 0.143532
360 0.140373
365 0.184239
370 0.139384
375 0.171273
380 0.180594
385 0.208417
390 0.231299
395 0.21765
400 0.187053
405 0.171643
410 0.153951
415 0.229187
420 0.171137
425 0.238969
430 0.25701
435 0.20048
440 0.215253
445 0.250864
450 0.235064
455 0.172483
460 0.25107
465 0.238991
470 0.265483
475 0.242037
480 0.185978
485 0.178423
490 0.20734
495 0.345101
500 0.305146
505 0.226443
510 0.239661
515 0.191745
520 0.343496
525 0.341128
530 0.453618
535 0.43539
540 0.756581
545 1.14444
550 32.0132
555 654.557
560 1172.48
565 337.983
570 40.2581
575 5.21039
580 1.14546
585 0.565115
590 0.348775
595 0.310514
600 0.453668
Ex : 568
200 0.258025
205 0.179112
210 0.19262
215 0.108564
220 0.154899
225 0.16847
230 0.240066
235 0.181341
240 0.215786
245 0.230783
250 0.0987761
255 0.230031
260 0.168884
265 0.175189
270 0.168387
275 0.21875
280 0.178765
285 0.214935
290 0.183616
295 0.113905
300 0.192908
305 0.213001
310 0.160337
315 0.21635
320 0.128428
325 0.150126
330 0.211936
335 0.235781
340 0.132435
345 0.266611
350 0.128441
355 0.234805
360 0.192986
365 0.174575
370 0.181119
375 0.21487
380 0.170705
385 0.245932
390 0.180264
395 0.188088
400 0.143582
405 0.200811
410 0.185213
415 0.223263
420 0.184374
425 0.146759
430 0.135496
435 0.205964
440 0.203305
445 0.14156
450 0.194694
455 0.226928
460 0.214819
465 0.245894
470 0.20017
475 0.339943
480 0.234828
485 0.230771
490 0.269687
495 0.200631
500 0.284763
505 0.256722
510 0.230989
515 0.262634
520 0.263543
525 0.34372
530 0.404329
535 0.388891
540 0.463373
545 0.6639
550 0.993189
555 24.2768
560 590.343
565 1124.62
570 339.259
575 40.7946
580 5.20767
585 1.06921
590 0.62109
595 0.387218
600 0.387111
Ex : 573
200 0.116356
205 0.156968
210 0.0963495
215 0.196633
220 0.136985
225 0.117864
230 0.182516
235 0.131071
240 0.108937
245 0.160027
250 0.169353
255 0.156162
260 0.147442
265 0.140382
270 0.191199
275 0.309244
280 0.192495
285 0.128756
290 0.137163
295 0.177532
300 0.106672
305 0.134456
310 0.133386
315 0.128329
320 0.193944
325 0.152979
330 0.205776
335 0.156389
340 0.178643
345 0.165574
350 0.227294
355 0.265593
360 0.136404
365 0.295406
370 0.225725
375 0.343412
380 0.173045
385 0.189655
390 0.191434
395 0.115076
400 0.229595
405 0.165087
410 0.220145
415 0.230079
420 0.20317
425 0.201228
430 0.16349
435 0.216399
440 0.241692
445 0.152402
450 0.129172
455 0.225132
460 0.280352
465 0.181204
470 0.155978
475 0.16937
480 0.152197
485 0.224336
490 0.193619
495 0.178332
500 0.274293
505 0.261268
510 0.32226
515 0.271758
520 0.214463
525 0.253901
530 0.305849
535 0.347078
540 0.438781
545 0.421738
550 0.682732
555 0.9892
560 20.5702
565 515.907
570 1056.97
575 327.409
580 39.0529
585 4.94248
590 0.935752
595 0.52195
600 0.323496
Ex : 578
200 0.185341
205 0.171499
210 0.208602
215 0.256965
220 0.248079
225 0.151483
230 0.250603
235 0.210244
240 0.133729
245 0.184975
250 0.149034
255 0.149912
260 0.13917
265 0.228993
270 0.249089
275 0.179698
280 0.120976
285 0.297982
290 0.210572
295 0.145289
300 0.162291
305 0.148008
310 0.138288
315 0.141924
320 0.184779
325 0.283895
330 0.208324
335 0.177766
340 0.207035
345 0.118773
350 0.220138
355 0.194457
360 0.259383
365 0.183917
370 0.128703
375 0.222418
380 0.199095
385 0.207029
390 0.29794
395 0.266375
400 0.221031
405 0.141428
410 0.204207
415 0.183512
420 0.168343
425 0.127061
430 0.209497
435 0.225743
440 0.169273
445 0.296536
450 0.209071
455 0.248343
460 0.133737
465 0.203853
470 0.19767
475 0.24911
480 0.171787
485 0.214325
490 0.174262
495 0.27504
500 0.31028
505 0.231824
510 0.303122
515 0.256442
520 0.293742
525 0.227917
530 0.254084
535 0.343841
540 0.370439
545 0.421585
550 0.54336
555 0.555772
560 0.976805
565 18.3144
570 462.492
575 916.967
580 277.224
585 33.0336
590 4.26236
595 0.97407
600 0.43255
Ex : 583
200 0.201993
205 0.385247
210 0.186387
215 0.193417
220 0.210466
225 0.121593
230 0.165817
235 0.19617
240 0.224672
245 0.167561
250 0.269497
255 0.158817
260 0.216748
265 0.169072
270 0.193791
275 0.223132
280 0.26359
285 0.104042
290 0.143635
295 0.272599
300 0.228749
305 0.158176
310 0.213843
315 0.282441
320 0.156197
325 0.202196
330 0.246734
335 0.149376
340 0.151559
345 0.199644
350 0.159926
355 0.156454
360 0.200936
365 0.157961
370 0.174748
375 0.233085
380 0.141411
385 0.178367
390 0.196501
395 0.198653
400 0.152602
405 0.313164
410 0.211571
415 0.258855
420 0.186629
425 0.238829
430 0.240656
435 0.212888
440 0.160817
445 0.281229
450 0.199807
455 0.238349
460 0.148872
465 0.2194
470 0.200756
475 0.219862
480 0.262083
485 0.172746
490 0.295798
495 0.278607
500 0.265057
505 0.285201
510 0.301892
515 0.238749
520 0.347067
525 0.306275
530 0.256927
535 0.242271
540 0.216288
545 0.316752
550 0.469886
555 0.439788
560 0.616908
565 0.797905
570 15.8748
575 412.789
580 791.751
585 234.957
590 28.2382
595 3.72334
600 0.423702
Ex : 588
200 0.124957
205 0.199654
210 0.16181
215 0.198749
220 0.213437
225 0.337774
230 0.253921
235 0.17043
240 0.16276
245 0.145298
250 0.148781
255 0.129955
260 0.127778
265 0.253634
270 0.186553
275 0.232003
280 0.177783
285 0.143068
290 0.20399
295 0.173599
300 0.30962
305 0.201003
310 0.219435
315 0.227112
320 0.305036
325 0.177369
330 0.240572
335 0.169083
340 0.250751
345 0.181978
350 0.159947
355 0.221774
360 0.219186
365 0.250547
370 0.249908
375 0.231698
380 0.176313
385 0.207462
390 0.177958
395 0.210042
400 0.170602
405 0.112586
410 0.113151
415 0.173141
420 0.17611
425 0.182091
430 0.203594
435 0.192194
440 0.221991
445 0.150351
450 0.29006
455 0.239134
460 0.143205
465 0.170272
470 0.202061
475 0.156563
480 0.220067
485 0.217436
490 0.272486
495 0.218758
500 0.311413
505 0.221594
510 0.149374
515 0.281049
520 0.261978
525 0.22942
530 0.264032
535 0.291162
540 0.343658
545 0.281455
550 0.259988
555 0.416081
560 0.426277
565 0.532296
570 0.709239
575 13.8383
580 340.57
585 662.729
590 202.349
595 24.1527
600 3.08789
Ex : 593
200 0.155058
205 0.160333
210 0.195198
215 0.146505
220 0.207848
225 0.194654
230 0.141075
235 0.113578
240 0.158099
245 0.196541
250 0.400952
255 0.17681
260 0.207414
265 0.300702
270 0.192327
275 0.164534
280 0.180332
285 0.173795
290 0.19721
295 0.198054
300 0.174335
305 0.183463
310 0.222324
315 0.11724
320 0.124337
325 0.21489
330 0.181194
335 0.155208
340 0.124347
345 0.251924
350 0.231114
355 0.210633
360 0.184879
365 0.172353
370 0.170134
375 0.174194
380 0.403432
385 0.202808
390 0.173345
395 0.149344
400 0.288458
405 0.209262
410 0.226841
415 0.135222
420 0.167961
425 0.149154
430 0.248584
435 0.160092
440 0.231771
445 0.28754
450 0.210344
455 0.210371
460 0.179971
465 0.154042
470 0.233782
475 0.231815
480 0.287506
485 0.238209
490 0.249621
495 0.257949
500 0.294848
505 0.232761
510 0.383244
515 0.197518
520 0.272485
525 0.291862
530 0.268941
535 0.325261
540 0.216208
545 0.293063
550 0.207779
555 0.256998
560 0.293119
565 0.451268
570 0.535388
575 0.569902
580 11.9856
585 300.606
590 562.581
595 176.992
600 26.027
Ex : 598
200 0.101869
205 0.126179
210 0.267249
215 0.191585
220 0.177455
225 0.253688
230 0.133396
235 0.248117
240 0.154596
245 0.20381
250 0.179829
255 0.106317
260 0.159744
265 0.151645
270 0.15714
275 0.308709
280 0.244773
285 0.138588
290 0.183916
295 0.156019
300 0.236293
305 0.151804
310 0.157905
315 0.215034
320 0.289411
325 0.179629
330 0.147549
335 0.123879
340 0.178215
345 0.24066
350 0.176619
355 0.204626
360 0.186058
365 0.175193
370 0.244428
375 0.259252
380 0.166268
385 0.197843
390 0.1116
395 0.251608
400 0.209675
405 0.192981
410 0.195937
415 0.254354
420 0.167764
425 0.196163
430 0.206495
435 0.221668
440 0.196306
445 0.239153
450 0.209121
455 0.220433
460 0.225032
465 0.170076
470 0.238633
475 0.214708
480 0.215824
485 0.220803
490 0.28821
495 0.242683
500 0.246702
505 0.199819
510 0.183288
515 0.305697
520 0.250775
525 0.228648
530 0.210412
535 0.154303
540 0.28962
545 0.265294
550 0.245784
555 0.279164
560 0.239422
565 0.278099
570 0.389906
575 0.438032
580 0.558379
585 11.1525
590 270.781
595 499.52
600 325.431
Ex : 603
200 0.208284
205 0.148248
210 0.175214
215 0.230599
220 0.159633
225 0.120851
230 0.148897
235 0.235256
240 0.170541
245 0.212
250 0.120146
255 0.365537
260 0.24479
265 0.344607
270 0.195778
275 0.171314
280 0.204193
285 0.18844
290 0.155237
295 0.210554
300 0.157221
305 0.156169
310 0.117574
315 0.101442
320 0.154587
325 0.181123
330 0.144402
335 0.176142
340 0.2253
345 0.178462
350 0.160457
355 0.26662
360 0.184425
365 0.121945
370 0.180706
375 0.244211
380 0.159132
385 0.148217
390 0.175261
395 0.288686
400 0.17057
405 0.184875
410 0.276839
415 0.307494
420 0.220716
425 0.141437
430 0.229064
435 0.392544
440 0.203409
445 0.186948
450 0.2111
455 0.165571
460 0.273786
465 0.233837
470 0.124707
475 0.276931
480 0.310843
485 0.225261
490 0.269691
495 0.216873
500 0.205487
505 0.218077
510 0.346296
515 0.180239
520 0.205544
525 0.174927
530 0.238782
535 0.264875
540 0.272534
545 0.382319
550 0.350887
555 0.29166
560 0.231484
565 0.274094
570 0.323621
575 0.377755
580 0.472329
585 0.562267
590 10.0907
595 234.745
600 471.873
