File format V 1.0
jeu. 5. janv. 17:19:20 2017
Operator : 
Comments : 

=============================================
SpectroFluorometer parameters
Mode : 3D measurement
Data : Fluorescence
Phospho. : Ordinary
Spectrum : Fluorescence

Scan speed : 2400 nm/mn
Response : 100 ms
PM Voltage : 700 V
Shutter : On

Lambda Ex. Start : 203
Lambda Ex. End : 603
Lambda Ex. Step : 5
Ex. Slit : 5 nm

Lambda Em. Start : 200
Lambda Em. End : 600
Lambda Em. Step : 5
Em. Slit : 5 nm

Repetition : 1
Decal lambda em : 10
=============================================
DATA
Ex : 203
200 6.4759
205 3.10368
210 6.69171
215 3.4201
220 4.50408
225 5.04661
230 4.14596
235 4.62759
240 2.42011
245 5.89382
250 7.04028
255 8.92561
260 5.07008
265 4.61716
270 4.91156
275 5.87614
280 4.08543
285 11.4201
290 6.28518
295 3.4364
300 3.23244
305 3.83836
310 5.95341
315 5.42649
320 6.07632
325 5.82496
330 5.82369
335 5.37035
340 4.25506
345 3.59473
350 5.14296
355 4.03339
360 3.73896
365 4.63495
370 6.59153
375 4.43483
380 2.26096
385 4.40815
390 4.0733
395 3.96981
400 5.92963
405 6.12089
410 6.00829
415 3.67656
420 3.50698
425 7.04561
430 7.16632
435 5.65293
440 3.48738
445 4.51017
450 4.06353
455 4.79321
460 4.84664
465 2.91834
470 3.17701
475 4.05493
480 4.20011
485 6.3758
490 3.81366
495 5.0699
500 6.1481
505 2.73614
510 4.94611
515 4.31426
520 3.96191
525 3.56583
530 6.30823
535 4.97267
540 3.3423
545 5.27087
550 3.71463
555 3.77577
560 3.30695
565 2.99756
570 4.2769
575 4.48492
580 5.11202
585 2.31539
590 3.49049
595 4.44487
600 1.39201
Ex : 208
200 4.75
205 4.77399
210 3.78213
215 3.49231
220 3.54772
225 3.08839
230 3.85095
235 3.93224
240 5.83129
245 3.44647
250 5.83127
255 4.69897
260 5.3979
265 3.06341
270 6.03073
275 3.64952
280 5.42868
285 5.76759
290 4.62209
295 5.09096
300 4.43537
305 6.35476
310 4.64552
315 2.82842
320 5.57726
325 4.50443
330 4.44033
335 3.13705
340 3.39463
345 5.5116
350 2.81939
355 3.32955
360 5.66267
365 5.104
370 5.69505
375 3.71196
380 3.13836
385 3.03166
390 3.6499
395 4.57066
400 4.32364
405 3.71171
410 6.08613
415 4.46676
420 6.03046
425 3.15608
430 4.56588
435 5.19367
440 5.07813
445 8.00113
450 4.10637
455 4.53086
460 4.61713
465 4.32018
470 4.53002
475 3.61187
480 5.48358
485 3.31049
490 2.64325
495 4.13362
500 5.83192
505 6.22704
510 5.88169
515 4.18727
520 4.0052
525 3.65566
530 6.66487
535 7.32464
540 4.66171
545 2.37799
550 2.88029
555 4.42095
560 2.44136
565 5.33083
570 3.22449
575 4.0067
580 3.40079
585 5.89687
590 6.21242
595 4.53662
600 0.51625
Ex : 213
200 3.43195
205 5.08849
210 3.95936
215 4.78311
220 4.70845
225 5.57129
230 4.59521
235 2.58596
240 4.03362
245 5.61007
250 4.24767
255 9.6631
260 4.83074
265 4.52721
270 4.35021
275 4.80177
280 3.22564
285 5.94054
290 3.8165
295 4.57993
300 5.25619
305 2.72502
310 3.77672
315 4.78653
320 5.02556
325 3.32545
330 4.31202
335 4.75051
340 5.00659
345 4.28672
350 5.21063
355 5.03925
360 4.58872
365 4.82078
370 4.52835
375 6.86556
380 4.53254
385 4.89933
390 5.74815
395 4.75281
400 10.4021
405 3.63705
410 4.85551
415 6.69088
420 5.0283
425 5.91848
430 4.91277
435 6.77776
440 6.23621
445 3.62589
450 3.57063
455 4.4953
460 5.96119
465 3.56673
470 2.36291
475 2.1126
480 3.57702
485 4.66083
490 5.87398
495 5.0083
500 2.80357
505 4.20552
510 6.0408
515 3.79648
520 3.70991
525 4.82497
530 4.51158
535 3.66915
540 4.47759
545 3.88581
550 4.1275
555 4.56702
560 2.90929
565 5.25382
570 2.9136
575 3.50406
580 3.01953
585 5.42792
590 3.38977
595 2.16889
600 31.8547
Ex : 218
200 3.85393
205 3.48689
210 2.8909
215 3.98091
220 1.88613
225 2.9089
230 4.90303
235 3.16503
240 4.38132
245 3.16774
250 2.63471
255 6.20237
260 4.37863
265 5.40057
270 6.05764
275 5.59952
280 4.30481
285 5.95989
290 4.40027
295 4.70653
300 4.15559
305 1.93616
310 2.7203
315 2.72552
320 5.11264
325 3.64817
330 3.33224
335 3.32178
340 2.50089
345 2.91872
350 4.95953
355 3.69674
360 3.40351
365 4.06013
370 4.61953
375 4.47875
380 3.78862
385 5.78484
390 4.07794
395 4.62388
400 4.39087
405 3.94715
410 3.702
415 3.60773
420 2.86704
425 4.70357
430 5.5646
435 5.03739
440 4.40818
445 4.56298
450 7.44304
455 3.68699
460 5.06673
465 3.39128
470 4.12646
475 1.35578
480 2.42518
485 5.54013
490 3.54941
495 5.61655
500 6.7046
505 5.26696
510 5.11094
515 5.87024
520 3.77768
525 3.11888
530 4.20472
535 7.05561
540 4.04325
545 2.72485
550 4.86974
555 3.52033
560 2.94703
565 2.45029
570 3.14596
575 4.90851
580 3.53115
585 4.88656
590 4.73753
595 3.84964
600 15.858
Ex : 223
200 3.51497
205 2.93054
210 2.38524
215 4.38736
220 4.36728
225 4.31487
230 3.56351
235 4.11371
240 3.36513
245 2.7778
250 2.70837
255 3.64417
260 4.93384
265 3.54981
270 3.42861
275 3.09514
280 2.67668
285 3.39576
290 3.6936
295 5.25646
300 3.76176
305 2.57599
310 1.36779
315 4.46513
320 5.46485
325 3.72612
330 4.39156
335 5.91601
340 3.35209
345 4.26915
350 4.94321
355 4.94047
360 8.30346
365 4.77658
370 2.85474
375 2.79059
380 3.64326
385 5.44159
390 5.68464
395 3.53845
400 8.05624
405 6.55809
410 3.31999
415 3.43797
420 4.2019
425 5.7801
430 4.57224
435 4.34946
440 3.10263
445 5.85168
450 5.42367
455 3.31776
460 6.61119
465 6.09777
470 4.26448
475 2.73877
480 4.76906
485 6.17874
490 4.15983
495 1.50477
500 2.70178
505 4.72857
510 4.18498
515 3.80576
520 7.43156
525 2.33288
530 3.13734
535 3.85918
540 3.24547
545 5.69634
550 4.8657
555 3.52509
560 1.52304
565 3.86842
570 4.89598
575 6.58545
580 6.58667
585 5.51558
590 8.41692
595 4.38314
600 0.498785
Ex : 228
200 2.10309
205 3.97931
210 5.80591
215 4.53125
220 2.50017
225 3.71085
230 3.61457
235 4.10962
240 2.59065
245 6.83115
250 5.38069
255 2.62462
260 3.02508
265 2.46689
270 2.75717
275 2.86159
280 2.16475
285 2.60139
290 2.80202
295 2.76694
300 3.46915
305 3.78236
310 2.88024
315 3.13407
320 3.75376
325 3.74676
330 4.98848
335 3.77897
340 4.6322
345 2.12424
350 2.92538
355 2.50458
360 3.71842
365 3.52754
370 4.51018
375 6.04947
380 3.24128
385 4.42673
390 5.52219
395 3.25402
400 4.89431
405 4.34346
410 4.28663
415 2.45451
420 4.66982
425 6.82106
430 2.95097
435 5.471
440 4.94401
445 4.24683
450 3.68766
455 2.09466
460 3.68532
465 4.30424
470 4.05884
475 3.1008
480 4.06985
485 2.27985
490 3.07326
495 2.53232
500 3.5457
505 5.70577
510 5.33481
515 3.95445
520 1.79945
525 3.36636
530 5.93327
535 4.76391
540 3.47066
545 3.85879
550 6.91094
555 2.68741
560 6.168
565 3.43647
570 3.1712
575 2.87178
580 6.90141
585 3.93748
590 5.19669
595 3.30267
600 7.99718
Ex : 233
200 5.33333
205 5.10374
210 4.19556
215 4.33726
220 3.49128
225 2.36818
230 2.6809
235 3.3028
240 2.10116
245 1.89703
250 3.86983
255 4.39385
260 3.91886
265 4.14308
270 4.34328
275 5.03056
280 6.43785
285 2.10914
290 5.84502
295 4.02385
300 4.01594
305 2.60794
310 4.62433
315 3.75115
320 2.81495
325 4.41788
330 4.23611
335 3.28317
340 4.19654
345 4.00901
350 3.14295
355 2.76368
360 3.49337
365 3.4745
370 3.90439
375 2.62349
380 5.24366
385 4.14565
390 3.72427
395 3.3084
400 3.65905
405 5.72887
410 3.48598
415 2.87258
420 2.80371
425 4.03153
430 5.77599
435 7.12531
440 4.18383
445 6.47635
450 3.01443
455 4.40801
460 4.11242
465 3.01581
470 1.88952
475 4.61146
480 5.56534
485 3.18375
490 3.25412
495 3.17435
500 3.33906
505 3.13651
510 3.05582
515 3.55036
520 2.49737
525 3.94661
530 3.12955
535 2.96672
540 6.18481
545 5.45537
550 5.46084
555 3.51635
560 3.32689
565 3.70409
570 3.51436
575 2.71342
580 4.62676
585 5.90903
590 3.52893
595 4.62097
600 0.525848
Ex : 238
200 3.83404
205 4.16768
210 3.1809
215 4.52754
220 4.28052
225 4.206
230 3.56858
235 4.14961
240 4.68471
245 2.56347
250 3.01478
255 3.69269
260 4.27854
265 3.70797
270 3.51956
275 3.52408
280 3.09129
285 3.12063
290 2.87423
295 3.01706
300 3.95503
305 4.75271
310 2.97478
315 4.85152
320 5.02803
325 3.68597
330 2.58983
335 4.54363
340 2.77212
345 3.42292
350 2.46395
355 5.22869
360 2.1746
365 2.56522
370 2.48088
375 4.71727
380 6.57676
385 3.90959
390 3.64201
395 3.4074
400 4.04279
405 2.9374
410 4.51617
415 4.53876
420 3.63799
425 2.93439
430 2.53202
435 3.51392
440 3.63731
445 5.15966
450 2.07886
455 2.90358
460 3.27775
465 3.71503
470 3.31479
475 3.77884
480 1.89657
485 4.78124
490 4.1271
495 2.51694
500 3.69647
505 2.65058
510 3.79359
515 3.53971
520 3.13659
525 5.24336
530 3.75583
535 4.48571
540 2.86817
545 5.4614
550 2.10802
555 3.87059
560 2.25951
565 2.49595
570 5.02709
575 5.16734
580 3.03001
585 3.88962
590 2.90289
595 2.2264
600 0.253356
Ex : 243
200 3.41935
205 2.95639
210 3.3372
215 3.04202
220 3.52994
225 2.51467
230 4.02551
235 3.52318
240 2.23799
245 4.32451
250 3.21808
255 2.93836
260 3.5029
265 3.21803
270 2.40939
275 2.38553
280 5.52291
285 4.36481
290 2.69606
295 2.71324
300 3.1526
305 4.3738
310 3.18458
315 3.11782
320 3.10912
325 4.38672
330 3.37764
335 3.00351
340 5.09272
345 3.14779
350 2.61109
355 3.4981
360 3.58051
365 2.91302
370 2.15581
375 3.60024
380 3.07178
385 2.40669
390 3.05699
395 2.37905
400 2.57898
405 2.37278
410 4.06803
415 3.86916
420 4.20309
425 2.36414
430 2.58341
435 3.53246
440 2.00576
445 4.08932
450 2.43394
455 2.72319
460 1.7257
465 3.24062
470 4.80331
475 3.74464
480 3.17155
485 5.28303
490 2.34406
495 2.88904
500 3.28277
505 5.79843
510 2.81627
515 3.07293
520 2.21865
525 2.07249
530 2.92687
535 2.98091
540 1.7897
545 2.62091
550 3.29228
555 3.15562
560 3.13266
565 2.39403
570 3.96193
575 1.95449
580 1.83567
585 2.88574
590 3.13708
595 4.74406
600 3.64157
Ex : 248
200 1.81419
205 1.98179
210 1.62892
215 1.8583
220 1.92318
225 3.5687
230 3.267
235 3.12587
240 2.82531
245 4.80092
250 2.26574
255 1.47674
260 1.65931
265 1.82625
270 2.14379
275 2.85884
280 2.18515
285 1.80103
290 2.05564
295 2.51446
300 1.41766
305 2.04524
310 1.7468
315 1.60979
320 3.03483
325 3.37396
330 3.14004
335 2.09368
340 4.1471
345 4.68368
350 2.80515
355 1.72636
360 2.69118
365 2.13927
370 3.4131
375 3.25289
380 2.19874
385 3.11886
390 2.64088
395 2.33179
400 4.29098
405 2.38935
410 1.62128
415 3.33477
420 2.52139
425 2.29565
430 2.21646
435 3.13974
440 2.63309
445 3.48329
450 1.48054
455 2.16939
460 2.48774
465 2.3167
470 2.6427
475 2.20346
480 2.67145
485 1.14829
490 2.6925
495 1.61488
500 2.08791
505 2.88336
510 2.65214
515 2.03946
520 2.49815
525 3.13675
530 2.56801
535 2.79892
540 2.83088
545 2.58446
550 2.31169
555 1.8695
560 4.44886
565 3.92701
570 2.69624
575 2.80762
580 3.58148
585 2.99708
590 2.53013
595 1.51727
600 2.19827
Ex : 253
200 2.29261
205 1.86391
210 2.51873
215 2.83698
220 1.67467
225 2.96091
230 1.0509
235 2.6498
240 3.42374
245 2.49686
250 2.09593
255 1.23486
260 1.6201
265 2.64715
270 2.40067
275 1.29457
280 1.08669
285 2.49192
290 2.11425
295 1.80849
300 1.8074
305 3.04923
310 1.75524
315 2.69746
320 2.33868
325 1.62062
330 3.62782
335 2.69804
340 1.86286
345 1.47186
350 1.91823
355 1.3017
360 1.42847
365 1.97547
370 1.97943
375 2.45859
380 1.523
385 2.42522
390 2.15204
395 3.55073
400 2.20786
405 2.25024
410 3.88028
415 2.53941
420 2.28106
425 2.98255
430 2.98756
435 2.04872
440 2.01059
445 2.09501
450 1.67015
455 2.2474
460 4.61538
465 2.11635
470 2.59497
475 2.41726
480 2.85673
485 1.87843
490 2.22112
495 3.01962
500 1.50468
505 1.79382
510 1.47013
515 4.42614
520 3.69908
525 2.9008
530 2.7445
535 3.11987
540 2.70994
545 2.20919
550 1.35275
555 1.40535
560 3.39283
565 2.04248
570 2.26945
575 2.36145
580 2.08645
585 1.56167
590 1.4907
595 1.66573
600 6.4816
Ex : 258
200 1.15525
205 2.08477
210 1.81798
215 1.47663
220 2.24721
225 1.1677
230 2.08539
235 1.14624
240 1.47481
245 1.45596
250 1.62531
255 1.53009
260 1.73344
265 2.14024
270 2.23906
275 1.55993
280 1.09039
285 1.3181
290 1.68919
295 1.59799
300 1.44346
305 1.22527
310 0.644705
315 1.42862
320 2.03959
325 1.2386
330 1.54892
335 0.77357
340 3.11037
345 1.78028
350 1.89223
355 1.61831
360 1.33287
365 2.09852
370 1.59752
375 2.02282
380 1.32137
385 1.34755
390 1.8907
395 1.55263
400 2.30917
405 1.95166
410 2.40793
415 2.17273
420 3.0831
425 1.45054
430 2.07273
435 1.63684
440 1.86686
445 2.33015
450 1.99737
455 1.50383
460 2.80199
465 2.71395
470 1.53465
475 1.39418
480 1.4363
485 1.9107
490 1.74944
495 2.05809
500 2.48287
505 3.59564
510 2.26466
515 1.79145
520 1.90657
525 1.48156
530 1.95363
535 1.34376
540 1.04716
545 2.15662
550 3.59263
555 2.07967
560 1.80471
565 1.39041
570 1.49984
575 2.21748
580 2.07487
585 2.20109
590 1.61371
595 1.77721
600 5.43084
Ex : 263
200 2.77817
205 1.49462
210 1.03872
215 0.862991
220 1.27563
225 1.24065
230 1.12009
235 0.958278
240 0.934723
245 1.63002
250 1.02861
255 1.61531
260 1.16744
265 1.11117
270 1.30858
275 2.14715
280 1.41099
285 1.01126
290 1.64176
295 1.34783
300 0.763222
305 1.89896
310 2.21612
315 1.62019
320 1.59261
325 1.8529
330 1.28499
335 1.40773
340 0.932702
345 0.755389
350 1.28812
355 1.34725
360 1.2382
365 1.12262
370 1.63286
375 1.34254
380 1.23767
385 1.88565
390 1.82259
395 1.43158
400 1.23994
405 1.36754
410 2.10098
415 2.38166
420 2.99902
425 1.42
430 1.5019
435 1.52071
440 1.47375
445 2.2003
450 1.60153
455 1.4198
460 1.17714
465 0.957969
470 2.12268
475 1.28846
480 1.10378
485 1.09366
490 2.04532
495 1.29896
500 1.40057
505 1.67318
510 1.92661
515 1.17545
520 1.35697
525 1.14147
530 1.76057
535 1.71643
540 2.0353
545 2.55321
550 1.96167
555 2.89284
560 2.384
565 1.39876
570 1.47235
575 1.09173
580 1.23396
585 0.99854
590 0.835839
595 1.64166
600 0.819817
Ex : 268
200 1.00138
205 1.41875
210 0.864126
215 0.803553
220 1.18253
225 1.37991
230 0.852338
235 1.25827
240 1.18124
245 0.987345
250 1.00721
255 1.62239
260 1.3968
265 1.24673
270 0.706953
275 1.57065
280 0.844001
285 0.80993
290 1.3004
295 0.600405
300 0.480974
305 0.430963
310 0.750826
315 1.26913
320 0.858069
325 0.969962
330 0.866893
335 1.532
340 0.959329
345 0.775059
350 0.932024
355 1.18589
360 1.01619
365 1.14112
370 1.62787
375 1.58779
380 1.72787
385 2.97636
390 1.30728
395 1.45349
400 1.09102
405 2.24258
410 1.55119
415 1.04029
420 1.4227
425 1.8703
430 0.920275
435 1.56872
440 1.91918
445 1.43301
450 1.60284
455 1.69558
460 1.54583
465 1.28925
470 0.975544
475 1.11721
480 0.942442
485 1.33362
490 0.675873
495 0.873014
500 1.41864
505 0.948066
510 1.29031
515 1.07259
520 0.812867
525 0.932909
530 0.661298
535 1.19513
540 1.02466
545 1.00157
550 0.820678
555 1.50038
560 0.979336
565 0.845901
570 0.979992
575 0.994041
580 0.814036
585 1.09683
590 0.695301
595 1.55444
600 0.176889
Ex : 273
200 0.90604
205 0.851615
210 0.983114
215 0.978006
220 0.754798
225 0.780595
230 1.13801
235 0.524364
240 0.711973
245 0.57932
250 1.3853
255 0.934191
260 0.959762
265 0.819381
270 0.906015
275 1.08091
280 0.392939
285 0.88606
290 0.596825
295 0.771696
300 0.555253
305 1.75248
310 1.26147
315 1.26033
320 1.20525
325 0.868786
330 1.29079
335 1.56743
340 0.608496
345 0.925509
350 1.43922
355 0.901943
360 1.20389
365 0.797879
370 0.984138
375 1.10281
380 1.10904
385 1.72299
390 1.44309
395 1.20867
400 0.969042
405 1.06086
410 0.950013
415 1.07042
420 1.16832
425 1.23668
430 1.18555
435 1.3985
440 1.57809
445 1.29432
450 0.952565
455 0.687957
460 1.27025
465 0.684674
470 0.855582
475 0.725048
480 0.82584
485 1.06267
490 1.26778
495 0.789233
500 1.04488
505 0.875468
510 0.892807
515 0.952435
520 1.37064
525 0.68688
530 0.561364
535 1.06524
540 0.980141
545 0.90641
550 1.50279
555 1.29037
560 1.01382
565 0.902223
570 0.801446
575 0.85743
580 1.38146
585 1.28592
590 0.689911
595 0.833571
600 0.0948572
Ex : 278
200 0.861086
205 0.91995
210 0.569282
215 0.461848
220 0.959199
225 1.0092
230 0.616358
235 1.08845
240 0.798325
245 0.548801
250 0.458502
255 0.601836
260 1.0002
265 0.450642
270 0.586002
275 0.646597
280 0.705184
285 0.572398
290 0.614797
295 0.930938
300 0.476134
305 0.724358
310 0.737842
315 0.913758
320 0.951053
325 0.637846
330 0.597772
335 0.555154
340 0.380792
345 1.05884
350 0.701677
355 0.535587
360 0.582292
365 0.711596
370 0.94399
375 0.887641
380 1.15704
385 0.912936
390 1.14653
395 1.08503
400 1.15902
405 1.12744
410 0.988342
415 1.27053
420 1.30043
425 0.97031
430 1.08799
435 1.45889
440 0.956947
445 1.48906
450 1.2301
455 1.21791
460 1.51196
465 1.15764
470 0.856438
475 1.20868
480 0.844347
485 1.22767
490 0.792827
495 0.641038
500 0.624163
505 0.642719
510 0.686474
515 0.66919
520 0.671326
525 0.900178
530 0.932127
535 0.713151
540 0.915566
545 0.670559
550 1.08783
555 0.591805
560 0.654884
565 1.01745
570 0.446973
575 0.651329
580 0.560311
585 0.726351
590 0.881706
595 0.553375
600 0.424018
Ex : 283
200 0.530845
205 0.595348
210 0.381286
215 0.690715
220 0.486829
225 0.659075
230 0.446368
235 0.564215
240 0.50595
245 0.904018
250 0.561042
255 0.737495
260 0.783777
265 1.08777
270 0.491399
275 0.411352
280 0.55244
285 0.596216
290 0.958812
295 0.742986
300 0.930877
305 0.850945
310 0.772101
315 0.490621
320 0.680003
325 0.469119
330 0.651726
335 0.639161
340 0.545059
345 0.649001
350 1.13621
355 0.544535
360 1.10188
365 1.07746
370 0.616933
375 0.548795
380 0.812159
385 1.09475
390 0.907782
395 1.16269
400 0.793927
405 0.889216
410 0.965579
415 1.1709
420 0.802474
425 0.597238
430 0.962218
435 0.804346
440 0.98705
445 0.82237
450 0.841274
455 0.796359
460 0.818479
465 0.641036
470 0.634233
475 0.461421
480 0.586827
485 0.680043
490 1.04514
495 0.869473
500 0.621243
505 0.430077
510 0.481219
515 0.517099
520 1.09207
525 0.656401
530 0.997997
535 0.595244
540 0.489382
545 0.456153
550 0.628892
555 0.644554
560 0.866161
565 0.783236
570 0.659274
575 0.533566
580 0.569439
585 0.71301
590 0.345444
595 0.296617
600 0.0337539
Ex : 288
200 0.517176
205 0.521444
210 0.518436
215 0.603701
220 0.683478
225 0.616837
230 0.557663
235 0.300805
240 0.747864
245 0.300938
250 0.906338
255 0.454573
260 0.696034
265 0.387598
270 0.37445
275 0.363585
280 0.437242
285 0.386333
290 0.553996
295 0.661936
300 0.440233
305 0.289474
310 0.463465
315 0.371388
320 0.707343
325 0.410769
330 0.574781
335 0.738968
340 0.676022
345 0.451341
350 0.360659
355 0.735543
360 0.470812
365 0.79161
370 0.771472
375 0.830071
380 1.19615
385 1.10823
390 0.903593
395 0.990734
400 1.03974
405 0.954564
410 0.703262
415 1.11403
420 0.682844
425 0.911846
430 1.01279
435 0.798167
440 0.874012
445 0.532562
450 0.79516
455 0.508625
460 0.653562
465 0.867203
470 0.702837
475 0.471035
480 0.518746
485 0.55299
490 0.866314
495 0.402539
500 0.73514
505 0.651678
510 0.44985
515 0.773876
520 0.954549
525 0.642489
530 0.51078
535 0.442373
540 0.648486
545 0.578083
550 0.40456
555 0.377587
560 0.597626
565 0.590437
570 0.900932
575 0.67681
580 0.396503
585 0.352277
590 0.572954
595 0.599545
600 0.068226
Ex : 293
200 0.513265
205 0.383796
210 0.302911
215 0.274928
220 0.378394
225 0.379272
230 0.255868
235 0.375538
240 0.46122
245 0.510389
250 0.394838
255 0.348565
260 0.208172
265 0.292397
270 0.216975
275 0.279541
280 0.314683
285 0.631573
290 0.44612
295 0.370758
300 0.2248
305 0.324663
310 0.410465
315 0.558055
320 0.499161
325 0.375684
330 0.377691
335 0.322274
340 0.410571
345 0.516284
350 0.52659
355 0.412782
360 0.765204
365 0.591045
370 0.736128
375 0.617407
380 0.763894
385 0.975534
390 0.748212
395 0.822047
400 0.817231
405 0.896976
410 0.837999
415 1.03082
420 0.856602
425 0.694755
430 0.949717
435 0.707285
440 0.744055
445 0.741368
450 0.472733
455 0.43908
460 0.95995
465 0.793835
470 0.929416
475 0.715937
480 0.70056
485 0.40556
490 0.657209
495 0.595999
500 0.352708
505 0.682899
510 0.400318
515 0.330372
520 0.518966
525 0.346279
530 0.497019
535 0.444695
540 0.431433
545 0.459411
550 0.458935
555 0.449256
560 0.679558
565 0.341163
570 0.381482
575 0.328074
580 0.78361
585 0.689426
590 0.388577
595 0.333145
600 0.0379107
Ex : 298
200 0.381801
205 0.297421
210 0.286098
215 0.462626
220 0.606211
225 0.705878
230 0.420343
235 0.528642
240 0.375437
245 0.293647
250 0.325876
255 0.360552
260 0.283893
265 0.406193
270 0.209734
275 0.372789
280 0.431376
285 0.630179
290 0.392007
295 0.480426
300 0.405651
305 0.294649
310 0.349022
315 0.354618
320 0.558494
325 0.46767
330 0.4326
335 0.291454
340 0.385306
345 0.753397
350 0.509222
355 0.775911
360 0.637136
365 0.794133
370 0.648765
375 0.680862
380 0.615741
385 0.892823
390 0.967455
395 0.871185
400 0.788361
405 0.726828
410 0.693308
415 0.801065
420 0.781857
425 0.808596
430 1.01574
435 0.760517
440 0.729468
445 0.832747
450 0.757952
455 0.779125
460 0.469833
465 0.674349
470 0.466005
475 0.432177
480 0.453589
485 0.563934
490 0.347742
495 0.789372
500 0.497206
505 0.577266
510 0.433202
515 0.48638
520 0.550311
525 0.539072
530 0.460094
535 0.518583
540 0.319587
545 0.349343
550 0.828874
555 0.330532
560 0.35606
565 0.318271
570 0.479526
575 0.452176
580 0.265295
585 0.297966
590 0.778905
595 0.423777
600 0.326249
Ex : 303
200 0.271665
205 0.342487
210 0.259893
215 0.194952
220 0.263195
225 0.372307
230 0.311704
235 0.340351
240 0.266303
245 0.283095
250 0.253587
255 0.185267
260 0.242452
265 0.277673
270 0.261302
275 0.249669
280 0.164667
285 0.505843
290 0.290812
295 0.322517
300 0.537568
305 0.37618
310 0.3726
315 0.226099
320 0.246743
325 0.489351
330 0.248069
335 0.456815
340 0.415935
345 0.457678
350 0.319241
355 0.50507
360 0.534634
365 0.579558
370 0.783712
375 0.522766
380 0.689502
385 0.79893
390 1.06213
395 1.00055
400 0.791841
405 0.834002
410 0.744789
415 0.79078
420 0.727508
425 0.824349
430 0.798207
435 0.788665
440 0.515441
445 0.865862
450 0.531739
455 0.375957
460 0.54226
465 0.604376
470 0.60303
475 0.572774
480 0.504503
485 0.549746
490 0.503695
495 0.31247
500 0.304386
505 0.291294
510 0.326269
515 0.349906
520 0.371875
525 0.443245
530 0.539179
535 0.384271
540 0.266441
545 0.254123
550 0.159
555 0.29723
560 0.271743
565 0.349029
570 0.460987
575 0.417769
580 0.341149
585 0.140464
590 0.369392
595 0.43887
600 0.345343
Ex : 308
200 0.279634
205 0.274116
210 0.231742
215 0.347766
220 0.275051
225 0.216585
230 0.24501
235 0.326023
240 0.115137
245 0.130106
250 0.1212
255 0.125582
260 0.226601
265 0.326874
270 0.38779
275 0.227612
280 0.332216
285 0.381326
290 0.24693
295 0.275757
300 0.480453
305 0.447384
310 0.276935
315 0.223202
320 0.228462
325 0.409425
330 0.380027
335 0.387497
340 0.314505
345 0.328669
350 0.409689
355 0.295856
360 0.354491
365 0.587046
370 0.646437
375 0.813967
380 0.71036
385 0.925494
390 0.960432
395 0.970159
400 0.714659
405 0.765274
410 0.685013
415 0.843011
420 0.844009
425 0.978166
430 0.492065
435 0.718518
440 0.647872
445 0.631116
450 0.583428
455 0.565786
460 0.506069
465 0.419616
470 0.5546
475 0.544682
480 0.47117
485 0.544356
490 0.330521
495 0.554928
500 0.279727
505 0.343464
510 0.256645
515 0.300154
520 0.287492
525 0.19878
530 0.181756
535 0.300636
540 0.314723
545 0.189129
550 0.423486
555 0.213927
560 0.400863
565 0.370727
570 0.289974
575 0.361898
580 0.237484
585 0.181392
590 0.305842
595 0.253298
600 0.0548892
Ex : 313
200 0.282568
205 0.321743
210 0.134988
215 0.223586
220 0.203959
225 0.239384
230 0.132582
235 0.283718
240 0.206866
245 0.223517
250 0.304051
255 0.154029
260 0.168945
265 0.302567
270 0.234443
275 0.171555
280 0.219277
285 0.365461
290 0.213669
295 0.350347
300 0.359856
305 0.384665
310 0.404315
315 0.23591
320 0.483
325 0.399171
330 0.377022
335 0.328427
340 0.353619
345 0.47746
350 0.440137
355 0.529953
360 0.501608
365 0.530167
370 0.805972
375 0.674336
380 0.988332
385 0.974332
390 1.08094
395 1.12036
400 1.08839
405 1.41253
410 1.14483
415 1.31262
420 1.30753
425 1.31137
430 1.44349
435 1.14207
440 0.97482
445 0.90639
450 1.06127
455 0.913268
460 0.767822
465 1.01636
470 0.594575
475 0.761603
480 0.621807
485 0.426124
490 0.493384
495 0.582674
500 0.438462
505 0.324269
510 0.3459
515 0.391735
520 0.388503
525 0.415765
530 0.293388
535 0.238318
540 0.233956
545 0.476393
550 0.21609
555 0.212847
560 0.163352
565 0.328802
570 0.19621
575 0.194393
580 0.174877
585 0.288588
590 0.19339
595 0.22898
600 0.026057
Ex : 318
200 0.182165
205 0.210578
210 0.261737
215 0.150954
220 0.322372
225 0.225321
230 0.119095
235 0.162608
240 0.210295
245 0.130275
250 0.190163
255 0.216517
260 0.252877
265 0.246239
270 0.216944
275 0.158887
280 0.269498
285 0.247598
290 0.136655
295 0.272283
300 0.264042
305 0.226628
310 0.337013
315 0.671006
320 0.352469
325 0.255745
330 0.334673
335 0.966116
340 0.87448
345 1.35888
350 2.14792
355 2.46103
360 3.52841
365 4.11665
370 5.39385
375 6.16853
380 7.1758
385 7.63419
390 9.28136
395 9.76266
400 9.72674
405 10.6739
410 10.4925
415 10.7027
420 10.1952
425 10.3926
430 9.79
435 8.4467
440 8.36012
445 8.41545
450 7.42696
455 7.58829
460 6.70456
465 5.96108
470 5.57768
475 5.30683
480 4.05313
485 3.60378
490 3.36939
495 2.62888
500 2.34362
505 2.04496
510 1.83192
515 1.45342
520 1.20675
525 1.17472
530 0.744913
535 0.7587
540 0.667924
545 0.65034
550 0.5897
555 0.606598
560 0.310052
565 0.287999
570 0.353002
575 0.252257
580 0.28323
585 0.286346
590 0.228668
595 0.146337
600 0.0166526
Ex : 323
200 0.17407
205 0.117604
210 0.168507
215 0.117159
220 0.166059
225 0.11655
230 0.115559
235 0.132426
240 0.102542
245 0.209083
250 0.193112
255 0.194257
260 0.172585
265 0.136348
270 0.129676
275 0.163035
280 0.219458
285 0.157382
290 0.206876
295 0.149553
300 0.256369
305 0.275509
310 0.21119
315 2.05282
320 9.44554
325 4.125
330 1.86276
335 2.7491
340 4.29687
345 6.14588
350 9.12241
355 12.6812
360 15.4309
365 17.7994
370 22.348
375 25.8022
380 30.6508
385 34.1951
390 37.3935
395 39.0012
400 41.1349
405 41.2204
410 41.664
415 41.5599
420 41.0011
425 38.5119
430 38.7899
435 36.8653
440 34.4456
445 32.9023
450 30.8174
455 28.6566
460 26.2062
465 24.3357
470 21.5216
475 19.4118
480 17.9427
485 16.3388
490 13.7789
495 13.0713
500 11.0721
505 9.42742
510 8.13204
515 6.82318
520 5.77293
525 5.26815
530 4.39701
535 3.92829
540 3.17793
545 2.6092
550 2.07364
555 1.74747
560 1.43408
565 1.48485
570 0.978535
575 0.798937
580 0.663009
585 0.597025
590 0.466752
595 0.316237
600 0.10833
Ex : 328
200 0.203966
205 0.215416
210 0.189284
215 0.15327
220 0.264171
225 0.266201
230 0.142294
235 0.228952
240 0.210362
245 0.298062
250 0.160212
255 0.218499
260 0.177254
265 0.112818
270 0.168433
275 0.134809
280 0.124026
285 0.193117
290 0.194011
295 0.12982
300 0.177088
305 0.31464
310 0.187436
315 0.729706
320 23.0606
325 58.0363
330 20.597
335 5.66942
340 5.89857
345 7.6239
350 10.1063
355 14.7775
360 20.4988
365 22.9305
370 25.8939
375 29.1146
380 32.7684
385 36.1139
390 39.549
395 42.5965
400 43.6199
405 45.0539
410 45.8639
415 44.7564
420 44.3005
425 42.3145
430 41.4535
435 38.6465
440 37.2072
445 34.0419
450 32.6136
455 30.3047
460 29.0221
465 26.1101
470 23.7822
475 21.2429
480 19.4706
485 17.4495
490 15.1009
495 13.3984
500 11.5582
505 10.3016
510 9.25396
515 7.82552
520 6.38642
525 5.75051
530 4.67225
535 4.32562
540 3.50416
545 2.74965
550 2.59229
555 2.02705
560 1.78398
565 1.39866
570 1.03192
575 1.05704
580 0.730579
585 0.744214
590 0.447067
595 0.382078
600 0.043479
Ex : 333
200 0.0833824
205 0.101713
210 0.185271
215 0.128695
220 0.14579
225 0.263308
230 0.141718
235 0.203858
240 0.125568
245 0.272059
250 0.0952103
255 0.133351
260 0.169739
265 0.11495
270 0.128772
275 0.119662
280 0.114113
285 0.14698
290 0.180473
295 0.140537
300 0.241308
305 0.14738
310 0.13661
315 0.202799
320 3.61944
325 74.7384
330 134.981
335 37.8744
340 8.03075
345 5.86909
350 6.32478
355 7.93301
360 11.3736
365 17.0665
370 18.3779
375 16.8522
380 18.7191
385 20.6863
390 22.3974
395 24.6761
400 24.4211
405 25.3324
410 26.0774
415 25.026
420 24.3819
425 23.4076
430 22.1753
435 21.1488
440 19.9248
445 19.1581
450 18.3377
455 16.2308
460 15.0585
465 13.5565
470 13.1051
475 11.636
480 10.3982
485 9.1496
490 8.27982
495 7.49026
500 6.26301
505 5.30257
510 5.29313
515 4.19223
520 3.63681
525 3.03471
530 2.56692
535 2.58555
540 2.04331
545 1.53227
550 1.47717
555 1.27634
560 1.07833
565 0.761956
570 0.673669
575 0.749438
580 0.571363
585 0.383846
590 0.370456
595 0.314195
600 0.0357542
Ex : 338
200 0.160868
205 0.176431
210 0.167458
215 0.145199
220 0.10591
225 0.224141
230 0.107335
235 0.18629
240 0.153347
245 0.199383
250 0.175927
255 0.213132
260 0.131595
265 0.12395
270 0.159932
275 0.181008
280 0.0990132
285 0.342749
290 0.198392
295 0.137666
300 0.172327
305 0.181654
310 0.217176
315 0.140215
320 0.182239
325 7.44798
330 123.348
335 191.295
340 49.6603
345 8.52694
350 4.44883
355 4.49442
360 4.47316
365 6.76332
370 11.8091
375 12.418
380 10.8097
385 10.1889
390 11.0746
395 12.4275
400 12.4703
405 12.0475
410 13.1496
415 12.5395
420 12.4696
425 12.0792
430 11.7333
435 11.2835
440 10.3859
445 10.094
450 9.58827
455 8.30255
460 7.89655
465 7.60852
470 7.03417
475 6.58142
480 5.78236
485 5.15397
490 4.80515
495 4.04725
500 3.72313
505 3.2455
510 3.25484
515 2.69921
520 2.3332
525 1.74826
530 1.8881
535 1.56449
540 1.32184
545 1.02171
550 0.986842
555 0.793675
560 0.737677
565 0.78051
570 0.509167
575 0.386023
580 0.370583
585 0.263682
590 0.248711
595 0.233578
600 0.330799
Ex : 343
200 0.112272
205 0.109282
210 0.0578374
215 0.133472
220 0.0926296
225 0.109463
230 0.166381
235 0.156639
240 0.124146
245 0.126933
250 0.121523
255 0.178393
260 0.159936
265 0.166119
270 0.14359
275 0.271585
280 0.136285
285 0.0919655
290 0.118369
295 0.138008
300 0.232755
305 0.145348
310 0.142621
315 0.115197
320 0.116323
325 0.227691
330 9.77415
335 151.392
340 222.03
345 54.649
350 8.30028
355 3.5363
360 3.19718
365 2.86519
370 4.1457
375 8.28995
380 9.92969
385 7.96861
390 6.97989
395 7.39479
400 8.06798
405 8.00599
410 8.33439
415 8.54628
420 8.55244
425 8.38769
430 7.97314
435 7.82457
440 7.40081
445 7.24884
450 6.9153
455 6.56609
460 6.07127
465 6.0016
470 5.53547
475 5.19743
480 4.4515
485 4.25603
490 3.93308
495 3.54609
500 2.91709
505 2.6086
510 2.33184
515 2.11386
520 1.72318
525 1.56475
530 1.32391
535 1.32768
540 1.14321
545 0.994409
550 0.732893
555 0.746492
560 0.812776
565 0.54419
570 0.463779
575 0.383065
580 0.306439
585 0.276656
590 0.368277
595 0.219646
600 0.0249949
Ex : 348
200 0.116854
205 0.161713
210 0.136403
215 0.143516
220 0.155163
225 0.158007
230 0.0937487
235 0.132775
240 0.125568
245 0.135962
250 0.0834258
255 0.0886189
260 0.101172
265 0.163043
270 0.123764
275 0.10067
280 0.14434
285 0.0913819
290 0.0900277
295 0.125582
300 0.182285
305 0.18379
310 0.158605
315 0.155237
320 0.101537
325 0.191704
330 0.256908
335 10.5005
340 151.145
345 231.82
350 60.5251
355 8.69963
360 3.08805
365 2.74308
370 2.27529
375 2.78388
380 6.66815
385 9.58613
390 7.86974
395 7.42894
400 6.2459
405 6.40914
410 7.21069
415 7.78348
420 7.7921
425 7.70337
430 7.65059
435 7.31788
440 7.04056
445 6.78639
450 6.41903
455 6.52952
460 5.96192
465 5.23145
470 5.26906
475 4.78688
480 4.3165
485 4.23009
490 3.86609
495 3.50862
500 3.09267
505 2.80838
510 2.633
515 2.23522
520 1.86591
525 1.65073
530 1.53311
535 1.1631
540 1.14754
545 0.950469
550 0.775211
555 0.759769
560 0.625255
565 0.608083
570 0.469011
575 0.433595
580 0.310608
585 0.250675
590 0.338711
595 0.22045
600 0.0250863
Ex : 353
200 0.122186
205 0.0714532
210 0.129573
215 0.127475
220 0.0853429
225 0.0983818
230 0.100187
235 0.0965061
240 0.0831106
245 0.121946
250 0.0971836
255 0.120887
260 0.132356
265 0.139269
270 0.238453
275 0.11614
280 0.168634
285 0.151183
290 0.191898
295 0.141284
300 0.124747
305 0.0869697
310 0.118022
315 0.166884
320 0.188235
325 0.210979
330 0.235492
335 0.293812
340 10.2858
345 160.56
350 234.606
355 59.3396
360 8.64455
365 2.73294
370 2.43352
375 2.09315
380 2.3195
385 5.34469
390 9.83672
395 9.33572
400 7.94878
405 6.86213
410 6.87347
415 7.65044
420 7.70799
425 7.62065
430 7.70157
435 6.97067
440 6.88082
445 7.04843
450 6.97456
455 6.20756
460 6.19797
465 5.90758
470 5.54848
475 4.99733
480 4.35004
485 4.35642
490 4.07473
495 3.67864
500 3.28612
505 3.00245
510 2.62814
515 2.30285
520 2.11233
525 1.90579
530 1.44352
535 1.45041
540 1.22951
545 1.02475
550 0.835892
555 0.801307
560 0.572829
565 0.568907
570 0.376933
575 0.420866
580 0.364158
585 0.239159
590 0.282079
595 0.269538
600 1.00164
Ex : 358
200 0.169168
205 0.12784
210 0.0751008
215 0.108125
220 0.0649602
225 0.127822
230 0.115638
235 0.081944
240 0.121063
245 0.113652
250 0.0793527
255 0.123896
260 0.127984
265 0.0976815
270 0.157532
275 0.144478
280 0.0850922
285 0.104906
290 0.095681
295 0.0989011
300 0.102024
305 0.136986
310 0.126178
315 0.0691375
320 0.104256
325 0.137153
330 0.185638
335 0.166672
340 0.382326
345 10.3573
350 153.466
355 234.234
360 60.7667
365 8.40636
370 2.83362
375 2.51275
380 2.20699
385 2.40434
390 5.18309
395 10.2274
400 9.82388
405 8.03872
410 7.08117
415 7.15846
420 7.38463
425 7.07288
430 7.22829
435 7.05932
440 6.82585
445 6.70969
450 6.97406
455 6.3865
460 6.11936
465 5.55313
470 5.15597
475 5.22244
480 4.57527
485 4.34618
490 4.06326
495 3.84136
500 3.45276
505 2.86592
510 2.66195
515 2.43447
520 1.97826
525 1.86542
530 1.58793
535 1.49211
540 1.33124
545 1.04274
550 0.874036
555 0.856409
560 0.744211
565 0.577833
570 0.578899
575 0.357456
580 0.345568
585 0.281391
590 0.296804
595 0.183567
600 0.452015
Ex : 363
200 0.0556484
205 0.14353
210 0.0999333
215 0.100314
220 0.092028
225 0.10548
230 0.0661225
235 0.0668479
240 0.136899
245 0.105854
250 0.0750269
255 0.0935353
260 0.206973
265 0.0948479
270 0.101894
275 0.0856672
280 0.158724
285 0.124848
290 0.13283
295 0.0923776
300 0.0662073
305 0.0915477
310 0.114967
315 0.138838
320 0.126145
325 0.169347
330 0.175278
335 0.20773
340 0.245646
345 0.261865
350 9.55524
355 149.601
360 235.36
365 63.2141
370 8.47582
375 2.55793
380 2.62877
385 2.46398
390 3.26496
395 5.04372
400 8.97787
405 10.1596
410 8.36582
415 7.56729
420 7.21042
425 7.09509
430 6.62689
435 6.85756
440 6.71993
445 6.84124
450 6.71611
455 6.50409
460 6.04
465 5.76093
470 5.82068
475 5.31112
480 4.99408
485 4.8654
490 4.38029
495 4.02957
500 3.6339
505 3.09317
510 2.71322
515 2.41952
520 2.13738
525 1.74413
530 1.63323
535 1.48537
540 1.39349
545 1.17053
550 0.814466
555 0.79853
560 0.857814
565 0.666176
570 0.479464
575 0.420604
580 0.332382
585 0.297971
590 0.313784
595 0.228975
600 0.139093
Ex : 368
200 0.101184
205 0.0927139
210 0.0611879
215 0.0811879
220 0.152862
225 0.0914694
230 0.130473
235 0.111248
240 0.0845975
245 0.0878126
250 0.0976011
255 0.0976165
260 0.113247
265 0.0629155
270 0.0991382
275 0.101099
280 0.096958
285 0.0789184
290 0.0983801
295 0.151897
300 0.0913269
305 0.167998
310 0.0939614
315 0.0963641
320 0.160371
325 0.10995
330 0.110019
335 0.12252
340 0.243066
345 0.199392
350 0.343327
355 7.95988
360 149.237
365 252.093
370 70.2451
375 9.54949
380 2.65906
385 2.94412
390 3.53677
395 3.93256
400 4.95323
405 8.22239
410 10.5934
415 9.15124
420 8.5266
425 7.35078
430 7.03322
435 6.87845
440 6.84731
445 6.81645
450 6.64578
455 6.6318
460 6.33403
465 5.73076
470 5.52053
475 5.41515
480 5.14701
485 4.71133
490 4.20841
495 3.95949
500 3.35375
505 3.24285
510 2.89395
515 2.80536
520 2.23744
525 1.98661
530 1.83027
535 1.5665
540 1.2768
545 1.13206
550 1.00814
555 1.0137
560 0.819185
565 0.752511
570 0.605842
575 0.324731
580 0.302516
585 0.304057
590 0.237573
595 0.173194
600 0.530822
Ex : 373
200 0.0809309
205 0.0660658
210 0.0766109
215 0.135037
220 0.11962
225 0.106048
230 0.135097
235 0.0641433
240 0.0564807
245 0.103902
250 0.0707531
255 0.0532544
260 0.0876311
265 0.121393
270 0.0895364
275 0.113091
280 0.119789
285 0.0732619
290 0.0612883
295 0.101563
300 0.176732
305 0.079639
310 0.112635
315 0.0905118
320 0.125448
325 0.159828
330 0.100429
335 0.187954
340 0.159387
345 0.18182
350 0.20614
355 0.330989
360 9.42296
365 155.894
370 251.66
375 68.6989
380 9.3799
385 3.23002
390 4.07997
395 4.71821
400 4.39277
405 4.83884
410 7.54104
415 10.782
420 9.88029
425 8.55066
430 7.11544
435 6.19078
440 6.68667
445 6.81585
450 6.56828
455 6.45504
460 6.04719
465 5.87678
470 5.64771
475 5.38213
480 4.97546
485 4.616
490 4.33937
495 4.04968
500 3.51062
505 3.21353
510 3.04538
515 2.76605
520 2.43505
525 1.91859
530 1.63406
535 1.42087
540 1.41528
545 1.20365
550 1.01707
555 0.930329
560 0.855638
565 0.669988
570 0.497714
575 0.518932
580 0.283786
585 0.278535
590 0.306118
595 0.238341
600 0.301884
Ex : 378
200 0.0802672
205 0.153039
210 0.0814066
215 0.121831
220 0.086087
225 0.067911
230 0.136856
235 0.0802795
240 0.0778245
245 0.102765
250 0.100775
255 0.142784
260 0.127546
265 0.100696
270 0.10444
275 0.126325
280 0.064511
285 0.0999494
290 0.107189
295 0.0845663
300 0.072567
305 0.0717352
310 0.0855632
315 0.0853872
320 0.0984444
325 0.118918
330 0.139394
335 0.175759
340 0.120356
345 0.134988
350 0.14047
355 0.221502
360 0.263752
365 9.5643
370 162.21
375 261.988
380 71.5433
385 10.1015
390 3.61441
395 4.03606
400 4.3599
405 4.02726
410 4.30636
415 6.27734
420 10.3676
425 9.23915
430 7.32891
435 6.34243
440 6.05049
445 5.9473
450 5.92164
455 5.87343
460 5.50753
465 5.34326
470 5.12341
475 4.87931
480 4.94999
485 4.35209
490 4.13257
495 3.87306
500 3.64378
505 3.23363
510 3.06074
515 2.59043
520 2.25667
525 1.85127
530 1.65978
535 1.38589
540 1.47537
545 1.22282
550 1.02473
555 0.946612
560 0.857408
565 0.604679
570 0.54586
575 0.412115
580 0.340642
585 0.240668
590 0.209807
595 0.156837
600 0.0509422
Ex : 383
200 0.0662827
205 0.0742734
210 0.111962
215 0.087623
220 0.0850517
225 0.0820957
230 0.104268
235 0.116219
240 0.103634
245 0.084455
250 0.129254
255 0.140548
260 0.0673472
265 0.0606803
270 0.0705982
275 0.0736187
280 0.0666339
285 0.0890213
290 0.104118
295 0.065657
300 0.084989
305 0.0872321
310 0.140693
315 0.122561
320 0.123793
325 0.118932
330 0.0937519
335 0.106463
340 0.109774
345 0.134633
350 0.13584
355 0.181216
360 0.208111
365 0.287884
370 8.51516
375 159.035
380 272.234
385 79.546
390 11.536
395 4.06905
400 3.92452
405 3.95224
410 3.73402
415 4.19325
420 5.49193
425 8.31701
430 8.77677
435 7.09203
440 6.38019
445 5.63422
450 5.28414
455 5.26778
460 5.01877
465 5.15525
470 4.61387
475 4.63867
480 4.5807
485 4.42063
490 3.79967
495 3.72612
500 3.45749
505 3.06624
510 2.82629
515 2.40681
520 2.28727
525 1.90293
530 1.59948
535 1.68693
540 1.36233
545 1.11509
550 0.98419
555 0.836202
560 0.771457
565 0.63002
570 0.517291
575 0.45331
580 0.392602
585 0.426547
590 0.247666
595 0.261751
600 0.064814
Ex : 388
200 0.117749
205 0.126094
210 0.0827438
215 0.096238
220 0.127931
225 0.0834044
230 0.0605585
235 0.0737377
240 0.091966
245 0.0791765
250 0.0833587
255 0.0593542
260 0.122777
265 0.076147
270 0.0992107
275 0.0845311
280 0.109563
285 0.0600755
290 0.0744102
295 0.0894896
300 0.0612499
305 0.0911492
310 0.101676
315 0.0993673
320 0.0727365
325 0.0985862
330 0.109531
335 0.110634
340 0.113241
345 0.103835
350 0.118713
355 0.101478
360 0.17764
365 0.273219
370 0.34053
375 9.36606
380 166.026
385 275.676
390 76.9254
395 11.6801
400 4.44022
405 3.97008
410 4.26604
415 4.45944
420 4.71191
425 5.08273
430 7.10488
435 9.04373
440 7.59902
445 6.2064
450 5.74024
455 4.94671
460 5.03677
465 4.88093
470 4.71678
475 4.49701
480 4.35779
485 4.21241
490 4.19943
495 3.69642
500 3.44233
505 3.07457
510 2.74464
515 2.6091
520 2.31778
525 2.04339
530 1.71719
535 1.77063
540 1.39704
545 1.23517
550 1.01115
555 0.988722
560 0.731329
565 0.619774
570 0.524299
575 0.43613
580 0.239108
585 0.284576
590 0.20454
595 0.146251
600 0.0166428
Ex : 393
200 0.112301
205 0.07128
210 0.0782669
215 0.0730447
220 0.0949818
225 0.0534108
230 0.107636
235 0.103559
240 0.0868223
245 0.0948679
250 0.116555
255 0.092482
260 0.109008
265 0.101557
270 0.0612763
275 0.0623943
280 0.067356
285 0.102865
290 0.0757118
295 0.0824852
300 0.0544915
305 0.111669
310 0.0785287
315 0.095127
320 0.103029
325 0.129369
330 0.0765283
335 0.139896
340 0.102364
345 0.0520817
350 0.0815613
355 0.110182
360 0.152602
365 0.160142
370 0.155483
375 0.258354
380 8.46897
385 166.318
390 288.367
395 83.8458
400 12.8329
405 4.49403
410 4.58451
415 4.92102
420 4.96698
425 4.73545
430 4.75384
435 6.44912
440 9.24276
445 7.77004
450 6.56261
455 5.48561
460 5.09863
465 4.85989
470 4.3516
475 4.39487
480 4.23388
485 3.93749
490 3.78216
495 3.55689
500 3.39214
505 3.07035
510 2.69279
515 2.41042
520 2.34011
525 2.0811
530 1.7831
535 1.604
540 1.38597
545 1.1509
550 1.06821
555 0.933021
560 0.823821
565 0.621894
570 0.556477
575 0.514265
580 0.324344
585 0.273769
590 0.244183
595 0.168383
600 0.0191613
Ex : 398
200 0.0900535
205 0.0532015
210 0.0981339
215 0.0680107
220 0.0757353
225 0.0825953
230 0.0674505
235 0.132157
240 0.0912903
245 0.079167
250 0.124767
255 0.0585625
260 0.076511
265 0.083805
270 0.107141
275 0.0746458
280 0.0847887
285 0.0830332
290 0.0564911
295 0.0782435
300 0.0841571
305 0.0835235
310 0.0593509
315 0.0605599
320 0.140558
325 0.119385
330 0.132291
335 0.126911
340 0.0878704
345 0.0801872
350 0.0878793
355 0.0884962
360 0.15614
365 0.121435
370 0.156086
375 0.182064
380 0.341898
385 9.30506
390 179.47
395 309.951
400 86.1275
405 12.5444
410 4.05725
415 3.92728
420 4.28243
425 3.9546
430 3.69721
435 3.61565
440 4.87204
445 7.34531
450 7.31866
455 5.82063
460 4.81031
465 4.34526
470 4.12195
475 3.71487
480 3.92132
485 3.60552
490 3.59914
495 3.38979
500 3.25202
505 2.79955
510 2.3686
515 2.31141
520 2.12478
525 1.74402
530 1.60682
535 1.50665
540 1.25339
545 1.25191
550 0.988103
555 0.875598
560 0.748838
565 0.590123
570 0.47122
575 0.42308
580 0.322278
585 0.240702
590 0.19967
595 0.218242
600 0.315143
Ex : 403
200 0.072427
205 0.0540334
210 0.0787753
215 0.069103
220 0.100297
225 0.0879376
230 0.0793116
235 0.0777636
240 0.114654
245 0.0966334
250 0.0494195
255 0.0752874
260 0.0928037
265 0.0888716
270 0.09182
275 0.107131
280 0.102755
285 0.0646552
290 0.0912459
295 0.0541439
300 0.0958859
305 0.0863377
310 0.0671521
315 0.0885638
320 0.0928246
325 0.081284
330 0.0728905
335 0.0863522
340 0.0786409
345 0.089533
350 0.0831262
355 0.102368
360 0.0898263
365 0.181366
370 0.129636
375 0.165858
380 0.140389
385 0.301527
390 10.1139
395 178.503
400 295.758
405 83.948
410 11.9917
415 3.53281
420 3.00486
425 3.36102
430 2.9439
435 2.91401
440 3.02026
445 3.66543
450 6.21327
455 6.92846
460 5.07204
465 4.55693
470 3.74483
475 3.62337
480 3.43501
485 2.95525
490 3.02257
495 2.95702
500 2.79061
505 2.59719
510 2.23864
515 2.0363
520 2.10292
525 1.74766
530 1.67669
535 1.41915
540 1.2317
545 0.97596
550 0.924582
555 0.748686
560 0.795063
565 0.601194
570 0.510382
575 0.458522
580 0.369856
585 0.257214
590 0.199736
595 0.196519
600 0.0223631
Ex : 408
200 0.0454212
205 0.0942838
210 0.059558
215 0.0633823
220 0.0610328
225 0.0836171
230 0.108998
235 0.0600622
240 0.0905092
245 0.0992125
250 0.0742563
255 0.0865076
260 0.0932054
265 0.117045
270 0.0857619
275 0.0893887
280 0.0677612
285 0.0813439
290 0.0886595
295 0.0702751
300 0.0968488
305 0.0714722
310 0.0854997
315 0.0801958
320 0.0765482
325 0.0848673
330 0.135487
335 0.0659496
340 0.0804589
345 0.0809513
350 0.0902592
355 0.0758089
360 0.116766
365 0.102819
370 0.136089
375 0.0905051
380 0.214274
385 0.178326
390 0.430962
395 9.72073
400 183.539
405 304.564
410 82.8498
415 11.5385
420 3.49244
425 2.71564
430 2.93675
435 2.85848
440 2.54178
445 2.7083
450 2.92497
455 5.05743
460 6.58392
465 5.00776
470 4.13087
475 3.61083
480 3.22358
485 3.00548
490 2.86644
495 2.83908
500 2.5822
505 2.51972
510 2.08083
515 2.03672
520 1.78799
525 1.7005
530 1.43917
535 1.36874
540 1.23275
545 1.04317
550 0.893654
555 0.764239
560 0.730379
565 0.639184
570 0.478883
575 0.409078
580 0.303012
585 0.180868
590 0.180166
595 0.220828
600 0.152597
Ex : 413
200 0.0944089
205 0.0603022
210 0.0904273
215 0.0837388
220 0.08638
225 0.0860969
230 0.0813377
235 0.0750325
240 0.0756891
245 0.0662449
250 0.0854786
255 0.110538
260 0.0856589
265 0.086098
270 0.0913964
275 0.0941426
280 0.0547614
285 0.118045
290 0.0994758
295 0.0528485
300 0.0825449
305 0.0735871
310 0.060445
315 0.0674414
320 0.0838911
325 0.0731827
330 0.102004
335 0.121141
340 0.0942786
345 0.072966
350 0.0539351
355 0.0760654
360 0.0728107
365 0.0859767
370 0.215063
375 0.144157
380 0.129492
385 0.136692
390 0.226332
395 0.302829
400 11.1703
405 189.823
410 307.79
415 81.6657
420 11.3268
425 3.04938
430 2.17923
435 2.61091
440 2.62168
445 2.32128
450 2.38814
455 2.56115
460 3.80562
465 6.23209
470 5.26904
475 4.06713
480 3.48084
485 2.80003
490 2.84512
495 2.64921
500 2.3207
505 2.38402
510 2.1904
515 1.90848
520 1.89967
525 1.57
530 1.45814
535 1.30262
540 1.1994
545 1.13979
550 0.90923
555 0.780719
560 0.694678
565 0.594227
570 0.550816
575 0.435767
580 0.309737
585 0.267153
590 0.198372
595 0.157613
600 0.223821
Ex : 418
200 0.0846723
205 0.0683034
210 0.0878237
215 0.0494843
220 0.0376549
225 0.0827598
230 0.0917216
235 0.114862
240 0.0676087
245 0.0725412
250 0.0636734
255 0.076792
260 0.0559004
265 0.0734798
270 0.119084
275 0.0852876
280 0.0958299
285 0.0894633
290 0.0766017
295 0.0764564
300 0.0946917
305 0.0593829
310 0.0900463
315 0.0568335
320 0.0821414
325 0.0538866
330 0.101506
335 0.0859899
340 0.0498681
345 0.102908
350 0.0779444
355 0.145057
360 0.103308
365 0.0743391
370 0.121297
375 0.146716
380 0.092281
385 0.155706
390 0.208467
395 0.224795
400 0.354809
405 10.7521
410 190.47
415 312.442
420 84.8862
425 11.3312
430 2.8042
435 1.89801
440 2.20901
445 2.25787
450 1.85587
455 2.01846
460 2.00091
465 2.82714
470 5.04329
475 5.25723
480 3.51502
485 3.50308
490 2.64112
495 2.35279
500 2.22108
505 1.95959
510 1.97234
515 1.78004
520 1.62978
525 1.55306
530 1.37739
535 1.16138
540 1.15282
545 1.00187
550 0.848083
555 0.734759
560 0.707345
565 0.64377
570 0.506614
575 0.370844
580 0.286622
585 0.242724
590 0.204272
595 0.156778
600 0.40391
Ex : 423
200 0.0659169
205 0.0678768
210 0.0676103
215 0.0718182
220 0.0504692
225 0.089434
230 0.0839865
235 0.0440676
240 0.157512
245 0.0862602
250 0.0777804
255 0.1087
260 0.0833272
265 0.0966613
270 0.055578
275 0.0579651
280 0.139236
285 0.0730818
290 0.103531
295 0.0967113
300 0.0958159
305 0.0779343
310 0.0652164
315 0.0765271
320 0.0928906
325 0.110746
330 0.0711507
335 0.133594
340 0.122435
345 0.102434
350 0.0835619
355 0.096713
360 0.0943579
365 0.085694
370 0.109198
375 0.125847
380 0.15796
385 0.131803
390 0.117167
395 0.15043
400 0.282371
405 0.358102
410 10.6401
415 198.758
420 313.68
425 80.6746
430 10.6528
435 2.45076
440 1.62696
445 1.90931
450 1.76818
455 1.59005
460 1.58072
465 1.67675
470 2.23586
475 4.2994
480 5.16583
485 3.73266
490 2.99856
495 2.5103
500 2.00195
505 1.91238
510 1.71312
515 1.57486
520 1.58776
525 1.27947
530 1.28863
535 1.1495
540 1.05696
545 0.996475
550 0.918358
555 0.743197
560 0.573002
565 0.602458
570 0.456105
575 0.356339
580 0.284777
585 0.238179
590 0.211519
595 0.164917
600 0.018767
Ex : 428
200 0.0694744
205 0.0718786
210 0.0713781
215 0.0630358
220 0.064263
225 0.0903633
230 0.0903841
235 0.0599578
240 0.0373452
245 0.0660482
250 0.102479
255 0.10066
260 0.0970673
265 0.0520653
270 0.127421
275 0.0888523
280 0.0787185
285 0.122453
290 0.0619203
295 0.0492768
300 0.0825793
305 0.0811825
310 0.067127
315 0.0748729
320 0.0678453
325 0.0616924
330 0.126305
335 0.0929235
340 0.0705259
345 0.0851729
350 0.0624612
355 0.0776248
360 0.154557
365 0.120487
370 0.0762615
375 0.0931934
380 0.116224
385 0.143023
390 0.161614
395 0.168527
400 0.15701
405 0.258653
410 0.372588
415 11.8908
420 198.846
425 317.083
430 84.867
435 11.0039
440 2.31978
445 1.55529
450 1.68828
455 1.89654
460 1.49699
465 1.37401
470 1.53815
475 1.68932
480 3.32107
485 4.81384
490 3.67189
495 2.68098
500 2.25638
505 1.75555
510 1.66426
515 1.63107
520 1.44079
525 1.40844
530 1.28864
535 1.19296
540 0.991008
545 0.919155
550 0.813389
555 0.700866
560 0.644441
565 0.534682
570 0.501187
575 0.336476
580 0.270856
585 0.266408
590 0.214862
595 0.205107
600 0.231686
Ex : 433
200 0.0607757
205 0.04526
210 0.0729282
215 0.048913
220 0.104573
225 0.0549883
230 0.0735111
235 0.117498
240 0.0814963
245 0.0565669
250 0.0837256
255 0.10693
260 0.106855
265 0.107707
270 0.135559
275 0.0935193
280 0.07484
285 0.0747292
290 0.106424
295 0.123011
300 0.0743903
305 0.0603466
310 0.0519102
315 0.0638664
320 0.0714318
325 0.0725877
330 0.0894017
335 0.123843
340 0.0632466
345 0.105142
350 0.0592479
355 0.101749
360 0.069574
365 0.0807187
370 0.132551
375 0.0884519
380 0.110308
385 0.147135
390 0.117183
395 0.123245
400 0.123942
405 0.178983
410 0.295597
415 0.442065
420 13.2545
425 215.604
430 324.618
435 82.1227
440 10.7003
445 2.43228
450 1.30148
455 1.63337
460 1.80901
465 1.45301
470 1.34008
475 1.35804
480 1.59354
485 2.46456
490 4.53309
495 3.90304
500 2.53202
505 2.19627
510 1.82658
515 1.60247
520 1.30017
525 1.43316
530 1.141
535 1.10158
540 1.01569
545 0.971153
550 0.913514
555 0.691335
560 0.59347
565 0.616259
570 0.57982
575 0.38447
580 0.279176
585 0.265935
590 0.19091
595 0.206634
600 0.334723
Ex : 438
200 0.0727129
205 0.0682048
210 0.148721
215 0.116181
220 0.135136
225 0.0861078
230 0.103976
235 0.115716
240 0.0796227
245 0.0522919
250 0.0705968
255 0.0676527
260 0.0737016
265 0.107349
270 0.0969074
275 0.115911
280 0.0902021
285 0.0970125
290 0.064311
295 0.0890957
300 0.0903953
305 0.0762482
310 0.105325
315 0.0768557
320 0.0727671
325 0.0722532
330 0.0922099
335 0.0439751
340 0.0803414
345 0.0882767
350 0.0847993
355 0.0787231
360 0.0792683
365 0.14797
370 0.112966
375 0.10009
380 0.139612
385 0.142802
390 0.130014
395 0.117175
400 0.167041
405 0.189692
410 0.154047
415 0.318766
420 0.361202
425 12.1947
430 211.338
435 337.262
440 85.8152
445 11.08
450 2.50129
455 1.27304
460 1.51902
465 1.60595
470 1.5189
475 1.20917
480 1.23059
485 1.40094
490 1.97569
495 3.8281
500 4.13984
505 2.73554
510 2.13299
515 1.85341
520 1.47402
525 1.2293
530 1.13909
535 1.08698
540 1.03482
545 0.983381
550 0.709403
555 0.694296
560 0.675502
565 0.606151
570 0.497156
575 0.380599
580 0.269551
585 0.259092
590 0.163718
595 0.210346
600 0.210662
Ex : 443
200 0.14525
205 0.0987555
210 0.10101
215 0.0869905
220 0.0851173
225 0.0929872
230 0.117701
235 0.10731
240 0.084632
245 0.0775029
250 0.107334
255 0.0856538
260 0.165204
265 0.0981526
270 0.104431
275 0.0763625
280 0.0769087
285 0.0611198
290 0.103664
295 0.140467
300 0.0748786
305 0.0903595
310 0.0593294
315 0.0623841
320 0.0825328
325 0.0866269
330 0.0857935
335 0.0993911
340 0.0920949
345 0.0988299
350 0.0885791
355 0.0557657
360 0.0913615
365 0.132088
370 0.109575
375 0.11349
380 0.0816039
385 0.125167
390 0.104521
395 0.10403
400 0.126332
405 0.121521
410 0.168653
415 0.158472
420 0.243027
425 0.395313
430 13.6939
435 224.877
440 343.928
445 86.6445
450 11.1982
455 2.33291
460 1.36685
465 1.45173
470 1.63481
475 1.46114
480 1.36227
485 1.20583
490 1.39802
495 1.59546
500 3.0967
505 4.05015
510 2.7461
515 2.02536
520 1.76314
525 1.50004
530 1.23426
535 1.09341
540 0.977489
545 0.828627
550 0.726819
555 0.780394
560 0.672005
565 0.455661
570 0.422422
575 0.397878
580 0.337524
585 0.24117
590 0.20028
595 0.180711
600 0.0894246
Ex : 448
200 0.0840913
205 0.138914
210 0.0798048
215 0.067293
220 0.0836323
225 0.0654429
230 0.100377
235 0.122438
240 0.090448
245 0.0716446
250 0.0928599
255 0.0631839
260 0.0778017
265 0.0818258
270 0.111766
275 0.0953545
280 0.121591
285 0.0723608
290 0.0536296
295 0.0883309
300 0.0703187
305 0.100278
310 0.0935434
315 0.0964981
320 0.0724012
325 0.0878641
330 0.105118
335 0.107806
340 0.072008
345 0.0608548
350 0.0887832
355 0.105745
360 0.0851363
365 0.0831807
370 0.0818495
375 0.108263
380 0.0816068
385 0.0780542
390 0.0974316
395 0.122702
400 0.105762
405 0.201814
410 0.15476
415 0.175364
420 0.21636
425 0.243303
430 0.420187
435 14.1706
440 237.656
445 359.13
450 90.1497
455 11.3944
460 2.46737
465 1.25858
470 1.36126
475 1.65381
480 1.42098
485 1.28419
490 1.28621
495 1.14903
500 1.34062
505 2.36217
510 3.74352
515 3.03278
520 1.83871
525 1.75163
530 1.45071
535 1.2484
540 0.9155
545 0.896071
550 0.852113
555 0.764966
560 0.620147
565 0.499542
570 0.45781
575 0.416493
580 0.332958
585 0.237473
590 0.14376
595 0.168298
600 0.443116
Ex : 453
200 0.0811544
205 0.0699834
210 0.0601331
215 0.0972362
220 0.0918541
225 0.0677616
230 0.0816122
235 0.067838
240 0.0903154
245 0.0650742
250 0.0601562
255 0.0871032
260 0.115749
265 0.123408
270 0.100056
275 0.0960116
280 0.102735
285 0.0642651
290 0.0534801
295 0.0939272
300 0.0762957
305 0.0706
310 0.0959968
315 0.137122
320 0.105036
325 0.142513
330 0.101642
335 0.0744107
340 0.104308
345 0.0990276
350 0.123774
355 0.109266
360 0.0911705
365 0.108378
370 0.0773638
375 0.0926184
380 0.112642
385 0.0725939
390 0.0741847
395 0.101053
400 0.120926
405 0.129688
410 0.140388
415 0.140623
420 0.122558
425 0.206523
430 0.269383
435 0.405417
440 14.6488
445 249.909
450 361.562
455 85.7359
460 11.0435
465 2.36082
470 1.25985
475 1.35121
480 1.64307
485 1.55639
490 1.21231
495 1.15984
500 1.16314
505 1.19263
510 1.80687
515 3.43545
520 3.18317
525 2.12045
530 1.67029
535 1.58149
540 1.14062
545 0.902646
550 0.899457
555 0.70447
560 0.649666
565 0.534466
570 0.496779
575 0.431683
580 0.310125
585 0.228052
590 0.225819
595 0.18184
600 0.0263373
Ex : 458
200 0.0900117
205 0.0579295
210 0.0920319
215 0.070962
220 0.109907
225 0.0603929
230 0.0766407
235 0.0913959
240 0.0815773
245 0.090859
250 0.0735256
255 0.0888866
260 0.0877245
265 0.0944992
270 0.0804613
275 0.0765855
280 0.0856795
285 0.0707139
290 0.0663361
295 0.0726027
300 0.0787107
305 0.104493
310 0.0830993
315 0.104852
320 0.0846669
325 0.0963785
330 0.0709923
335 0.0884276
340 0.0596957
345 0.0503883
350 0.0787073
355 0.121794
360 0.0927678
365 0.0848362
370 0.0867062
375 0.0737947
380 0.0956234
385 0.100303
390 0.089949
395 0.102438
400 0.135447
405 0.103441
410 0.127711
415 0.154353
420 0.158583
425 0.194786
430 0.193968
435 0.200217
440 0.388232
445 16.4693
450 255.128
455 378.28
460 93.6562
465 11.9879
470 2.54803
475 1.31784
480 1.35932
485 1.50727
490 1.35447
495 1.29939
500 1.18081
505 1.07052
510 1.1899
515 1.36092
520 2.49736
525 3.41454
530 2.53816
535 1.49461
540 1.41463
545 1.17808
550 0.946665
555 0.798988
560 0.717083
565 0.561281
570 0.476931
575 0.436114
580 0.331453
585 0.257687
590 0.260791
595 0.210691
600 0.0706181
Ex : 463
200 0.080474
205 0.115489
210 0.124832
215 0.093134
220 0.0998581
225 0.0737648
230 0.0841503
235 0.0909601
240 0.0556
245 0.0660379
250 0.143291
255 0.0820423
260 0.0679867
265 0.0929159
270 0.0911315
275 0.092811
280 0.0787161
285 0.0758763
290 0.0870601
295 0.0789992
300 0.0646981
305 0.104111
310 0.108331
315 0.0985108
320 0.0826687
325 0.0806586
330 0.0633078
335 0.0635671
340 0.109596
345 0.102057
350 0.0991755
355 0.162162
360 0.0963071
365 0.0998586
370 0.0584295
375 0.0987391
380 0.0823255
385 0.0988924
390 0.0964705
395 0.0973403
400 0.0889836
405 0.0931141
410 0.122771
415 0.130846
420 0.113082
425 0.156743
430 0.2274
435 0.214873
440 0.251727
445 0.495896
450 15.135
455 259.023
460 396.449
465 96.9719
470 12.2739
475 2.48726
480 1.28645
485 1.23715
490 1.48862
495 1.4577
500 1.22409
505 1.0451
510 1.05184
515 1.02797
520 1.22233
525 1.86706
530 3.19008
535 2.61799
540 1.62927
545 1.5222
550 1.32761
555 0.887157
560 0.701312
565 0.645831
570 0.590223
575 0.454567
580 0.338822
585 0.318486
590 0.231524
595 0.235298
600 0.793735
Ex : 468
200 0.062117
205 0.0843853
210 0.0853869
215 0.0862206
220 0.0685314
225 0.0770006
230 0.116528
235 0.073871
240 0.107738
245 0.0903232
250 0.0598073
255 0.0736979
260 0.0831196
265 0.0544492
270 0.0743032
275 0.0860412
280 0.0744648
285 0.10357
290 0.091557
295 0.0767192
300 0.110889
305 0.0803752
310 0.0664726
315 0.0964008
320 0.0902598
325 0.070586
330 0.0835658
335 0.0578615
340 0.0803288
345 0.106282
350 0.0907334
355 0.0729725
360 0.0715087
365 0.0908908
370 0.102323
375 0.104551
380 0.0940311
385 0.11217
390 0.105789
395 0.120121
400 0.12183
405 0.0699202
410 0.128273
415 0.120321
420 0.101221
425 0.119943
430 0.132302
435 0.134703
440 0.196616
445 0.273457
450 0.462802
455 16.8083
460 260.403
465 411.529
470 99.9556
475 12.621
480 2.59344
485 1.21638
490 1.19583
495 1.44898
500 1.53003
505 1.26084
510 1.02574
515 1.07217
520 1.13581
525 1.21437
530 1.5756
535 2.74862
540 3.03125
545 1.90161
550 1.44616
555 1.28838
560 0.866008
565 0.612759
570 0.474985
575 0.490676
580 0.381293
585 0.266986
590 0.234538
595 0.235003
600 0.182918
Ex : 473
200 0.115125
205 0.101887
210 0.0766092
215 0.092207
220 0.108345
225 0.0718159
230 0.0623843
235 0.0962613
240 0.0815945
245 0.0972455
250 0.0877983
255 0.0883972
260 0.0787145
265 0.121737
270 0.10367
275 0.0917564
280 0.0799694
285 0.0859
290 0.0711793
295 0.0908789
300 0.0715381
305 0.0862702
310 0.101785
315 0.101965
320 0.096789
325 0.0985626
330 0.0973242
335 0.107419
340 0.0731604
345 0.0857212
350 0.0824387
355 0.109586
360 0.0750723
365 0.0901969
370 0.0698128
375 0.0979941
380 0.105006
385 0.0691475
390 0.11197
395 0.0861103
400 0.104088
405 0.102988
410 0.0883166
415 0.107577
420 0.106996
425 0.107311
430 0.220872
435 0.151391
440 0.195022
445 0.196929
450 0.2486
455 0.450775
460 19.3579
465 284.612
470 399.111
475 94.1442
480 11.8795
485 2.39182
490 1.22767
495 1.015
500 1.33168
505 1.34026
510 1.17643
515 1.01532
520 1.07466
525 1.07386
530 1.17887
535 1.34125
540 2.38558
545 2.8548
550 2.03275
555 1.33155
560 1.04912
565 0.807699
570 0.655553
575 0.475849
580 0.35906
585 0.35184
590 0.231832
595 0.211095
600 0.026583
Ex : 478
200 0.12523
205 0.127775
210 0.0954578
215 0.0873127
220 0.121675
225 0.118923
230 0.0852162
235 0.081778
240 0.129445
245 0.101013
250 0.0799969
255 0.0721359
260 0.0690953
265 0.0765833
270 0.142995
275 0.0554518
280 0.109862
285 0.101806
290 0.103722
295 0.0810472
300 0.060452
305 0.0705683
310 0.121902
315 0.123184
320 0.153768
325 0.108966
330 0.0997362
335 0.127629
340 0.121863
345 0.0943639
350 0.11319
355 0.0887683
360 0.134257
365 0.130821
370 0.112436
375 0.0990321
380 0.0947367
385 0.108385
390 0.122436
395 0.0894241
400 0.146751
405 0.140266
410 0.0973091
415 0.0879076
420 0.0975465
425 0.144252
430 0.155063
435 0.162253
440 0.128603
445 0.194959
450 0.230577
455 0.318062
460 0.545709
465 20.6414
470 292.509
475 409.028
480 99.4834
485 12.5263
490 2.58821
495 1.14816
500 0.988447
505 1.21683
510 1.36316
515 1.2232
520 1.05784
525 0.974007
530 0.984443
535 1.1199
540 1.12608
545 1.68559
550 2.44287
555 2.04816
560 1.2248
565 0.978833
570 0.790168
575 0.608308
580 0.371991
585 0.305354
590 0.293943
595 0.24242
600 0.219701
Ex : 483
200 0.0957025
205 0.101791
210 0.0670406
215 0.0851133
220 0.0913368
225 0.119994
230 0.125673
235 0.0913912
240 0.103767
245 0.0633043
250 0.0753168
255 0.086572
260 0.0766944
265 0.103221
270 0.0730652
275 0.0870093
280 0.098411
285 0.0779862
290 0.101784
295 0.0811395
300 0.0781998
305 0.13997
310 0.0972162
315 0.12346
320 0.113281
325 0.107791
330 0.0867901
335 0.118688
340 0.0831165
345 0.0962991
350 0.0980135
355 0.146494
360 0.111655
365 0.12978
370 0.0865948
375 0.124535
380 0.109864
385 0.113091
390 0.138237
395 0.0966029
400 0.11721
405 0.111001
410 0.0829652
415 0.0928364
420 0.0701306
425 0.090791
430 0.167879
435 0.139516
440 0.16865
445 0.16863
450 0.242158
455 0.291019
460 0.350177
465 0.538722
470 17.0593
475 301.202
480 454.011
485 108.291
490 13.3635
495 2.46984
500 1.22548
505 0.867229
510 1.0991
515 1.32502
520 1.19503
525 1.08905
530 1.10781
535 1.06726
540 1.1357
545 1.07731
550 1.27313
555 2.19363
560 2.18691
565 1.247
570 0.852662
575 0.671781
580 0.47217
585 0.350834
590 0.24471
595 0.24447
600 0.421688
Ex : 488
200 0.140983
205 0.126757
210 0.136442
215 0.0553458
220 0.0957556
225 0.0871512
230 0.098389
235 0.0922023
240 0.0897416
245 0.0986289
250 0.112066
255 0.088685
260 0.138481
265 0.108823
270 0.085265
275 0.0875633
280 0.104833
285 0.137763
290 0.158434
295 0.134322
300 0.126307
305 0.111785
310 0.130223
315 0.102812
320 0.144805
325 0.09308
330 0.113562
335 0.0887618
340 0.104876
345 0.114922
350 0.12268
355 0.172562
360 0.105346
365 0.117625
370 0.082032
375 0.0837859
380 0.185407
385 0.170662
390 0.191605
395 0.14892
400 0.0924586
405 0.160214
410 0.149373
415 0.13487
420 0.162177
425 0.130798
430 0.189237
435 0.147069
440 0.114051
445 0.130997
450 0.181579
455 0.204004
460 0.257486
465 0.399243
470 0.556814
475 19.5351
480 310.498
485 434.33
490 101.944
495 12.6331
500 2.35509
505 1.20255
510 0.903063
515 1.00033
520 1.38798
525 1.26494
530 1.17222
535 1.08147
540 0.995358
545 1.03878
550 0.942418
555 0.881862
560 1.69522
565 2.10927
570 1.25774
575 0.692142
580 0.525142
585 0.357011
590 0.287197
595 0.241181
600 0.318285
Ex : 493
200 0.0814099
205 0.0779234
210 0.0943995
215 0.1137
220 0.0943853
225 0.116921
230 0.128563
235 0.12457
240 0.138257
245 0.0946422
250 0.0850649
255 0.0826206
260 0.103573
265 0.0751783
270 0.0985348
275 0.100383
280 0.0907714
285 0.165409
290 0.10928
295 0.0917864
300 0.099122
305 0.107663
310 0.0894606
315 0.127962
320 0.102881
325 0.124203
330 0.09502
335 0.0840709
340 0.0664895
345 0.100076
350 0.0955042
355 0.135415
360 0.135641
365 0.0931091
370 0.108228
375 0.161551
380 0.119243
385 0.0940894
390 0.135713
395 0.116406
400 0.117359
405 0.101595
410 0.0794649
415 0.125192
420 0.11772
425 0.0939748
430 0.100088
435 0.154719
440 0.160246
445 0.208418
450 0.159702
455 0.195479
460 0.222996
465 0.195837
470 0.378684
475 0.596033
480 18.855
485 308.416
490 442.81
495 103.999
500 12.8251
505 2.35791
510 1.10815
515 0.845366
520 0.943778
525 1.3055
530 1.35353
535 1.27537
540 1.03594
545 1.00715
550 0.964391
555 0.877653
560 0.844618
565 1.03087
570 1.54299
575 1.2747
580 0.651308
585 0.465108
590 0.388014
595 0.286758
600 0.032632
Ex : 498
200 0.100229
205 0.0915402
210 0.103152
215 0.0851816
220 0.0810894
225 0.144295
230 0.0825482
235 0.0968539
240 0.124583
245 0.118919
250 0.172828
255 0.127977
260 0.120285
265 0.122501
270 0.11537
275 0.096847
280 0.118852
285 0.0909428
290 0.154845
295 0.128008
300 0.128082
305 0.168507
310 0.12461
315 0.110364
320 0.13944
325 0.100702
330 0.0869138
335 0.0840918
340 0.14217
345 0.175549
350 0.0851953
355 0.123201
360 0.131597
365 0.111898
370 0.114337
375 0.0752945
380 0.0783692
385 0.0926052
390 0.113197
395 0.183558
400 0.115705
405 0.130366
410 0.135012
415 0.130716
420 0.130583
425 0.171348
430 0.178068
435 0.212812
440 0.112625
445 0.131203
450 0.167166
455 0.188927
460 0.204118
465 0.238506
470 0.229801
475 0.379413
480 0.549207
485 21.7752
490 325.279
495 435.932
500 101.526
505 12.6317
510 2.41429
515 1.25848
520 0.908179
525 0.991159
530 1.24223
535 1.28928
540 1.18782
545 0.94376
550 0.855025
555 0.825561
560 0.785942
565 0.72536
570 0.702336
575 1.1164
580 1.08632
585 0.63175
590 0.451756
595 0.267354
600 0.562146
Ex : 503
200 0.185041
205 0.110643
210 0.110744
215 0.102317
220 0.103712
225 0.106099
230 0.112384
235 0.140768
240 0.112648
245 0.100397
250 0.10882
255 0.152777
260 0.123647
265 0.0770264
270 0.114574
275 0.102205
280 0.101286
285 0.0668193
290 0.139924
295 0.124015
300 0.0999257
305 0.13968
310 0.138185
315 0.162972
320 0.148798
325 0.107071
330 0.218077
335 0.188939
340 0.173953
345 0.143382
350 0.25049
355 0.117886
360 0.126587
365 0.123755
370 0.113063
375 0.120376
380 0.126613
385 0.120673
390 0.161386
395 0.140236
400 0.134832
405 0.128247
410 0.125476
415 0.121972
420 0.146796
425 0.151511
430 0.139627
435 0.0902901
440 0.156122
445 0.170375
450 0.166776
455 0.201231
460 0.196138
465 0.221997
470 0.277709
475 0.244986
480 0.307004
485 0.505092
490 18.842
495 307.44
500 436.899
505 100.89
510 12.4405
515 2.32806
520 1.20562
525 0.976593
530 1.10691
535 1.19193
540 1.18375
545 1.17503
550 0.866399
555 0.783275
560 0.738916
565 0.592812
570 0.569481
575 0.475482
580 0.736063
585 0.848567
590 0.619356
595 0.245333
600 0.0357605
Ex : 508
200 0.105171
205 0.135371
210 0.206945
215 0.0974893
220 0.102047
225 0.103764
230 0.119944
235 0.135084
240 0.121311
245 0.111916
250 0.152622
255 0.105364
260 0.0969085
265 0.199429
270 0.163123
275 0.109097
280 0.0817133
285 0.132923
290 0.100098
295 0.124737
300 0.120061
305 0.122982
310 0.185713
315 0.123156
320 0.139924
325 0.168271
330 0.192656
335 0.147369
340 0.153349
345 0.140629
350 0.150267
355 0.158764
360 0.0850274
365 0.121023
370 0.119859
375 0.147487
380 0.177823
385 0.140224
390 0.151264
395 0.113396
400 0.141508
405 0.16705
410 0.146737
415 0.125874
420 0.137983
425 0.0970326
430 0.179531
435 0.148592
440 0.0993944
445 0.207469
450 0.238755
455 0.192386
460 0.228752
465 0.180094
470 0.210513
475 0.214745
480 0.32795
485 0.33965
490 0.580009
495 21.0213
500 308.896
505 439.611
510 105.996
515 13.1025
520 2.38979
525 1.35474
530 1.18804
535 0.995113
540 1.10571
545 1.17999
550 1.02601
555 1.04956
560 0.759082
565 0.622118
570 0.548812
575 0.450421
580 0.433559
585 0.463735
590 0.869757
595 0.574582
600 0.611675
Ex : 513
200 0.110232
205 0.0968397
210 0.141511
215 0.154168
220 0.0902925
225 0.119315
230 0.156147
235 0.11935
240 0.156758
245 0.118829
250 0.143693
255 0.140656
260 0.0951226
265 0.0943198
270 0.16233
275 0.136646
280 0.120623
285 0.0943812
290 0.124931
295 0.0934982
300 0.100503
305 0.104601
310 0.121993
315 0.217118
320 0.105821
325 0.12124
330 0.226305
335 0.178663
340 0.129104
345 0.155742
350 0.165225
355 0.106349
360 0.150316
365 0.178107
370 0.174967
375 0.134343
380 0.142919
385 0.117345
390 0.129726
395 0.190829
400 0.113371
405 0.131181
410 0.130901
415 0.164875
420 0.203151
425 0.16393
430 0.165399
435 0.139346
440 0.196725
445 0.204067
450 0.220012
455 0.202954
460 0.184865
465 0.197898
470 0.188646
475 0.222927
480 0.247619
485 0.264334
490 0.315017
495 0.484581
500 18.3353
505 298.819
510 435.588
515 109.337
520 13.5965
525 2.35212
530 1.33527
535 1.1942
540 1.0222
545 1.07756
550 1.22943
555 0.89874
560 0.789484
565 0.518974
570 0.61059
575 0.402296
580 0.356464
585 0.396511
590 0.284986
595 0.378466
600 0.310601
Ex : 518
200 0.11516
205 0.106759
210 0.135952
215 0.107924
220 0.0929287
225 0.10886
230 0.212801
235 0.0980917
240 0.147855
245 0.108932
250 0.126643
255 0.192264
260 0.146584
265 0.157387
270 0.170633
275 0.166863
280 0.167399
285 0.188644
290 0.178636
295 0.15783
300 0.142696
305 0.0924555
310 0.10337
315 0.0914185
320 0.103048
325 0.157078
330 0.187258
335 0.158027
340 0.142929
345 0.139712
350 0.101475
355 0.121762
360 0.0931809
365 0.119556
370 0.140045
375 0.209758
380 0.110542
385 0.139006
390 0.143979
395 0.167977
400 0.178845
405 0.12082
410 0.183843
415 0.092387
420 0.189183
425 0.0931522
430 0.177493
435 0.123098
440 0.161248
445 0.187482
450 0.191068
455 0.156168
460 0.205235
465 0.153733
470 0.167878
475 0.160091
480 0.233249
485 0.154749
490 0.271602
495 0.355672
500 0.567084
505 18.8347
510 292.655
515 431.704
520 107.095
525 13.3605
530 2.44576
535 1.21695
540 1.0291
545 0.920797
550 1.06573
555 0.927674
560 0.953597
565 0.88953
570 0.631921
575 0.370245
580 0.296838
585 0.309573
590 0.298182
595 0.169331
600 1.91155
Ex : 523
200 0.0993033
205 0.119727
210 0.140315
215 0.11558
220 0.109021
225 0.119687
230 0.120808
235 0.116927
240 0.118609
245 0.158668
250 0.141344
255 0.159322
260 0.126903
265 0.141506
270 0.126446
275 0.123412
280 0.187156
285 0.115434
290 0.1136
295 0.0887409
300 0.0729392
305 0.186831
310 0.194273
315 0.105749
320 0.191535
325 0.154145
330 0.139651
335 0.178015
340 0.131072
345 0.100245
350 0.171727
355 0.146473
360 0.11928
365 0.0955182
370 0.121252
375 0.200323
380 0.236779
385 0.156248
390 0.123586
395 0.137057
400 0.132335
405 0.145711
410 0.150861
415 0.122326
420 0.141742
425 0.113475
430 0.150247
435 0.196507
440 0.123122
445 0.151128
450 0.130428
455 0.154394
460 0.191484
465 0.147501
470 0.258171
475 0.184638
480 0.215452
485 0.265836
490 0.326915
495 0.301233
500 0.362177
505 0.5488
510 16.9511
515 284.426
520 433.418
525 110.155
530 13.8012
535 2.4711
540 1.43565
545 1.17523
550 1.08163
555 1.01552
560 0.898034
565 0.881019
570 0.635783
575 0.548131
580 0.419137
585 0.320068
590 0.237642
595 0.245247
600 0.111264
Ex : 528
200 0.149083
205 0.161743
210 0.0749534
215 0.107643
220 0.0943732
225 0.121637
230 0.145451
235 0.12646
240 0.0996816
245 0.112704
250 0.205356
255 0.128456
260 0.131181
265 0.091707
270 0.183251
275 0.141463
280 0.0858334
285 0.17931
290 0.11706
295 0.0948457
300 0.0774453
305 0.186314
310 0.137056
315 0.137891
320 0.101411
325 0.182825
330 0.145272
335 0.158467
340 0.106186
345 0.0997206
350 0.0845851
355 0.110251
360 0.242586
365 0.132992
370 0.162509
375 0.13669
380 0.154207
385 0.192548
390 0.158591
395 0.150203
400 0.190862
405 0.148877
410 0.192467
415 0.149246
420 0.170258
425 0.231375
430 0.166096
435 0.136175
440 0.121329
445 0.130318
450 0.1432
455 0.164177
460 0.168082
465 0.153963
470 0.172455
475 0.178062
480 0.159995
485 0.136886
490 0.219719
495 0.182647
500 0.202872
505 0.365685
510 0.61456
515 16.6111
520 282.56
525 424.639
530 108.755
535 13.6002
540 2.70786
545 1.37859
550 1.10112
555 0.907815
560 0.778261
565 0.763264
570 0.58307
575 0.4801
580 0.423242
585 0.273462
590 0.267194
595 0.172207
600 0.259233
Ex : 533
200 0.102117
205 0.107481
210 0.118812
215 0.123037
220 0.188393
225 0.143175
230 0.129857
235 0.159652
240 0.159482
245 0.0935725
250 0.113503
255 0.142759
260 0.170987
265 0.150759
270 0.122837
275 0.102777
280 0.16905
285 0.14111
290 0.126121
295 0.090252
300 0.110842
305 0.144109
310 0.16098
315 0.122618
320 0.0971012
325 0.106449
330 0.0984685
335 0.0710372
340 0.0928084
345 0.160814
350 0.237904
355 0.202281
360 0.154354
365 0.154548
370 0.133794
375 0.111503
380 0.151186
385 0.0868331
390 0.154504
395 0.106079
400 0.185193
405 0.111053
410 0.119982
415 0.220795
420 0.225973
425 0.130765
430 0.142723
435 0.141648
440 0.182178
445 0.177441
450 0.199264
455 0.12333
460 0.164617
465 0.135403
470 0.192316
475 0.123972
480 0.167472
485 0.192346
490 0.262616
495 0.220343
500 0.239793
505 0.234176
510 0.365809
515 0.547679
520 15.6363
525 260.881
530 410.125
535 107.483
540 13.3985
545 2.52653
550 1.18862
555 1.10143
560 0.814176
565 0.623948
570 0.642095
575 0.501729
580 0.568007
585 0.280489
590 0.273793
595 0.213591
600 0.0243058
Ex : 538
200 0.122055
205 0.095439
210 0.141256
215 0.135956
220 0.104379
225 0.126999
230 0.160994
235 0.127397
240 0.1531
245 0.100343
250 0.142491
255 0.0991453
260 0.147905
265 0.152294
270 0.177665
275 0.192573
280 0.178072
285 0.133892
290 0.133075
295 0.143429
300 0.186525
305 0.210125
310 0.126006
315 0.115534
320 0.166675
325 0.186702
330 0.206979
335 0.11184
340 0.144693
345 0.224177
350 0.12796
355 0.141294
360 0.118183
365 0.133448
370 0.197673
375 0.137947
380 0.174978
385 0.198214
390 0.200166
395 0.17694
400 0.222434
405 0.116493
410 0.165108
415 0.164862
420 0.254792
425 0.149344
430 0.14782
435 0.149044
440 0.0991952
445 0.181469
450 0.142518
455 0.140763
460 0.172203
465 0.162251
470 0.229241
475 0.143217
480 0.203315
485 0.199135
490 0.147447
495 0.228857
500 0.136833
505 0.243581
510 0.218402
515 0.357828
520 0.502891
525 14.5093
530 250.641
535 413.783
540 116.14
545 14.4948
550 2.70457
555 1.00462
560 0.734024
565 0.670203
570 0.473844
575 0.4605
580 0.5016
585 0.316229
590 0.264802
595 0.246306
600 0.0280287
Ex : 543
200 0.113627
205 0.137001
210 0.161405
215 0.105419
220 0.15417
225 0.148781
230 0.172111
235 0.0879174
240 0.0827219
245 0.135963
250 0.233993
255 0.128777
260 0.124517
265 0.155527
270 0.135364
275 0.191535
280 0.181372
285 0.0857666
290 0.134401
295 0.117119
300 0.109038
305 0.144259
310 0.195093
315 0.136034
320 0.120252
325 0.147546
330 0.143204
335 0.148344
340 0.159494
345 0.134734
350 0.170842
355 0.157678
360 0.172244
365 0.125596
370 0.122455
375 0.0846527
380 0.137429
385 0.147892
390 0.0868178
395 0.15397
400 0.173737
405 0.145867
410 0.201308
415 0.210553
420 0.150544
425 0.152882
430 0.116817
435 0.172537
440 0.207261
445 0.190486
450 0.250446
455 0.149104
460 0.235035
465 0.135175
470 0.150412
475 0.227032
480 0.144761
485 0.149912
490 0.266042
495 0.200128
500 0.19453
505 0.249068
510 0.183081
515 0.292147
520 0.358934
525 0.60562
530 12.8601
535 240.463
540 413.345
545 116.473
550 14.3979
555 2.24211
560 0.893286
565 0.662326
570 0.477559
575 0.398486
580 0.339408
585 0.349465
590 0.331299
595 0.216303
600 0.581519
Ex : 548
200 0.102259
205 0.192106
210 0.169481
215 0.136697
220 0.239894
225 0.139856
230 0.177132
235 0.143912
240 0.101277
245 0.144413
250 0.141414
255 0.200501
260 0.162282
265 0.135917
270 0.121117
275 0.111225
280 0.174872
285 0.127976
290 0.110094
295 0.164782
300 0.155996
305 0.134843
310 0.0889016
315 0.110453
320 0.184561
325 0.1204
330 0.230084
335 0.139578
340 0.20814
345 0.143176
350 0.173931
355 0.18801
360 0.158509
365 0.127552
370 0.148921
375 0.153807
380 0.223653
385 0.224434
390 0.146794
395 0.167809
400 0.142241
405 0.195204
410 0.118131
415 0.116795
420 0.111569
425 0.141276
430 0.105447
435 0.111453
440 0.192081
445 0.179728
450 0.163
455 0.139918
460 0.172468
465 0.1991
470 0.127081
475 0.14174
480 0.0970563
485 0.157417
490 0.230583
495 0.212415
500 0.194638
505 0.211617
510 0.205584
515 0.241735
520 0.259914
525 0.348997
530 0.494517
535 13.2063
540 241.307
545 400.479
550 113.693
555 14.0234
560 2.11001
565 0.658512
570 0.458241
575 0.483341
580 0.336433
585 0.287288
590 0.254456
595 0.16935
600 0.0192713
Ex : 553
200 0.175861
205 0.116494
210 0.134335
215 0.133913
220 0.22277
225 0.119194
230 0.101919
235 0.101407
240 0.187606
245 0.133044
250 0.127828
255 0.0837712
260 0.174051
265 0.12397
270 0.102877
275 0.171404
280 0.13464
285 0.144894
290 0.125029
295 0.111971
300 0.189556
305 0.122307
310 0.130252
315 0.141673
320 0.102703
325 0.14224
330 0.142715
335 0.192611
340 0.159622
345 0.100855
350 0.119517
355 0.23874
360 0.157995
365 0.118764
370 0.134117
375 0.108362
380 0.157525
385 0.124873
390 0.17079
395 0.143396
400 0.176277
405 0.147175
410 0.181756
415 0.253697
420 0.165706
425 0.153194
430 0.171807
435 0.214793
440 0.169284
445 0.225361
450 0.220053
455 0.176418
460 0.139194
465 0.128498
470 0.166536
475 0.17149
480 0.218494
485 0.233228
490 0.175813
495 0.171106
500 0.119424
505 0.213959
510 0.235598
515 0.206176
520 0.212178
525 0.243637
530 0.317501
535 0.470286
540 11.1622
545 224.447
550 386.019
555 111.663
560 13.6456
565 1.99392
570 0.578829
575 0.475808
580 0.267223
585 0.294107
590 0.230056
595 0.216392
600 0.164552
Ex : 558
200 0.17604
205 0.0906982
210 0.101953
215 0.154282
220 0.119047
225 0.145376
230 0.158408
235 0.146081
240 0.221684
245 0.126143
250 0.134282
255 0.160224
260 0.138967
265 0.142028
270 0.181965
275 0.113207
280 0.12196
285 0.120279
290 0.127924
295 0.225314
300 0.224552
305 0.244069
310 0.119517
315 0.123893
320 0.149734
325 0.118382
330 0.130623
335 0.0859572
340 0.125385
345 0.19574
350 0.284057
355 0.207986
360 0.190748
365 0.204149
370 0.150678
375 0.171342
380 0.223611
385 0.189472
390 0.178374
395 0.153767
400 0.201019
405 0.200837
410 0.137991
415 0.193867
420 0.114119
425 0.19936
430 0.188542
435 0.180488
440 0.147433
445 0.103617
450 0.194237
455 0.208863
460 0.149721
465 0.179269
470 0.231224
475 0.159365
480 0.136553
485 0.274246
490 0.20185
495 0.134675
500 0.18165
505 0.115443
510 0.197212
515 0.357036
520 0.269402
525 0.194931
530 0.254228
535 0.334593
540 0.433219
545 10.7376
550 218.456
555 387.718
560 112.863
565 13.6936
570 1.90081
575 0.542051
580 0.311133
585 0.207448
590 0.172767
595 0.202769
600 0.049929
Ex : 563
200 0.144688
205 0.171604
210 0.165273
215 0.199695
220 0.153609
225 0.130844
230 0.133387
235 0.174173
240 0.138817
245 0.167061
250 0.20306
255 0.12804
260 0.127928
265 0.179924
270 0.14974
275 0.12851
280 0.156173
285 0.233263
290 0.146834
295 0.164741
300 0.128857
305 0.161256
310 0.101056
315 0.235043
320 0.176047
325 0.207566
330 0.12297
335 0.184882
340 0.151904
345 0.115114
350 0.188106
355 0.222725
360 0.159804
365 0.224864
370 0.129252
375 0.158536
380 0.196898
385 0.152056
390 0.17871
395 0.165096
400 0.199599
405 0.194753
410 0.316448
415 0.178042
420 0.173876
425 0.135096
430 0.228132
435 0.204346
440 0.126307
445 0.217057
450 0.197246
455 0.249032
460 0.1495
465 0.212219
470 0.16144
475 0.155725
480 0.171866
485 0.152667
490 0.16736
495 0.252158
500 0.168879
505 0.138222
510 0.25018
515 0.212225
520 0.197075
525 0.169222
530 0.234106
535 0.335673
540 0.327774
545 0.610229
550 10.6907
555 207.874
560 369.3
565 111.18
570 13.4116
575 1.84984
580 0.453904
585 0.251291
590 0.271457
595 0.21379
600 0.508713
Ex : 568
200 0.104029
205 0.16784
210 0.136293
215 0.124231
220 0.152461
225 0.224149
230 0.115894
235 0.0988
240 0.118043
245 0.187936
250 0.109104
255 0.13884
260 0.177437
265 0.286039
270 0.164699
275 0.192159
280 0.134684
285 0.168919
290 0.249619
295 0.241188
300 0.177011
305 0.169984
310 0.119903
315 0.143533
320 0.230651
325 0.199817
330 0.128385
335 0.158806
340 0.114985
345 0.169169
350 0.203234
355 0.165024
360 0.198428
365 0.191049
370 0.14756
375 0.240263
380 0.156052
385 0.219012
390 0.183609
395 0.199937
400 0.239163
405 0.13794
410 0.216239
415 0.171326
420 0.203712
425 0.193379
430 0.142932
435 0.185072
440 0.175999
445 0.226376
450 0.187908
455 0.177692
460 0.17162
465 0.22303
470 0.20659
475 0.180798
480 0.242193
485 0.217735
490 0.220982
495 0.284577
500 0.158183
505 0.222562
510 0.169793
515 0.153608
520 0.193876
525 0.230428
530 0.224925
535 0.238575
540 0.218392
545 0.316134
550 0.433513
555 8.1645
560 192.188
565 357.368
570 110.638
575 13.4305
580 1.85628
585 0.52621
590 0.329494
595 0.230796
600 0.0262638
Ex : 573
200 0.152984
205 0.119429
210 0.182859
215 0.149399
220 0.107159
225 0.161872
230 0.176082
235 0.157178
240 0.217011
245 0.136405
250 0.137067
255 0.169653
260 0.200422
265 0.173895
270 0.181956
275 0.129548
280 0.142487
285 0.14165
290 0.130192
295 0.195242
300 0.103688
305 0.138781
310 0.134468
315 0.142602
320 0.144838
325 0.153863
330 0.165684
335 0.276085
340 0.17011
345 0.169184
350 0.155841
355 0.211047
360 0.148606
365 0.150677
370 0.221817
375 0.243488
380 0.22433
385 0.106399
390 0.225073
395 0.128977
400 0.187868
405 0.178772
410 0.210154
415 0.225637
420 0.144286
425 0.159223
430 0.15275
435 0.183423
440 0.24836
445 0.242605
450 0.276173
455 0.23637
460 0.219881
465 0.156713
470 0.198723
475 0.244447
480 0.146733
485 0.20682
490 0.138242
495 0.119561
500 0.132905
505 0.173675
510 0.218218
515 0.139745
520 0.173827
525 0.232487
530 0.237057
535 0.150488
540 0.222458
545 0.218482
550 0.319145
555 0.335519
560 7.35254
565 166.957
570 330.385
575 107.123
580 12.9702
585 1.85681
590 0.417352
595 0.261191
600 0.245443
Ex : 578
200 0.126756
205 0.153252
210 0.0943558
215 0.14327
220 0.150682
225 0.193375
230 0.16268
235 0.21041
240 0.099193
245 0.237602
250 0.169477
255 0.186915
260 0.153969
265 0.15179
270 0.154792
275 0.150842
280 0.145582
285 0.246843
290 0.30737
295 0.288447
300 0.301116
305 0.152591
310 0.136396
315 0.125464
320 0.171194
325 0.175742
330 0.223481
335 0.205482
340 0.17309
345 0.172011
350 0.170874
355 0.165987
360 0.224939
365 0.214296
370 0.214783
375 0.183897
380 0.159541
385 0.193977
390 0.233838
395 0.23523
400 0.203777
405 0.197415
410 0.197383
415 0.203803
420 0.182021
425 0.198419
430 0.226774
435 0.189699
440 0.249161
445 0.180688
450 0.187242
455 0.253401
460 0.192561
465 0.234625
470 0.144609
475 0.148812
480 0.146495
485 0.233404
490 0.217133
495 0.154058
500 0.220465
505 0.187229
510 0.157312
515 0.209956
520 0.176776
525 0.152766
530 0.231607
535 0.228205
540 0.210094
545 0.223011
550 0.267306
555 0.38278
560 0.354881
565 5.97641
570 150.784
575 291.12
580 89.9578
585 10.8025
590 1.42347
595 0.430475
600 0.539991
Ex : 583
200 0.143879
205 0.11914
210 0.119051
215 0.142168
220 0.182955
225 0.203348
230 0.161661
235 0.173102
240 0.209919
245 0.135516
250 0.145055
255 0.229415
260 0.143523
265 0.224632
270 0.153396
275 0.131121
280 0.137263
285 0.308743
290 0.155791
295 0.128244
300 0.214484
305 0.176666
310 0.0980103
315 0.0980739
320 0.168585
325 0.220621
330 0.122608
335 0.158738
340 0.14969
345 0.155513
350 0.144953
355 0.171786
360 0.168694
365 0.232641
370 0.182478
375 0.242168
380 0.173694
385 0.165876
390 0.157602
395 0.111933
400 0.125424
405 0.162445
410 0.198642
415 0.211266
420 0.168749
425 0.207163
430 0.180534
435 0.211715
440 0.16273
445 0.120345
450 0.182036
455 0.190347
460 0.153957
465 0.167474
470 0.21563
475 0.167373
480 0.197451
485 0.194708
490 0.201943
495 0.187582
500 0.170934
505 0.246867
510 0.185822
515 0.157335
520 0.324093
525 0.262773
530 0.208285
535 0.138691
540 0.189452
545 0.224551
550 0.243
555 0.375772
560 0.262236
565 0.299375
570 5.33159
575 134.431
580 263.3
585 77.1565
590 9.29969
595 1.31117
600 0.174527
Ex : 588
200 0.240741
205 0.204111
210 0.137284
215 0.197431
220 0.162783
225 0.259195
230 0.189111
235 0.297037
240 0.177748
245 0.166085
250 0.212049
255 0.232404
260 0.141562
265 0.158067
270 0.181912
275 0.147589
280 0.188114
285 0.213512
290 0.186043
295 0.167868
300 0.222375
305 0.147355
310 0.130663
315 0.226801
320 0.157356
325 0.204557
330 0.207478
335 0.326056
340 0.156174
345 0.175957
350 0.130933
355 0.112651
360 0.145873
365 0.204629
370 0.250154
375 0.188965
380 0.252122
385 0.140137
390 0.172354
395 0.200571
400 0.161274
405 0.16846
410 0.171501
415 0.143477
420 0.239763
425 0.168949
430 0.277019
435 0.146942
440 0.143168
445 0.197162
450 0.161725
455 0.177462
460 0.163903
465 0.182769
470 0.213011
475 0.169615
480 0.17184
485 0.157005
490 0.231841
495 0.209735
500 0.210871
505 0.221441
510 0.164827
515 0.178561
520 0.17408
525 0.11252
530 0.137877
535 0.175035
540 0.253463
545 0.195738
550 0.242519
555 0.338846
560 0.24213
565 0.294675
570 0.409847
575 4.8247
580 121.318
585 226.225
590 67.439
595 8.11978
600 1.0717
Ex : 593
200 0.246096
205 0.17757
210 0.140016
215 0.230537
220 0.118276
225 0.204216
230 0.200093
235 0.179385
240 0.109497
245 0.14498
250 0.183415
255 0.140872
260 0.353456
265 0.14674
270 0.221133
275 0.193321
280 0.130845
285 0.118999
290 0.189916
295 0.252379
300 0.16517
305 0.149365
310 0.110746
315 0.0877207
320 0.156373
325 0.243532
330 0.169135
335 0.18581
340 0.13186
345 0.246628
350 0.142497
355 0.104643
360 0.111764
365 0.187187
370 0.185786
375 0.162979
380 0.200943
385 0.155395
390 0.112856
395 0.13446
400 0.350304
405 0.280998
410 0.207451
415 0.178148
420 0.170376
425 0.269071
430 0.271097
435 0.157496
440 0.193442
445 0.13724
450 0.180136
455 0.157247
460 0.110298
465 0.133989
470 0.251246
475 0.206798
480 0.1505
485 0.259285
490 0.228962
495 0.12868
500 0.168535
505 0.209793
510 0.161162
515 0.198774
520 0.155598
525 0.136763
530 0.201029
535 0.201082
540 0.229296
545 0.126882
550 0.315238
555 0.140536
560 0.295611
565 0.197077
570 0.204635
575 0.234586
580 3.71273
585 100.507
590 190.92
595 57.778
600 7.64769
Ex : 598
200 0.131544
205 0.137077
210 0.122783
215 0.192969
220 0.146203
225 0.204987
230 0.306621
235 0.25371
240 0.168022
245 0.186123
250 0.214075
255 0.189178
260 0.166129
265 0.115781
270 0.222418
275 0.177495
280 0.14788
285 0.106136
290 0.179391
295 0.137879
300 0.141929
305 0.145424
310 0.19103
315 0.238276
320 0.179932
325 0.135183
330 0.121579
335 0.123813
340 0.137427
345 0.135301
350 0.171558
355 0.253018
360 0.221233
365 0.168952
370 0.12148
375 0.174523
380 0.18033
385 0.272107
390 0.245284
395 0.200624
400 0.190153
405 0.254221
410 0.151572
415 0.219049
420 0.134224
425 0.158929
430 0.189728
435 0.279505
440 0.143695
445 0.236093
450 0.168223
455 0.201968
460 0.178061
465 0.198837
470 0.208691
475 0.225028
480 0.199992
485 0.168948
490 0.154802
495 0.213894
500 0.141101
505 0.211209
510 0.108852
515 0.220509
520 0.196339
525 0.183334
530 0.168959
535 0.205041
540 0.142694
545 0.190771
550 0.246667
555 0.195834
560 0.18515
565 0.143653
570 0.158187
575 0.27036
580 0.332349
585 3.75343
590 89.0313
595 167.739
600 112.278
Ex : 603
200 0.18664
205 0.149367
210 0.19312
215 0.13038
220 0.28133
225 0.163032
230 0.112301
235 0.135946
240 0.201293
245 0.135323
250 0.145826
255 0.321899
260 0.203747
265 0.173999
270 0.192731
275 0.168526
280 0.123447
285 0.158146
290 0.239196
295 0.160343
300 0.229372
305 0.174822
310 0.184467
315 0.153379
320 0.167349
325 0.147119
330 0.168813
335 0.131866
340 0.134801
345 0.150899
350 0.201747
355 0.184802
360 0.217131
365 0.134937
370 0.122365
375 0.115956
380 0.401551
385 0.395724
390 0.187323
395 0.141995
400 0.159389
405 0.172708
410 0.186602
415 0.261314
420 0.163914
425 0.224722
430 0.183484
435 0.133628
440 0.236272
445 0.113033
450 0.186714
455 0.150365
460 0.20857
465 0.116446
470 0.209328
475 0.151096
480 0.114346
485 0.13796
490 0.138593
495 0.234304
500 0.138272
505 0.130004
510 0.19485
515 0.218932
520 0.183459
525 0.246025
530 0.152072
535 0.250498
540 0.205431
545 0.198092
550 0.127368
555 0.244509
560 0.184636
565 0.130626
570 0.214405
575 0.197828
580 0.308074
585 0.293919
590 3.27781
595 84.2719
600 196.434
