File format V 1.0
ven. 6. janv. 00:57:16 2017
Operator : 
Comments : 

=============================================
SpectroFluorometer parameters
Mode : 3D measurement
Data : Fluorescence
Phospho. : Ordinary
Spectrum : Fluorescence

Scan speed : 2400 nm/mn
Response : 100 ms
PM Voltage : 700 V
Shutter : On

Lambda Ex. Start : 203
Lambda Ex. End : 603
Lambda Ex. Step : 5
Ex. Slit : 5 nm

Lambda Em. Start : 200
Lambda Em. End : 600
Lambda Em. Step : 5
Em. Slit : 5 nm

Repetition : 1
Decal lambda em : 10
=============================================
DATA
Ex : 203
200 3.57927
205 5.2844
210 4.81081
215 4.18617
220 3.03583
225 2.98736
230 6.68818
235 2.47811
240 1.83704
245 3.27911
250 3.28408
255 3.97316
260 3.5084
265 2.83494
270 6.36544
275 3.73073
280 2.64588
285 3.71202
290 6.34716
295 3.43997
300 4.66401
305 3.84538
310 5.02686
315 1.9747
320 3.92338
325 1.41429
330 5.10503
335 5.3093
340 3.2067
345 3.53998
350 3.56407
355 4.44562
360 3.02539
365 7.98854
370 2.39766
375 4.81919
380 3.10716
385 2.78925
390 4.62096
395 1.86458
400 4.59464
405 3.8595
410 3.29408
415 3.1793
420 1.34586
425 2.51636
430 4.75379
435 5.7957
440 5.47862
445 5.83673
450 6.50591
455 3.13958
460 2.50779
465 3.49443
470 5.77818
475 3.9852
480 2.53903
485 6.30991
490 3.2651
495 6.15616
500 2.712
505 5.79381
510 6.23241
515 2.7534
520 4.38047
525 3.33433
530 6.34654
535 5.01877
540 3.16341
545 8.31748
550 4.85385
555 7.13643
560 3.53019
565 5.2459
570 3.98396
575 3.15656
580 3.01153
585 8.06704
590 5.34351
595 4.59896
600 0.523344
Ex : 208
200 4.50602
205 2.42811
210 8.95054
215 4.98695
220 3.61742
225 3.55262
230 5.17796
235 5.20714
240 4.16652
245 5.37703
250 3.85382
255 1.71468
260 7.79277
265 1.999
270 3.89287
275 1.79473
280 2.54596
285 4.82365
290 9.29586
295 4.05161
300 6.45057
305 5.55386
310 3.35586
315 5.08605
320 3.95268
325 2.6808
330 1.58789
335 2.01897
340 3.0247
345 2.19142
350 5.39272
355 4.82314
360 7.16897
365 5.32585
370 4.02428
375 4.41401
380 7.02056
385 4.37288
390 3.2968
395 5.4321
400 2.03728
405 3.22912
410 3.52349
415 5.20418
420 4.07462
425 3.63875
430 2.58778
435 7.46851
440 3.08491
445 5.63282
450 7.46931
455 4.64628
460 3.32318
465 3.11734
470 3.6557
475 4.14655
480 2.34991
485 2.96147
490 3.39844
495 2.93099
500 1.99517
505 5.07288
510 3.07807
515 4.04732
520 2.9892
525 4.72687
530 5.26848
535 6.31617
540 3.54985
545 3.38638
550 1.91607
555 3.93438
560 3.94495
565 1.43713
570 4.28555
575 3.25707
580 4.89886
585 4.60041
590 4.2237
595 3.27188
600 0.372328
Ex : 213
200 4.15436
205 3.86418
210 2.02308
215 1.82415
220 2.66168
225 2.89013
230 2.73679
235 5.40423
240 3.44651
245 5.49903
250 4.22237
255 3.958
260 4.04769
265 3.93911
270 3.71084
275 4.54631
280 3.00292
285 2.28029
290 1.98616
295 1.48802
300 5.81108
305 7.03835
310 5.89373
315 3.23151
320 4.94077
325 4.0723
330 6.09113
335 3.24098
340 6.24131
345 4.24391
350 6.7385
355 4.27186
360 5.30662
365 3.45616
370 2.88973
375 5.82884
380 5.17011
385 4.77351
390 5.77181
395 3.20608
400 6.53986
405 4.81104
410 7.42663
415 3.87245
420 3.4014
425 6.126
430 3.97248
435 4.38956
440 4.77045
445 3.79029
450 2.28578
455 4.23934
460 3.09854
465 8.64121
470 5.47567
475 3.61988
480 6.19653
485 4.43742
490 2.3285
495 6.94559
500 3.85599
505 4.34533
510 4.44321
515 4.13732
520 5.41068
525 3.45748
530 5.28896
535 2.64738
540 4.20628
545 2.57108
550 6.7425
555 8.08141
560 3.07526
565 8.9108
570 4.02827
575 1.88741
580 6.39051
585 6.2744
590 3.57021
595 2.28227
600 12.8881
Ex : 218
200 2.64052
205 3.46389
210 3.76289
215 3.45845
220 6.60753
225 9.495
230 5.15815
235 6.5087
240 2.72738
245 1.77126
250 1.72473
255 2.19526
260 2.87828
265 4.58836
270 3.12094
275 5.35587
280 2.23914
285 2.27338
290 4.2138
295 2.87653
300 2.59966
305 4.3648
310 1.97731
315 7.24559
320 2.74823
325 3.21562
330 5.08632
335 3.65657
340 4.02591
345 2.8338
350 6.08562
355 2.85464
360 4.61776
365 3.65948
370 2.87811
375 5.25666
380 4.31911
385 3.89048
390 3.20425
395 4.79018
400 5.00417
405 5.88668
410 2.90956
415 4.87213
420 5.23194
425 2.57753
430 3.88189
435 3.95312
440 2.79505
445 7.86202
450 3.35187
455 5.79712
460 9.77413
465 4.86201
470 4.09809
475 8.61709
480 3.99012
485 5.10663
490 6.86135
495 4.10824
500 4.4284
505 3.54562
510 4.56578
515 5.47768
520 3.33734
525 3.35285
530 2.30859
535 5.81897
540 3.39785
545 2.54608
550 2.57185
555 5.25865
560 3.06075
565 3.65288
570 2.05175
575 8.31725
580 3.17902
585 3.30724
590 2.12017
595 5.52207
600 1.51459
Ex : 223
200 4.29412
205 3.61806
210 3.60672
215 2.878
220 3.27594
225 6.36395
230 3.92466
235 2.32452
240 3.96608
245 2.03108
250 4.65628
255 2.94868
260 2.36619
265 2.66618
270 5.7287
275 2.46529
280 6.54983
285 5.18205
290 4.0918
295 4.03332
300 2.75028
305 2.62723
310 1.80266
315 5.52827
320 4.67804
325 2.80394
330 2.76197
335 4.89215
340 4.17732
345 3.16238
350 5.67709
355 4.71278
360 3.17063
365 3.62463
370 2.23992
375 4.63253
380 7.39673
385 3.87232
390 4.47288
395 3.39339
400 1.98351
405 4.49665
410 1.94988
415 5.77174
420 4.10379
425 6.13218
430 4.04511
435 3.35773
440 6.10873
445 4.93164
450 3.89288
455 3.41266
460 2.47609
465 3.5172
470 3.77336
475 2.91076
480 5.05945
485 5.35303
490 2.00421
495 4.52926
500 9.2142
505 4.63632
510 4.30683
515 1.86739
520 4.4781
525 2.85946
530 3.39346
535 2.60167
540 3.89233
545 3.16285
550 2.20517
555 4.20614
560 3.58307
565 2.69121
570 5.10283
575 3.99287
580 4.13766
585 2.8807
590 3.3014
595 4.64157
600 0.528194
Ex : 228
200 4.43125
205 3.73785
210 5.22747
215 2.14436
220 5.54988
225 3.54411
230 4.29513
235 8.46964
240 4.25015
245 3.90107
250 4.43184
255 6.30088
260 4.38113
265 1.80906
270 4.57851
275 1.78117
280 2.06916
285 2.2603
290 2.07682
295 3.50043
300 2.07717
305 2.73656
310 3.81402
315 5.20878
320 2.43853
325 4.49751
330 2.44731
335 5.62178
340 3.60096
345 2.33794
350 6.01832
355 4.58416
360 6.58094
365 3.38159
370 3.55912
375 3.86173
380 2.59828
385 5.91331
390 5.62218
395 5.6999
400 2.95981
405 4.17531
410 3.60639
415 6.03064
420 4.77265
425 4.96358
430 1.71847
435 6.59045
440 6.68276
445 2.09793
450 4.32815
455 3.16616
460 1.94556
465 4.09271
470 2.83779
475 5.19705
480 2.89755
485 3.04515
490 2.86253
495 3.01105
500 2.17835
505 1.96789
510 6.13196
515 4.96768
520 4.04644
525 3.01663
530 5.11783
535 2.04903
540 4.63381
545 2.4627
550 4.27823
555 4.73947
560 2.10934
565 4.15455
570 4.65587
575 5.02989
580 2.89554
585 5.22447
590 4.87958
595 3.57374
600 0.406678
Ex : 233
200 4.33333
205 1.85027
210 3.15645
215 7.15174
220 4.0949
225 2.1683
230 4.9407
235 1.62756
240 3.85109
245 7.43619
250 5.07424
255 5.98281
260 4.22087
265 9.08776
270 2.6047
275 2.42697
280 1.98224
285 1.86479
290 2.27838
295 3.08199
300 2.5567
305 2.58549
310 4.1049
315 2.20468
320 4.80645
325 1.27069
330 5.26812
335 5.35981
340 4.63416
345 3.76371
350 2.12517
355 1.75834
360 7.02001
365 4.88415
370 3.41582
375 6.02433
380 4.32048
385 2.91525
390 10.299
395 4.82572
400 3.5825
405 2.65136
410 3.56036
415 3.95976
420 3.19997
425 4.08904
430 2.13212
435 8.73976
440 3.42198
445 2.43339
450 6.25755
455 3.65968
460 3.38
465 2.34989
470 5.10258
475 6.02644
480 2.28191
485 2.96692
490 3.9609
495 4.79759
500 3.59731
505 3.82219
510 4.17407
515 5.53678
520 4.18462
525 4.46411
530 3.4706
535 4.30098
540 2.77418
545 1.71183
550 5.21831
555 6.53968
560 2.27837
565 2.29802
570 2.29738
575 4.89474
580 3.58772
585 5.23951
590 4.18769
595 4.17066
600 23.5159
Ex : 238
200 1.08962
205 2.44763
210 2.94986
215 4.70822
220 3.31784
225 1.89555
230 2.73286
235 3.46383
240 2.54267
245 2.813
250 1.59403
255 1.2913
260 2.67597
265 1.99824
270 3.15186
275 2.04419
280 3.52846
285 3.65094
290 4.57077
295 2.48853
300 2.71599
305 2.05554
310 6.21689
315 4.03821
320 2.78214
325 1.62058
330 2.04004
335 4.71914
340 2.04903
345 2.83353
350 1.36451
355 2.61208
360 4.64808
365 4.29749
370 3.85574
375 4.30584
380 5.40004
385 3.08723
390 4.83446
395 3.22596
400 2.14357
405 3.61233
410 3.04014
415 2.95192
420 4.4046
425 3.43404
430 3.42299
435 4.44197
440 2.51763
445 1.85405
450 2.10636
455 4.83066
460 1.74319
465 1.89445
470 2.84378
475 2.39142
480 2.19495
485 4.17747
490 3.87249
495 3.01109
500 2.49613
505 2.56418
510 2.44852
515 1.74171
520 2.71245
525 3.40826
530 3.52754
535 3.04654
540 1.90189
545 6.94391
550 2.782
555 6.3701
560 2.67115
565 2.77643
570 3.2094
575 3.17017
580 2.82102
585 2.54489
590 2.68075
595 2.79487
600 2.53356
Ex : 243
200 2.43933
205 1.67985
210 1.79581
215 4.37211
220 1.68049
225 2.50373
230 2.00242
235 4.35581
240 2.96228
245 2.48985
250 2.9345
255 2.41869
260 2.25883
265 2.03687
270 2.23229
275 2.4908
280 1.39608
285 1.09978
290 2.87427
295 1.67532
300 2.46276
305 2.94985
310 2.76426
315 1.41756
320 3.17726
325 5.21572
330 3.03519
335 2.38404
340 1.7447
345 3.36355
350 1.9471
355 3.15286
360 2.86731
365 2.84234
370 4.46934
375 1.71777
380 2.37719
385 3.32259
390 1.27178
395 1.8669
400 4.53832
405 3.2009
410 4.45767
415 2.78012
420 3.31838
425 4.24501
430 3.34154
435 2.32613
440 2.08265
445 3.05674
450 1.71298
455 4.2418
460 3.46177
465 1.8215
470 5.46442
475 2.04049
480 3.32071
485 4.49816
490 2.14879
495 3.57439
500 1.14886
505 1.89579
510 3.96042
515 4.59499
520 3.0674
525 3.70073
530 2.63306
535 3.61624
540 3.55222
545 4.27264
550 2.6565
555 3.55949
560 3.06367
565 2.81164
570 2.79457
575 1.90719
580 1.95564
585 4.47263
590 6.2597
595 6.29541
600 0.716394
Ex : 248
200 0.921053
205 1.29362
210 1.76795
215 2.23977
220 1.97151
225 1.78341
230 1.38345
235 2.46276
240 1.36625
245 2.9416
250 1.55327
255 1.95561
260 2.41036
265 3.68896
270 2.23112
275 1.45573
280 1.26286
285 2.02891
290 2.38403
295 3.11096
300 1.46407
305 2.08029
310 3.22958
315 1.36243
320 2.19203
325 1.36587
330 4.35055
335 4.68352
340 2.53018
345 2.60005
350 0.86468
355 1.00339
360 2.29994
365 3.24027
370 2.23643
375 3.71816
380 2.46982
385 2.40229
390 1.5084
395 1.44692
400 2.83304
405 4.73428
410 2.00237
415 1.23652
420 1.86833
425 1.68536
430 2.70037
435 2.14616
440 1.47419
445 3.00233
450 1.81013
455 2.01954
460 4.28148
465 4.48761
470 2.05068
475 2.00881
480 2.14569
485 1.49582
490 2.60501
495 3.72439
500 4.27577
505 2.8658
510 3.91386
515 2.7312
520 1.37607
525 2.0604
530 2.56187
535 2.41001
540 3.21771
545 1.74333
550 3.17237
555 1.9911
560 2.11364
565 2.37047
570 2.03598
575 1.04948
580 2.04768
585 4.61061
590 3.50389
595 2.50469
600 0.285024
Ex : 253
200 1.66006
205 1.21517
210 0.976515
215 1.99008
220 3.30242
225 2.24858
230 2.3146
235 1.7022
240 1.34357
245 1.57588
250 1.31542
255 1.71024
260 2.7241
265 2.71075
270 2.47389
275 1.12253
280 3.40317
285 1.32186
290 1.22169
295 1.99129
300 1.63671
305 1.50932
310 1.71082
315 1.75119
320 2.19072
325 1.65456
330 4.86192
335 1.26275
340 3.81294
345 1.67862
350 1.56265
355 1.63446
360 1.4225
365 1.6822
370 1.55094
375 1.52846
380 5.13977
385 3.11943
390 1.95619
395 1.64642
400 2.93198
405 1.46369
410 2.94384
415 1.23614
420 2.57397
425 1.88654
430 1.87852
435 1.75395
440 3.08872
445 1.91977
450 1.16224
455 2.06404
460 1.7331
465 1.89578
470 2.33503
475 1.38111
480 2.19647
485 3.74234
490 1.58023
495 3.35475
500 3.51775
505 1.84256
510 2.52031
515 1.27436
520 0.884762
525 1.81518
530 1.86098
535 1.80492
540 1.51071
545 2.22811
550 1.85851
555 1.22099
560 2.98819
565 1.5234
570 2.10476
575 3.13814
580 1.69784
585 1.48153
590 2.72279
595 3.24951
600 0.369782
Ex : 258
200 0.752174
205 1.33388
210 0.930696
215 0.632842
220 2.33947
225 1.21981
230 0.901988
235 1.54572
240 1.48682
245 0.593794
250 0.354165
255 1.94625
260 1.52746
265 1.84844
270 1.11611
275 1.44521
280 0.834171
285 2.93956
290 2.0823
295 2.05429
300 1.65284
305 2.39151
310 2.75112
315 3.10847
320 2.14482
325 1.40434
330 2.12892
335 2.62394
340 2.53626
345 1.19474
350 3.17035
355 1.8665
360 0.913897
365 1.07403
370 2.43424
375 2.74819
380 1.26358
385 1.11186
390 2.19569
395 1.39438
400 1.08544
405 1.38544
410 1.44987
415 2.43287
420 1.74906
425 2.33227
430 1.0928
435 1.37392
440 1.95494
445 1.11671
450 0.965378
455 1.19344
460 2.83126
465 2.2359
470 1.00996
475 1.69398
480 1.72367
485 2.03113
490 2.63086
495 1.6669
500 1.95223
505 2.51101
510 1.67947
515 1.56897
520 0.731141
525 1.47723
530 0.859179
535 0.933111
540 2.0208
545 2.03459
550 2.89218
555 1.68038
560 2.11903
565 1.80455
570 1.29996
575 1.64266
580 1.9084
585 2.29853
590 1.20711
595 1.79848
600 0.20466
Ex : 263
200 0.873239
205 1.03987
210 0.617108
215 0.686985
220 1.06663
225 1.5521
230 1.60386
235 1.94105
240 0.672613
245 0.791371
250 1.4595
255 1.57517
260 2.26044
265 0.728514
270 0.455108
275 1.24739
280 0.879171
285 0.76627
290 1.39053
295 2.23722
300 1.26379
305 1.10848
310 0.714371
315 0.888343
320 0.61571
325 1.36331
330 0.621895
335 1.3531
340 0.764613
345 1.68684
350 0.887813
355 1.51676
360 1.8592
365 1.7483
370 1.77911
375 1.14784
380 1.02296
385 1.00104
390 0.57131
395 1.98591
400 1.28297
405 0.980714
410 1.61893
415 1.39041
420 1.79478
425 2.31231
430 0.735251
435 1.54046
440 1.16827
445 0.85732
450 1.71449
455 2.32073
460 1.49563
465 0.847609
470 1.31263
475 1.58638
480 1.64482
485 0.893344
490 1.14716
495 1.54162
500 1.37478
505 0.831648
510 0.913516
515 1.34864
520 1.43129
525 0.971614
530 0.595087
535 1.57505
540 0.990548
545 0.508486
550 1.07786
555 1.64413
560 1.02722
565 1.75875
570 1.731
575 0.488761
580 1.44623
585 0.545048
590 0.713598
595 1.38097
600 2.0659
Ex : 268
200 0.483131
205 0.547042
210 0.44063
215 0.364522
220 0.846125
225 0.5115
230 0.549161
235 0.475162
240 0.955025
245 0.442427
250 0.509539
255 0.559516
260 0.530159
265 1.26676
270 0.827166
275 0.499637
280 0.470257
285 0.381372
290 0.747221
295 0.710154
300 1.50117
305 0.817818
310 0.521953
315 0.932173
320 0.689495
325 1.31176
330 0.8915
335 0.854907
340 0.623353
345 0.743908
350 1.8751
355 0.674503
360 1.08202
365 0.602693
370 0.856184
375 1.33787
380 1.02863
385 0.940217
390 1.48079
395 0.710628
400 0.989226
405 1.465
410 1.51619
415 2.00148
420 1.05835
425 1.51374
430 1.06091
435 1.17348
440 1.14634
445 1.51484
450 0.719163
455 1.15101
460 0.74063
465 0.585393
470 0.932096
475 1.30798
480 0.777643
485 0.677247
490 1.00671
495 1.32777
500 0.904071
505 1.56462
510 0.776205
515 0.777325
520 1.02693
525 0.913574
530 0.866738
535 2.11171
540 0.916034
545 1.42486
550 0.859664
555 0.680366
560 0.800507
565 1.07155
570 0.739558
575 0.404962
580 0.921271
585 0.760701
590 1.72868
595 0.75303
600 0.134925
Ex : 273
200 0.91314
205 0.418275
210 0.69356
215 0.571701
220 0.588274
225 1.3724
230 0.858543
235 0.701793
240 0.33842
245 0.347399
250 0.436592
255 0.67338
260 0.315221
265 0.561585
270 0.779873
275 0.613683
280 0.475129
285 0.39782
290 0.406026
295 0.761075
300 0.938726
305 0.335329
310 0.819701
315 1.12718
320 0.705194
325 0.581146
330 0.476502
335 0.425216
340 0.455023
345 0.951754
350 0.804324
355 0.854237
360 1.09505
365 1.41619
370 0.766417
375 0.99501
380 0.482969
385 0.539807
390 0.870913
395 0.481875
400 1.12367
405 0.875415
410 0.918865
415 1.10068
420 0.956753
425 0.970016
430 0.709383
435 0.495288
440 0.747601
445 1.37463
450 1.0009
455 0.949829
460 0.430343
465 1.22958
470 0.829411
475 0.792665
480 0.842043
485 1.22399
490 0.783168
495 0.966493
500 0.519615
505 0.849395
510 0.979911
515 1.29279
520 0.893548
525 0.472582
530 0.52832
535 0.908386
540 1.13876
545 1.7299
550 0.690526
555 1.28604
560 1.37454
565 0.730255
570 1.00869
575 0.932591
580 1.08452
585 0.626962
590 0.606597
595 0.385317
600 1.63901
Ex : 278
200 0.755677
205 0.734005
210 0.356578
215 0.206993
220 0.311147
225 0.5454
230 1.20124
235 0.684269
240 0.873116
245 0.501439
250 0.478795
255 0.572831
260 0.487265
265 0.535709
270 0.750772
275 0.489654
280 0.662282
285 1.20239
290 0.835411
295 0.640361
300 0.474155
305 0.616233
310 0.849663
315 0.966809
320 0.352002
325 0.3947
330 0.545709
335 0.340644
340 0.744044
345 0.430248
350 0.544593
355 1.25393
360 0.787868
365 0.57341
370 0.671011
375 0.790445
380 0.476058
385 0.589924
390 0.684813
395 0.765473
400 0.544914
405 0.9127
410 0.55299
415 0.857372
420 0.652554
425 0.966895
430 0.608215
435 0.806904
440 0.60459
445 0.73868
450 0.648081
455 1.24457
460 0.840967
465 0.60381
470 0.725401
475 1.18044
480 1.20587
485 0.817183
490 0.575275
495 0.507376
500 1.14403
505 0.4498
510 0.336902
515 0.635234
520 0.936397
525 1.00006
530 0.388526
535 0.395137
540 0.779945
545 0.50015
550 0.773662
555 0.668435
560 0.604565
565 0.595942
570 0.804865
575 0.755438
580 0.461394
585 0.51417
590 0.365706
595 0.354725
600 0.0403664
Ex : 283
200 0.262566
205 0.388188
210 0.306729
215 0.314344
220 0.383899
225 0.779103
230 0.892534
235 0.347439
240 0.303694
245 0.40525
250 0.371279
255 0.479735
260 0.440071
265 0.775575
270 0.411656
275 0.410262
280 0.701474
285 0.476267
290 0.320059
295 0.662407
300 0.38773
305 0.628738
310 0.895585
315 0.551351
320 0.331329
325 0.467861
330 0.422775
335 0.391522
340 0.451674
345 0.96019
350 1.00877
355 0.604851
360 0.554069
365 0.775567
370 0.451159
375 0.350269
380 0.669231
385 0.768503
390 1.02966
395 0.744096
400 0.921719
405 0.87739
410 0.764497
415 0.71782
420 0.907045
425 0.682861
430 0.738811
435 0.486954
440 0.466484
445 0.647236
450 0.474022
455 0.431853
460 0.503198
465 0.349756
470 0.610836
475 0.574026
480 0.515087
485 0.548011
490 0.632206
495 1.15508
500 0.711091
505 0.612245
510 0.506847
515 0.536978
520 0.49381
525 0.51093
530 0.523899
535 0.589871
540 0.801085
545 0.402003
550 0.524631
555 0.63301
560 0.983973
565 0.834945
570 0.669343
575 0.425402
580 0.616268
585 0.254449
590 0.475359
595 0.664575
600 0.167302
Ex : 288
200 0.476161
205 0.238928
210 0.526899
215 0.28846
220 0.339631
225 0.490569
230 0.40089
235 0.250342
240 0.573462
245 0.510013
250 0.571627
255 0.268103
260 0.301739
265 0.124654
270 0.183509
275 0.285586
280 0.17216
285 0.783617
290 0.282039
295 0.127284
300 0.571479
305 0.319998
310 0.153252
315 0.231275
320 0.481291
325 0.388636
330 0.550627
335 0.59172
340 0.729346
345 0.90487
350 0.578617
355 0.663645
360 0.627318
365 0.397327
370 0.555419
375 0.886793
380 0.678415
385 0.687229
390 0.648264
395 0.329834
400 0.536545
405 0.538286
410 0.527765
415 0.894329
420 0.441345
425 0.360949
430 0.392645
435 0.3551
440 0.505275
445 0.594592
450 0.774515
455 0.475851
460 0.332734
465 0.517058
470 0.446415
475 0.427118
480 0.417168
485 0.38423
490 0.356827
495 0.365823
500 0.534089
505 0.547969
510 0.20499
515 0.333664
520 0.645318
525 0.301109
530 0.576334
535 0.516623
540 0.472499
545 0.634251
550 0.229611
555 0.302895
560 0.647199
565 0.413471
570 0.600579
575 0.805087
580 0.554079
585 0.269869
590 0.356357
595 0.447562
600 0.0509308
Ex : 293
200 0.335602
205 0.449114
210 0.239561
215 0.147807
220 0.302056
225 0.0902938
230 0.221321
235 0.266537
240 0.238182
245 0.421233
250 0.331159
255 0.623187
260 0.576315
265 0.304194
270 0.470477
275 0.461864
280 0.492368
285 0.300989
290 0.573639
295 0.52544
300 0.5601
305 0.751859
310 0.44344
315 0.461611
320 0.282286
325 0.426724
330 0.65511
335 0.258879
340 0.800663
345 0.358291
350 0.374992
355 0.399701
360 0.458952
365 0.448823
370 0.318156
375 0.367247
380 0.314833
385 0.769058
390 0.686034
395 0.703263
400 0.755322
405 0.431422
410 0.745768
415 0.553563
420 0.593405
425 0.847818
430 0.291368
435 0.258607
440 0.261518
445 0.601534
450 0.398829
455 0.48517
460 0.415597
465 0.566531
470 0.337727
475 0.471855
480 0.616606
485 0.302614
490 0.355925
495 0.301759
500 0.291348
505 0.530016
510 0.302006
515 0.261887
520 0.358842
525 0.286924
530 0.336465
535 0.631758
540 0.404276
545 0.201842
550 0.651994
555 0.322087
560 0.429627
565 0.364318
570 0.36004
575 0.600902
580 0.653228
585 0.499562
590 0.337495
595 0.348274
600 0.0396322
Ex : 298
200 0.317711
205 0.184945
210 0.377967
215 0.197739
220 0.466828
225 0.381181
230 0.252116
235 0.444455
240 0.427112
245 0.401372
250 0.339318
255 0.28435
260 0.370504
265 0.224628
270 0.298521
275 0.469334
280 0.223927
285 0.327709
290 0.335293
295 0.568501
300 0.24767
305 0.362145
310 0.188708
315 0.169513
320 0.262163
325 0.198053
330 0.236477
335 0.504757
340 0.32996
345 0.360172
350 0.476143
355 0.245397
360 0.388609
365 0.329596
370 0.303245
375 0.406917
380 0.598139
385 0.44215
390 0.498897
395 0.663444
400 0.513708
405 0.41172
410 0.435509
415 0.468033
420 0.465923
425 0.505532
430 0.402685
435 0.350521
440 0.316878
445 0.520824
450 0.232691
455 0.33266
460 0.359409
465 0.327962
470 0.622819
475 0.617759
480 0.557282
485 0.51834
490 0.212414
495 0.209818
500 0.581483
505 0.480685
510 0.314478
515 0.218371
520 0.391218
525 0.466755
530 0.22373
535 0.249142
540 0.222834
545 0.251596
550 0.290799
555 0.129843
560 0.137882
565 0.269065
570 0.336011
575 0.363915
580 0.486944
585 0.382469
590 0.601189
595 0.411604
600 0.431418
Ex : 303
200 0.267221
205 0.11306
210 0.110828
215 0.209193
220 0.18999
225 0.256513
230 0.114929
235 0.342763
240 0.233357
245 0.202886
250 0.17173
255 0.162365
260 0.340988
265 0.324823
270 0.320646
275 0.229463
280 0.258599
285 0.184006
290 0.118938
295 0.259936
300 0.438298
305 0.183162
310 0.420973
315 0.359998
320 0.419756
325 0.317144
330 0.193206
335 0.331687
340 0.46962
345 0.299353
350 0.284957
355 0.486353
360 0.406662
365 0.327867
370 0.376887
375 0.294631
380 0.494241
385 0.469875
390 0.421236
395 0.598514
400 0.532731
405 0.295123
410 0.485736
415 0.537612
420 0.63803
425 0.384385
430 0.459038
435 0.466289
440 0.311698
445 0.418165
450 0.651268
455 0.388057
460 0.512626
465 0.39843
470 0.476758
475 0.255023
480 0.560601
485 0.237045
490 0.328102
495 0.223627
500 0.148875
505 0.201891
510 0.271324
515 0.469751
520 0.223553
525 0.174254
530 0.0972923
535 0.0958419
540 0.256587
545 0.348415
550 0.215972
555 0.155264
560 0.273644
565 0.349625
570 0.179899
575 0.576942
580 0.443248
585 0.292324
590 0.169333
595 0.420869
600 0.0478933
Ex : 308
200 0.126473
205 0.173509
210 0.255447
215 0.237515
220 0.153105
225 0.237968
230 0.250115
235 0.18839
240 0.222806
245 0.112522
250 0.118569
255 0.257538
260 0.118202
265 0.184148
270 0.264808
275 0.10496
280 0.16026
285 0.185019
290 0.201812
295 0.112292
300 0.218405
305 0.239543
310 0.329655
315 0.17793
320 0.321895
325 0.364763
330 0.257739
335 0.254265
340 0.335448
345 0.245838
350 0.329675
355 0.335488
360 0.547462
365 0.318832
370 0.438057
375 0.249679
380 0.363317
385 0.528895
390 0.49805
395 0.375586
400 0.461355
405 0.390454
410 0.509604
415 0.514743
420 0.528088
425 0.298472
430 0.527742
435 0.652607
440 0.527254
445 0.459951
450 0.548281
455 0.489647
460 0.40633
465 0.320824
470 0.684619
475 0.312354
480 0.337716
485 0.345016
490 0.227038
495 0.240608
500 0.269324
505 0.295227
510 0.328691
515 0.333424
520 0.435036
525 0.290974
530 0.146002
535 0.310275
540 0.280894
545 0.177764
550 0.30813
555 0.133737
560 0.259268
565 0.32398
570 0.253777
575 0.153994
580 0.132013
585 0.197558
590 0.253732
595 0.260931
600 0.0296929
Ex : 313
200 0.367532
205 0.214134
210 0.238417
215 0.187399
220 0.186933
225 0.232927
230 0.233378
235 0.168093
240 0.170171
245 0.170885
250 0.162016
255 0.133011
260 0.191683
265 0.150033
270 0.118964
275 0.201447
280 0.10781
285 0.148401
290 0.16242
295 0.102484
300 0.0552461
305 0.347155
310 0.615537
315 0.319612
320 0.253874
325 0.30658
330 0.450983
335 0.198158
340 0.247073
345 0.389013
350 0.374075
355 0.39931
360 0.456186
365 0.665623
370 0.708252
375 0.673284
380 0.760737
385 0.924659
390 0.824893
395 0.847116
400 0.718667
405 0.951138
410 1.09449
415 0.923648
420 0.90053
425 0.908263
430 0.960357
435 0.915119
440 0.815749
445 0.859085
450 0.618775
455 0.443127
460 0.549977
465 0.686161
470 0.680723
475 0.519758
480 0.482009
485 0.410357
490 0.438609
495 0.446514
500 0.448011
505 0.376964
510 0.258446
515 0.354067
520 0.404641
525 0.416376
530 0.280336
535 0.33141
540 0.224453
545 0.247904
550 0.291029
555 0.638429
560 0.310393
565 0.269423
570 0.358293
575 0.202688
580 0.134145
585 0.153525
590 0.221586
595 0.0933225
600 0.0106197
Ex : 318
200 0.247677
205 0.304144
210 0.0922614
215 0.104301
220 0.197359
225 0.114951
230 0.177939
235 0.13968
240 0.144733
245 0.160535
250 0.127929
255 0.192662
260 0.120631
265 0.100442
270 0.0941071
275 0.174946
280 0.124309
285 0.209621
290 0.121313
295 0.180043
300 0.17651
305 0.139143
310 0.561556
315 0.795264
320 0.516373
325 0.435416
330 0.720694
335 0.686688
340 0.928258
345 1.73038
350 2.04425
355 2.84822
360 3.26842
365 4.60913
370 5.3274
375 6.46021
380 6.96227
385 7.8304
390 8.92346
395 9.85768
400 10.3996
405 10.8132
410 11.1485
415 10.538
420 9.87973
425 9.89176
430 8.86805
435 8.81665
440 8.33436
445 8.01416
450 7.90542
455 7.28765
460 6.18311
465 5.70781
470 5.30299
475 5.11238
480 4.67692
485 4.17484
490 3.56865
495 3.20024
500 2.74665
505 2.23542
510 1.88211
515 1.51459
520 1.28522
525 1.06201
530 1.25082
535 0.894506
540 0.932383
545 0.689438
550 0.54528
555 0.480516
560 0.416499
565 0.321532
570 0.312976
575 0.199002
580 0.356021
585 0.126114
590 0.199808
595 0.176086
600 0.020038
Ex : 323
200 0.131748
205 0.188754
210 0.155282
215 0.243524
220 0.184201
225 0.168484
230 0.0847463
235 0.0846955
240 0.116612
245 0.235829
250 0.177141
255 0.306522
260 0.14693
265 0.137721
270 0.207881
275 0.149983
280 0.223877
285 0.232392
290 0.226659
295 0.0764392
300 0.127058
305 0.25325
310 0.360037
315 8.30889
320 35.9941
325 14.4981
330 3.17707
335 3.05115
340 3.78867
345 6.27205
350 8.85387
355 12.3246
360 14.9154
365 17.4426
370 20.8319
375 23.9822
380 28.503
385 31.7958
390 33.8866
395 35.6466
400 37.6641
405 37.9412
410 37.9869
415 37.5612
420 37.4452
425 34.7143
430 33.353
435 30.9796
440 30.5893
445 30.0846
450 27.8201
455 26.2535
460 24.0885
465 22.1774
470 20.8432
475 19.1749
480 16.9258
485 15.8316
490 13.5757
495 11.5609
500 11.3343
505 9.60975
510 8.34371
515 7.2171
520 6.16241
525 4.84182
530 4.20593
535 3.83947
540 3.15692
545 2.60393
550 2.5131
555 2.26618
560 1.41417
565 1.12033
570 0.905737
575 0.648867
580 0.50414
585 0.410876
590 0.472405
595 0.353903
600 0.0402728
Ex : 328
200 0.0744295
205 0.154478
210 0.174611
215 0.126754
220 0.299302
225 0.183027
230 0.171242
235 0.204497
240 0.140591
245 0.125536
250 0.194918
255 0.146269
260 0.140775
265 0.0939382
270 0.132905
275 0.0907849
280 0.0541437
285 0.170231
290 0.269895
295 0.146046
300 0.0839962
305 0.29682
310 0.205393
315 2.09903
320 80.4175
325 191.269
330 56.7133
335 10.1192
340 5.86754
345 6.81408
350 8.99212
355 13.0314
360 18.1201
365 19.8299
370 22.9777
375 25.4698
380 28.7267
385 32.5051
390 34.9231
395 36.617
400 38.0106
405 38.6989
410 39.9558
415 38.8448
420 37.4607
425 36.2276
430 33.5305
435 32.7067
440 31.5506
445 29.0979
450 27.0972
455 26.1565
460 24.1519
465 21.9726
470 20.7314
475 18.6625
480 17.2897
485 15.4543
490 13.4572
495 12.2816
500 10.6005
505 9.47288
510 8.37218
515 7.2378
520 6.40259
525 5.5343
530 4.80848
535 3.68873
540 3.76399
545 2.74341
550 2.22565
555 1.83748
560 1.73441
565 1.32554
570 1.08361
575 0.666017
580 0.504697
585 0.611119
590 0.611197
595 0.369896
600 0.702717
Ex : 333
200 0.090539
205 0.181625
210 0.211575
215 0.0837214
220 0.119695
225 0.0939005
230 0.112421
235 0.290221
240 0.0968466
245 0.0982565
250 0.124387
255 0.126705
260 0.120998
265 0.201362
270 0.215318
275 0.307105
280 0.202584
285 0.104325
290 0.0559486
295 0.207808
300 0.219734
305 0.21565
310 0.186672
315 0.250948
320 11.4889
325 221.661
330 367.665
335 95.6969
340 14.4377
345 5.95332
350 5.51432
355 6.23765
360 9.90462
365 13.9089
370 14.5775
375 15.3072
380 16.2743
385 18.7113
390 21.108
395 22.6218
400 22.4747
405 22.9169
410 23.5201
415 23.6017
420 22.1883
425 21.2485
430 19.5343
435 19.0813
440 18.2985
445 17.0843
450 16.0392
455 13.9541
460 13.046
465 12.3587
470 11.4376
475 11.2852
480 9.61556
485 8.7341
490 7.52816
495 6.90343
500 5.90294
505 5.12945
510 4.47875
515 3.92517
520 3.58163
525 3.28128
530 2.39881
535 2.45436
540 2.033
545 1.90213
550 1.44167
555 1.02386
560 1.03661
565 1.21256
570 0.782497
575 0.801031
580 0.541364
585 0.331861
590 0.275893
595 0.317066
600 0.402281
Ex : 338
200 0.202299
205 0.200827
210 0.117792
215 0.124927
220 0.202066
225 0.175658
230 0.0948573
235 0.0791448
240 0.161165
245 0.158749
250 0.224214
255 0.107289
260 0.122184
265 0.0928525
270 0.148227
275 0.134252
280 0.178385
285 0.160043
290 0.141309
295 0.172386
300 0.189835
305 0.217629
310 0.132839
315 0.271857
320 0.239648
325 20.7158
330 322.953
335 477.232
340 118.18
345 16.3392
350 4.87561
355 3.98278
360 3.63357
365 5.56422
370 10.1158
375 10.7997
380 9.48429
385 10.2982
390 12.409
395 13.0027
400 13.2133
405 12.9368
410 13.6134
415 14.7691
420 14.2963
425 12.3479
430 11.991
435 11.0907
440 10.7113
445 10.1169
450 9.28099
455 8.26197
460 7.77161
465 7.49246
470 6.5829
475 5.95675
480 5.85306
485 5.25545
490 4.3768
495 3.98615
500 3.54544
505 3.32368
510 3.01909
515 2.35955
520 2.13355
525 1.77833
530 1.51587
535 1.35589
540 1.25481
545 1.0081
550 0.991033
555 0.866457
560 0.820023
565 0.803695
570 0.593466
575 0.620607
580 0.370806
585 0.471168
590 0.255455
595 0.26861
600 0.0305668
Ex : 343
200 0.111466
205 0.082735
210 0.134145
215 0.0968
220 0.168652
225 0.0959972
230 0.226765
235 0.239004
240 0.109565
245 0.12716
250 0.127226
255 0.121265
260 0.0757849
265 0.0975738
270 0.188143
275 0.138505
280 0.12447
285 0.136389
290 0.176973
295 0.106801
300 0.0747666
305 0.174761
310 0.131583
315 0.142511
320 0.143878
325 0.439518
330 23.7455
335 366.277
340 540.671
345 131.552
350 17.3938
355 4.58895
360 3.01338
365 2.13008
370 3.21038
375 7.31581
380 9.48591
385 9.39273
390 10.3542
395 10.728
400 10.0605
405 10.4504
410 11.6596
415 12.4159
420 11.6505
425 10.0484
430 10.1497
435 9.38628
440 9.41474
445 8.51682
450 7.9739
455 7.09029
460 6.39672
465 5.90023
470 5.5439
475 5.17389
480 4.96129
485 4.4374
490 4.02794
495 3.4572
500 3.14707
505 2.85991
510 2.49425
515 2.38848
520 1.9612
525 1.66666
530 1.45386
535 1.2533
540 1.1802
545 1.08544
550 1.0906
555 1.07948
560 0.759946
565 0.716723
570 0.599436
575 0.618222
580 0.510652
585 0.364505
590 0.425807
595 0.257644
600 0.246348
Ex : 348
200 0.161023
205 0.0807788
210 0.0715863
215 0.118724
220 0.0723
225 0.173499
230 0.132364
235 0.153688
240 0.133611
245 0.0862755
250 0.105341
255 0.169415
260 0.156234
265 0.11512
270 0.0908003
275 0.186914
280 0.0940621
285 0.0712232
290 0.137546
295 0.108965
300 0.20247
305 0.158487
310 0.125589
315 0.159085
320 0.2361
325 0.206034
330 0.549717
335 24.3349
340 374.354
345 566.752
350 145.086
355 18.7655
360 4.21287
365 2.54002
370 1.86064
375 2.66554
380 7.07527
385 11.5977
390 12.909
395 12.9107
400 11.5753
405 11.881
410 13.5259
415 14.7893
420 13.4692
425 11.8177
430 10.5848
435 10.4162
440 10.5659
445 9.59132
450 8.76219
455 7.8973
460 6.87878
465 6.51187
470 6.22973
475 5.95081
480 5.08325
485 4.79016
490 4.17309
495 3.86767
500 3.72202
505 3.08519
510 2.89912
515 2.36727
520 2.2808
525 1.80202
530 1.76966
535 1.31974
540 1.40893
545 1.18237
550 1.174
555 0.855917
560 0.918801
565 0.606822
570 0.583777
575 0.522669
580 0.400783
585 0.305142
590 0.342831
595 0.219052
600 0.0249273
Ex : 353
200 0.0551677
205 0.155074
210 0.148818
215 0.103645
220 0.0814999
225 0.0784255
230 0.115466
235 0.0575538
240 0.0450004
245 0.0977894
250 0.103136
255 0.113024
260 0.0878228
265 0.0550862
270 0.106467
275 0.0807343
280 0.157194
285 0.139239
290 0.132074
295 0.210284
300 0.112794
305 0.0557751
310 0.168481
315 0.126717
320 0.205082
325 0.200384
330 0.276667
335 0.634997
340 24.703
345 393.956
350 574.011
355 140.865
360 18.1778
365 3.9744
370 2.27238
375 2.06352
380 3.07534
385 8.33634
390 15.6107
395 16.4118
400 14.1541
405 12.8912
410 14.1766
415 16.3866
420 15.374
425 13.0819
430 11.9134
435 11.5794
440 11.4879
445 10.6821
450 10.1063
455 8.55456
460 8.13474
465 7.34364
470 7.06803
475 6.12857
480 5.6046
485 4.94784
490 4.58425
495 4.69147
500 3.60968
505 3.47588
510 3.24541
515 2.64403
520 2.54868
525 2.17003
530 1.97266
535 1.6058
540 1.51778
545 1.48632
550 1.22059
555 1.02583
560 0.824679
565 0.627396
570 0.644944
575 0.538543
580 0.364427
585 0.342452
590 0.329822
595 0.242135
600 0.165863
Ex : 358
200 0.0919758
205 0.152444
210 0.0647862
215 0.117454
220 0.0831217
225 0.0678526
230 0.0778444
235 0.0806052
240 0.0811703
245 0.0951294
250 0.117129
255 0.137712
260 0.119309
265 0.0928707
270 0.0932627
275 0.0773996
280 0.065722
285 0.0397761
290 0.0836497
295 0.0484668
300 0.0665349
305 0.0939972
310 0.0623899
315 0.108669
320 0.111463
325 0.166949
330 0.231851
335 0.281423
340 0.56411
345 23.7913
350 380.543
355 586.366
360 144.992
365 18.3057
370 3.93307
375 2.47828
380 3.25297
385 5.80286
390 10.8728
395 16.1112
400 15.3816
405 12.9344
410 13.736
415 15.261
420 13.9834
425 12.3418
430 11.3776
435 11.1486
440 10.6259
445 10.4647
450 9.33291
455 8.11253
460 7.6098
465 6.90803
470 6.62866
475 6.06859
480 5.90399
485 5.34692
490 4.89496
495 4.28724
500 3.79584
505 3.49874
510 3.27536
515 2.77122
520 2.39532
525 2.31344
530 1.9125
535 1.60437
540 1.27656
545 1.34622
550 1.13176
555 1.03586
560 0.935329
565 0.815468
570 0.814057
575 0.506486
580 0.485881
585 0.369146
590 0.272637
595 0.234481
600 0.261128
Ex : 363
200 0.0811164
205 0.0725083
210 0.0749751
215 0.0810509
220 0.136232
225 0.0943377
230 0.165146
235 0.0777043
240 0.062293
245 0.0555837
250 0.0751627
255 0.0988206
260 0.0837415
265 0.0743015
270 0.0667943
275 0.0779797
280 0.0796474
285 0.0872518
290 0.073063
295 0.0944671
300 0.104914
305 0.116638
310 0.117719
315 0.138861
320 0.126722
325 0.173963
330 0.179758
335 0.184849
340 0.312026
345 0.482459
350 21.9032
355 374.745
360 588.741
365 152.837
370 19.3525
375 4.15956
380 4.31802
385 7.47628
390 11.3806
395 13.0181
400 15.4753
405 16.4154
410 16.9334
415 17.2148
420 15.3613
425 12.8636
430 11.9225
435 11.3543
440 11.9097
445 11.2835
450 9.36712
455 8.83509
460 8.50417
465 7.84588
470 7.18641
475 6.73455
480 6.29957
485 5.51297
490 5.36125
495 4.81047
500 4.47499
505 4.06293
510 3.48215
515 2.98973
520 2.63891
525 2.18678
530 2.00674
535 1.80806
540 1.76878
545 1.2995
550 1.22807
555 1.01776
560 1.15433
565 0.863628
570 0.657161
575 0.481842
580 0.375768
585 0.383919
590 0.286194
595 0.262627
600 0.0655122
Ex : 368
200 0.0610241
205 0.0865008
210 0.115931
215 0.067684
220 0.127728
225 0.0562109
230 0.0741762
235 0.0684186
240 0.11729
245 0.173709
250 0.073327
255 0.134138
260 0.0852643
265 0.0962171
270 0.040034
275 0.0983636
280 0.0991085
285 0.118162
290 0.0921128
295 0.12901
300 0.139843
305 0.0777325
310 0.0777936
315 0.110243
320 0.102335
325 0.136258
330 0.0888965
335 0.103771
340 0.146547
345 0.258413
350 0.593974
355 18.3038
360 362.171
365 604.507
370 162.138
375 20.9271
380 5.98369
385 9.46836
390 14.5025
395 15.6584
400 15.2591
405 17.5092
410 22.3514
415 22.2098
420 20.7401
425 16.622
430 14.7837
435 14.7148
440 14.3973
445 12.9664
450 11.9246
455 10.7724
460 9.3882
465 8.77568
470 8.75386
475 7.85821
480 6.88387
485 6.25328
490 5.45385
495 5.00044
500 4.84054
505 4.29
510 4.29937
515 3.54106
520 3.00653
525 2.72476
530 2.46672
535 1.93076
540 1.59988
545 1.43386
550 1.36255
555 1.27592
560 1.00779
565 0.877124
570 0.65458
575 0.57886
580 0.400625
585 0.425999
590 0.291127
595 0.248005
600 0.0573461
Ex : 373
200 0.0918101
205 0.118324
210 0.0671544
215 0.0647745
220 0.0858674
225 0.0736562
230 0.0810075
235 0.05297
240 0.0683528
245 0.120211
250 0.0727042
255 0.104752
260 0.135066
265 0.0703521
270 0.145171
275 0.158439
280 0.0671657
285 0.0621945
290 0.0707306
295 0.0998753
300 0.116996
305 0.0611485
310 0.057596
315 0.117759
320 0.0555919
325 0.0842973
330 0.134521
335 0.145117
340 0.184691
345 0.271434
350 0.325918
355 0.627891
360 21.7745
365 379.135
370 610.9
375 162.762
380 21.7766
385 8.73154
390 14.308
395 17.4257
400 15.3486
405 14.6511
410 18.2039
415 23.8782
420 22.4157
425 18.0747
430 15.0298
435 13.8097
440 14.1965
445 13.6196
450 11.5326
455 10.2732
460 9.4635
465 8.3961
470 8.24819
475 7.61537
480 6.86661
485 6.3818
490 5.57586
495 5.01498
500 4.81289
505 4.37866
510 3.88908
515 3.36563
520 3.01406
525 2.81302
530 2.21849
535 2.05877
540 1.86637
545 1.6271
550 1.53985
555 1.34816
560 1.13548
565 0.842756
570 0.582981
575 0.512643
580 0.438577
585 0.403574
590 0.305452
595 0.264419
600 0.235194
Ex : 378
200 0.0844392
205 0.0587442
210 0.12407
215 0.154974
220 0.0904057
225 0.0725531
230 0.121694
235 0.113599
240 0.0723779
245 0.0453695
250 0.0753269
255 0.0696651
260 0.0860263
265 0.0672343
270 0.0865656
275 0.113295
280 0.0545464
285 0.127225
290 0.0965075
295 0.0727161
300 0.0641552
305 0.0858217
310 0.0787108
315 0.096442
320 0.0511533
325 0.0686649
330 0.117913
335 0.111336
340 0.110478
345 0.132251
350 0.201739
355 0.306444
360 0.669785
365 20.3912
370 373.404
375 615.127
380 165.335
385 24.4014
390 12.4092
395 12.3928
400 11.2824
405 10.919
410 12.3837
415 15.3817
420 17.7318
425 15.1482
430 12.7005
435 11.5911
440 10.5106
445 10.6073
450 9.58734
455 8.33776
460 7.40082
465 7.25109
470 6.86045
475 6.90105
480 6.16384
485 5.74529
490 5.22489
495 4.85533
500 4.49597
505 4.00183
510 3.4919
515 3.17797
520 3.02307
525 2.62597
530 2.35389
535 2.1953
540 1.78003
545 1.45774
550 1.40497
555 1.25624
560 1.19617
565 0.868831
570 0.793367
575 0.741975
580 0.464011
585 0.407337
590 0.316398
595 0.278498
600 0.17878
Ex : 383
200 0.0438243
205 0.101829
210 0.0785868
215 0.0988827
220 0.0728419
225 0.0839141
230 0.142916
235 0.124497
240 0.0754398
245 0.0759447
250 0.063472
255 0.0637016
260 0.0470075
265 0.123538
270 0.0748932
275 0.0971681
280 0.0671696
285 0.0480478
290 0.139989
295 0.064384
300 0.0795857
305 0.0864788
310 0.0786568
315 0.162593
320 0.133194
325 0.107307
330 0.149616
335 0.216369
340 0.131191
345 0.229205
350 0.182048
355 0.237645
360 0.314157
365 0.589596
370 18.9096
375 370.137
380 643.821
385 178.968
390 30.339
395 13.3387
400 10.9282
405 11.144
410 12.9658
415 13.7336
420 13.7115
425 14.3397
430 13.7764
435 12.4097
440 11.4215
445 10.6315
450 9.18742
455 8.31098
460 7.58259
465 7.38637
470 7.35606
475 6.66753
480 6.10664
485 5.78905
490 5.24534
495 4.94202
500 4.53376
505 4.01812
510 3.66623
515 3.36007
520 2.87569
525 2.75178
530 2.27866
535 2.08655
540 1.93719
545 1.68381
550 1.40754
555 1.31355
560 1.12635
565 0.954749
570 0.819984
575 0.593743
580 0.467526
585 0.473831
590 0.309871
595 0.2836
600 0.147864
Ex : 388
200 0.0821733
205 0.0875288
210 0.0686276
215 0.0493833
220 0.0621549
225 0.0683664
230 0.0685444
235 0.0626841
240 0.0770776
245 0.0988262
250 0.101756
255 0.0719105
260 0.0922343
265 0.0528495
270 0.0782101
275 0.0828516
280 0.106071
285 0.0826072
290 0.0866472
295 0.148261
300 0.0627375
305 0.0862517
310 0.0620882
315 0.113696
320 0.0678897
325 0.0817045
330 0.136429
335 0.0743304
340 0.139228
345 0.130093
350 0.178344
355 0.158918
360 0.1709
365 0.353851
370 0.772454
375 22.0519
380 390.401
385 648.434
390 182.813
395 34.1909
400 14.972
405 13.8612
410 15.8945
415 17.3477
420 16.6723
425 14.0854
430 14.1604
435 15.6511
440 14.134
445 13.0874
450 11.0311
455 9.30443
460 8.59773
465 7.95954
470 7.89453
475 7.18372
480 6.5605
485 5.90204
490 5.46396
495 4.89011
500 4.67809
505 4.25875
510 3.9628
515 3.53815
520 2.97898
525 2.93901
530 2.41938
535 2.05135
540 1.92743
545 1.70008
550 1.48042
555 1.34435
560 1.28764
565 0.881432
570 0.787596
575 0.600583
580 0.460451
585 0.438076
590 0.317328
595 0.265989
600 0.237893
Ex : 393
200 0.0640445
205 0.140646
210 0.0825542
215 0.0368122
220 0.0604027
225 0.0559032
230 0.0830738
235 0.1311
240 0.0659293
245 0.032712
250 0.0455742
255 0.0454925
260 0.10698
265 0.0732545
270 0.0586529
275 0.0970613
280 0.0705681
285 0.0444718
290 0.0668016
295 0.157453
300 0.0799266
305 0.0578198
310 0.0740707
315 0.100704
320 0.0643982
325 0.114284
330 0.0826961
335 0.0786607
340 0.0659536
345 0.0888632
350 0.122729
355 0.131385
360 0.146055
365 0.218628
370 0.341793
375 0.678116
380 19.2981
385 384.366
390 663.157
395 190.411
400 34.727
405 14.8526
410 14.7975
415 18.2788
420 17.9035
425 14.9602
430 12.4376
435 13.1206
440 15.4583
445 13.8208
450 12.055
455 9.73818
460 8.71665
465 7.83643
470 7.30965
475 7.36945
480 6.43853
485 5.69772
490 5.3526
495 4.93382
500 4.50275
505 4.27439
510 3.83544
515 3.48478
520 2.95435
525 2.77333
530 2.38176
535 2.14502
540 2.07833
545 1.69298
550 1.49727
555 1.35596
560 1.12911
565 1.00847
570 0.717932
575 0.684423
580 0.49834
585 0.393342
590 0.35001
595 0.220237
600 0.299211
Ex : 398
200 0.10277
205 0.0625656
210 0.0675246
215 0.0488724
220 0.0854973
225 0.100737
230 0.0601752
235 0.115924
240 0.0366813
245 0.0560693
250 0.0620661
255 0.0455463
260 0.0716193
265 0.0778228
270 0.0638812
275 0.0989878
280 0.0747704
285 0.0588644
290 0.0672516
295 0.0633717
300 0.0488827
305 0.0491688
310 0.0852168
315 0.0616089
320 0.0698859
325 0.0789416
330 0.0644392
335 0.124028
340 0.0928989
345 0.10358
350 0.0937166
355 0.0925511
360 0.128129
365 0.135047
370 0.27561
375 0.319633
380 0.885402
385 20.5401
390 390.22
395 676.352
400 185.897
405 28.1843
410 10.8351
415 11.3802
420 11.3819
425 9.59837
430 7.67667
435 7.54308
440 8.7335
445 10.6059
450 9.89078
455 7.75986
460 6.74029
465 5.80006
470 5.61488
475 5.45804
480 5.2817
485 4.62965
490 4.42098
495 4.37643
500 3.95923
505 3.62717
510 3.27868
515 2.94345
520 2.93021
525 2.34443
530 2.22064
535 1.91279
540 1.84551
545 1.68685
550 1.62041
555 1.33344
560 1.09477
565 0.98532
570 0.890369
575 0.537724
580 0.480857
585 0.393403
590 0.323433
595 0.227141
600 0.0258478
Ex : 403
200 0.0691229
205 0.0563313
210 0.0644399
215 0.0666082
220 0.0586774
225 0.0852432
230 0.088119
235 0.0571807
240 0.0797686
245 0.0429735
250 0.0442883
255 0.0717488
260 0.0575892
265 0.0631568
270 0.0770295
275 0.0381554
280 0.0400047
285 0.161725
290 0.0635615
295 0.135864
300 0.0494283
305 0.106748
310 0.0339543
315 0.0947416
320 0.0934519
325 0.0906947
330 0.0901238
335 0.109439
340 0.0631107
345 0.0992862
350 0.090369
355 0.103342
360 0.153764
365 0.0773793
370 0.194645
375 0.295923
380 0.349676
385 0.97207
390 21.9608
395 401.327
400 672.655
405 185.666
410 25.1632
415 7.30578
420 5.44967
425 4.88163
430 4.35074
435 4.04921
440 4.23427
445 5.06247
450 6.41755
455 6.96963
460 5.50546
465 4.97155
470 4.38774
475 4.27558
480 4.35191
485 4.19791
490 3.86743
495 3.74224
500 3.70417
505 3.30117
510 3.12564
515 2.69931
520 2.47318
525 2.37649
530 2.15874
535 1.91106
540 1.82835
545 1.57208
550 1.44966
555 1.21753
560 1.05311
565 0.785965
570 0.750354
575 0.608672
580 0.463916
585 0.378227
590 0.302775
595 0.318595
600 0.0513264
Ex : 408
200 0.0589913
205 0.0724808
210 0.0653712
215 0.0414511
220 0.0822842
225 0.0710788
230 0.0722006
235 0.0603119
240 0.098768
245 0.0632964
250 0.0514301
255 0.0486786
260 0.0648366
265 0.0358716
270 0.0888195
275 0.0522419
280 0.0879289
285 0.0667404
290 0.0785086
295 0.0817786
300 0.0517894
305 0.0875909
310 0.0534458
315 0.0487249
320 0.0625575
325 0.12133
330 0.0887169
335 0.11053
340 0.0833111
345 0.154586
350 0.118833
355 0.069282
360 0.164384
365 0.113973
370 0.165738
375 0.180231
380 0.204242
385 0.364765
390 0.855303
395 21.2097
400 413.286
405 686.948
410 181.894
415 24.4729
420 6.19126
425 4.09549
430 3.72927
435 3.65898
440 3.57097
445 3.98358
450 4.28573
455 5.63772
460 6.58496
465 5.48652
470 5.01606
475 4.47424
480 4.05512
485 3.82056
490 3.91992
495 3.65564
500 3.41631
505 3.01954
510 2.83562
515 2.79038
520 2.64609
525 2.43117
530 2.2476
535 1.81872
540 1.66988
545 1.60182
550 1.3776
555 1.24365
560 0.985568
565 0.813953
570 0.728548
575 0.543269
580 0.498774
585 0.383137
590 0.301906
595 0.278713
600 0.284918
Ex : 413
200 0.0628608
205 0.0440903
210 0.0841173
215 0.0680884
220 0.0724041
225 0.0552856
230 0.034752
235 0.0565387
240 0.110438
245 0.0802842
250 0.0862034
255 0.0630387
260 0.0463761
265 0.0528402
270 0.0595116
275 0.0652483
280 0.0369225
285 0.0320733
290 0.0754888
295 0.0582654
300 0.042204
305 0.033955
310 0.0625305
315 0.0500595
320 0.0496153
325 0.070667
330 0.0834846
335 0.0962872
340 0.069924
345 0.0796264
350 0.0912069
355 0.0992484
360 0.0829661
365 0.103103
370 0.133045
375 0.142873
380 0.183322
385 0.264161
390 0.428371
395 0.843145
400 23.348
405 421.316
410 679.172
415 174.834
420 23.4478
425 5.41014
430 3.30309
435 3.41653
440 3.68875
445 3.38878
450 3.29309
455 3.4314
460 4.43058
465 6.19875
470 5.63801
475 4.85467
480 4.26287
485 3.71049
490 3.49722
495 3.32456
500 3.18749
505 2.97728
510 2.689
515 2.66198
520 2.32244
525 2.19422
530 1.98669
535 1.76959
540 1.67798
545 1.54889
550 1.24776
555 1.16176
560 1.02683
565 1.00249
570 0.88763
575 0.598059
580 0.420707
585 0.33954
590 0.263382
595 0.221927
600 0.0726767
Ex : 418
200 0.0526814
205 0.0560582
210 0.057646
215 0.0487534
220 0.0536836
225 0.0484832
230 0.0529407
235 0.0689249
240 0.0617997
245 0.0571566
250 0.0753999
255 0.0522042
260 0.0444925
265 0.0458955
270 0.0788209
275 0.0640852
280 0.0274001
285 0.0602789
290 0.0828379
295 0.110208
300 0.0873285
305 0.057017
310 0.0908787
315 0.124359
320 0.058504
325 0.1138
330 0.0770393
335 0.0766566
340 0.069831
345 0.0688243
350 0.0628913
355 0.11085
360 0.114359
365 0.112606
370 0.0963677
375 0.126933
380 0.141225
385 0.180455
390 0.296066
395 0.338893
400 0.751914
405 22.7978
410 421.302
415 684.28
420 183.55
425 23.296
430 4.54063
435 2.66749
440 2.80506
445 2.81797
450 2.64552
455 2.34977
460 2.39378
465 3.2011
470 5.14736
475 5.12245
480 4.03123
485 3.80406
490 3.50924
495 3.09007
500 2.85462
505 2.66772
510 2.42891
515 2.44993
520 2.21133
525 2.04018
530 1.78501
535 1.6101
540 1.50206
545 1.49571
550 1.1261
555 1.16837
560 1.04005
565 0.820705
570 0.714084
575 0.53984
580 0.441144
585 0.324662
590 0.250603
595 0.213185
600 0.421726
Ex : 423
200 0.0666873
205 0.04342
210 0.0507492
215 0.0561885
220 0.0860614
225 0.0699627
230 0.0627458
235 0.0654066
240 0.0775146
245 0.0675809
250 0.0424816
255 0.0215485
260 0.0754189
265 0.0596855
270 0.0797449
275 0.0695752
280 0.0423816
285 0.0868903
290 0.0479839
295 0.0530788
300 0.0558504
305 0.0814658
310 0.080284
315 0.0534254
320 0.0451963
325 0.06621
330 0.0744534
335 0.107844
340 0.0787828
345 0.0752826
350 0.0530519
355 0.0819815
360 0.116317
365 0.0847179
370 0.139307
375 0.128491
380 0.106813
385 0.109712
390 0.233427
395 0.284885
400 0.348845
405 0.738448
410 23.4352
415 437.403
420 683.346
425 173.346
430 21.6211
435 3.91895
440 1.88105
445 1.95401
450 1.82685
455 1.76597
460 1.71229
465 1.81944
470 2.18929
475 3.9748
480 5.00242
485 3.62156
490 3.30154
495 2.89007
500 2.55361
505 2.53867
510 2.33423
515 2.04408
520 1.85374
525 1.90997
530 1.74297
535 1.68021
540 1.51296
545 1.27376
550 1.06326
555 1.09466
560 0.941916
565 0.702418
570 0.678378
575 0.534191
580 0.49845
585 0.342895
590 0.261232
595 0.231077
600 0.285743
Ex : 428
200 0.0670413
205 0.0739657
210 0.0608041
215 0.0305315
220 0.0918891
225 0.0689855
230 0.0689996
235 0.095613
240 0.10191
245 0.0614641
250 0.0508686
255 0.0511007
260 0.0502067
265 0.095442
270 0.0918447
275 0.0760937
280 0.073714
285 0.0679776
290 0.037464
295 0.0610037
300 0.067032
305 0.0484484
310 0.061091
315 0.0529001
320 0.101803
325 0.0768914
330 0.103609
335 0.0848108
340 0.160882
345 0.0718473
350 0.0940176
355 0.0519685
360 0.0669924
365 0.0752743
370 0.0978887
375 0.128063
380 0.124286
385 0.162115
390 0.216422
395 0.202435
400 0.265682
405 0.366525
410 0.823599
415 24.6596
420 436.791
425 709.423
430 184.852
435 22.9055
440 3.96362
445 1.66535
450 1.64944
455 1.63527
460 1.52469
465 1.46292
470 1.63494
475 1.81902
480 3.30822
485 4.51142
490 3.55959
495 3.06375
500 2.79776
505 2.36961
510 2.13264
515 2.16661
520 1.86929
525 1.68736
530 1.59963
535 1.49576
540 1.40319
545 1.29877
550 1.1072
555 1.01121
560 0.939548
565 0.848563
570 0.642045
575 0.515777
580 0.433363
585 0.361717
590 0.257912
595 0.296742
600 0.3223
Ex : 433
200 0.0521372
205 0.0569721
210 0.042288
215 0.0568287
220 0.101068
225 0.0691502
230 0.0933295
235 0.130494
240 0.0949455
245 0.0604359
250 0.0567049
255 0.0434641
260 0.052706
265 0.0351647
270 0.0260977
275 0.0842434
280 0.0569661
285 0.0707168
290 0.0673601
295 0.0928222
300 0.0483117
305 0.0469051
310 0.0394416
315 0.0670263
320 0.0553202
325 0.0363433
330 0.0621217
335 0.0585331
340 0.0734865
345 0.0960653
350 0.100389
355 0.0846274
360 0.0805008
365 0.106007
370 0.0675217
375 0.119886
380 0.0731049
385 0.0762309
390 0.16977
395 0.149214
400 0.15155
405 0.247346
410 0.427365
415 0.777306
420 28.0442
425 470.444
430 709.406
435 176.75
440 21.7226
445 3.60729
450 1.61783
455 1.58609
460 1.61627
465 1.50068
470 1.48475
475 1.47826
480 1.75644
485 2.56741
490 4.34466
495 3.77848
500 2.79797
505 2.43464
510 2.17097
515 1.84737
520 1.68502
525 1.57057
530 1.34428
535 1.39784
540 1.35683
545 1.22315
550 1.1254
555 0.938831
560 0.889403
565 0.680488
570 0.576945
575 0.447916
580 0.473099
585 0.404506
590 0.28163
595 0.255733
600 0.495994
Ex : 438
200 0.0375814
205 0.105871
210 0.060907
215 0.0591229
220 0.0815956
225 0.0463046
230 0.0547803
235 0.0410272
240 0.0883062
245 0.058074
250 0.0860916
255 0.0398425
260 0.0313096
265 0.0550089
270 0.0611379
275 0.112342
280 0.0407405
285 0.0575903
290 0.0625213
295 0.0779005
300 0.0671491
305 0.0612523
310 0.107155
315 0.085838
320 0.0886296
325 0.0484815
330 0.0451171
335 0.0837365
340 0.0955881
345 0.0709016
350 0.0954624
355 0.0928068
360 0.092992
365 0.0837289
370 0.0954424
375 0.0680787
380 0.0882789
385 0.0998147
390 0.124004
395 0.109407
400 0.178294
405 0.188299
410 0.264858
415 0.410904
420 0.685779
425 26.3366
430 463.532
435 746.935
440 185.689
445 22.7717
450 3.85955
455 1.68522
460 1.46286
465 1.81295
470 1.60901
475 1.28143
480 1.56335
485 1.56763
490 1.95396
495 3.59351
500 4.07564
505 2.77724
510 2.3621
515 2.07204
520 1.71185
525 1.58115
530 1.48027
535 1.33227
540 1.37824
545 1.12343
550 0.932872
555 0.991728
560 0.735959
565 0.752854
570 0.56221
575 0.499139
580 0.350176
585 0.347907
590 0.308139
595 0.221948
600 0.0927491
Ex : 443
200 0.0599442
205 0.0681954
210 0.0529727
215 0.082714
220 0.0513237
225 0.0555003
230 0.07411
235 0.0421508
240 0.0485763
245 0.10167
250 0.0572119
255 0.0352645
260 0.0544925
265 0.0284843
270 0.0328123
275 0.0910024
280 0.103783
285 0.0669264
290 0.041012
295 0.0453965
300 0.0701125
305 0.064411
310 0.0543697
315 0.0731875
320 0.0756144
325 0.0738575
330 0.0547005
335 0.0773209
340 0.0776081
345 0.0593029
350 0.070191
355 0.0431748
360 0.0944496
365 0.137196
370 0.0843672
375 0.117968
380 0.0890689
385 0.0818838
390 0.111954
395 0.100497
400 0.13666
405 0.160414
410 0.191513
415 0.274272
420 0.326231
425 0.664688
430 30.0455
435 498.801
440 756.792
445 188.235
450 22.9488
455 3.89899
460 1.56827
465 1.56704
470 1.65336
475 1.50422
480 1.38323
485 1.42971
490 1.45621
495 1.67161
500 3.09101
505 3.81856
510 2.74599
515 2.20131
520 1.99718
525 1.59049
530 1.38658
535 1.31604
540 1.18917
545 1.01338
550 1.02598
555 0.823754
560 0.834302
565 0.810267
570 0.674942
575 0.549183
580 0.444503
585 0.330354
590 0.284486
595 0.227324
600 0.195948
Ex : 448
200 0.0485903
205 0.0374864
210 0.0755581
215 0.109582
220 0.0536539
225 0.0939122
230 0.0551533
235 0.0703837
240 0.0548459
245 0.0373186
250 0.0500406
255 0.0504486
260 0.0406721
265 0.0790213
270 0.0866619
275 0.0756227
280 0.0403778
285 0.0433325
290 0.0440555
295 0.0979688
300 0.0294808
305 0.0516377
310 0.0769283
315 0.114756
320 0.131864
325 0.0746247
330 0.0426699
335 0.0528507
340 0.106102
345 0.108989
350 0.0884822
355 0.0755106
360 0.0511238
365 0.0731225
370 0.113024
375 0.0804913
380 0.0824547
385 0.067839
390 0.140544
395 0.131001
400 0.116817
405 0.150495
410 0.184035
415 0.2351
420 0.313892
425 0.353315
430 0.702869
435 30.544
440 529.693
445 802.367
450 197.712
455 24.2019
460 4.09928
465 1.5979
470 1.44246
475 1.5741
480 1.5226
485 1.4086
490 1.27698
495 1.35622
500 1.46641
505 2.2886
510 3.55907
515 2.94794
520 1.97891
525 1.74646
530 1.51595
535 1.26815
540 1.18648
545 1.03989
550 1.0176
555 0.828678
560 0.867121
565 0.666627
570 0.638803
575 0.54824
580 0.434532
585 0.29797
590 0.272361
595 0.244575
600 0.0412591
Ex : 453
200 0.0380459
205 0.0725506
210 0.0498731
215 0.0513145
220 0.0734721
225 0.138614
230 0.0765617
235 0.0570496
240 0.101119
245 0.0644697
250 0.0442923
255 0.0310637
260 0.0692367
265 0.0617728
270 0.0255466
275 0.0689754
280 0.0835251
285 0.0609091
290 0.0458719
295 0.074571
300 0.075448
305 0.0711326
310 0.0397018
315 0.0869398
320 0.0771992
325 0.11787
330 0.107132
335 0.098009
340 0.0300614
345 0.0754224
350 0.10368
355 0.0631074
360 0.0611739
365 0.0584045
370 0.0897529
375 0.117632
380 0.0844784
385 0.0822903
390 0.0881679
395 0.10891
400 0.0781623
405 0.118169
410 0.144751
415 0.202313
420 0.226887
425 0.292425
430 0.432681
435 0.782508
440 32.3323
445 571.126
450 838.393
455 196.138
460 24.0356
465 4.15895
470 1.5544
475 1.48429
480 1.56561
485 1.64057
490 1.41552
495 1.34596
500 1.37919
505 1.26507
510 1.71135
515 3.08643
520 3.16544
525 2.08825
530 1.83511
535 1.62378
540 1.20946
545 0.966386
550 0.984433
555 0.906353
560 0.757011
565 0.744378
570 0.58814
575 0.451933
580 0.415292
585 0.400125
590 0.274459
595 0.270226
600 0.142928
Ex : 458
200 0.0561133
205 0.0834768
210 0.0782452
215 0.0878926
220 0.026964
225 0.0373357
230 0.0703403
235 0.059431
240 0.0713683
245 0.143307
250 0.0643668
255 0.0712754
260 0.0844015
265 0.0593105
270 0.0523673
275 0.0916917
280 0.129396
285 0.0763821
290 0.0411293
295 0.078029
300 0.0702768
305 0.0737447
310 0.0500988
315 0.0589038
320 0.0481734
325 0.0382553
330 0.0780289
335 0.0677105
340 0.068617
345 0.0642589
350 0.0737119
355 0.108268
360 0.0772884
365 0.0995438
370 0.0782556
375 0.0673676
380 0.126622
385 0.0966969
390 0.0969606
395 0.118723
400 0.150319
405 0.101506
410 0.13724
415 0.144815
420 0.196911
425 0.209598
430 0.230154
435 0.391343
440 0.743623
445 36.257
450 592.424
455 883.45
460 213.942
465 26.3688
470 4.58302
475 1.54105
480 1.45137
485 1.65333
490 1.46533
495 1.26692
500 1.25031
505 1.1106
510 1.1853
515 1.40411
520 2.425
525 3.06967
530 2.09276
535 1.59554
540 1.47465
545 1.29858
550 0.946467
555 0.824923
560 0.833815
565 0.794926
570 0.641669
575 0.560456
580 0.451107
585 0.348103
590 0.324101
595 0.254453
600 0.165072
Ex : 463
200 0.0342401
205 0.0550211
210 0.060845
215 0.0318902
220 0.0634595
225 0.0345003
230 0.105512
235 0.089444
240 0.0504751
245 0.0864669
250 0.106646
255 0.0708387
260 0.0546488
265 0.0840268
270 0.0626823
275 0.0545351
280 0.0849579
285 0.101342
290 0.0653401
295 0.0574673
300 0.0898562
305 0.131355
310 0.0760293
315 0.112773
320 0.0716457
325 0.0559512
330 0.0993411
335 0.0938439
340 0.039088
345 0.0708095
350 0.0935864
355 0.0926528
360 0.069233
365 0.0938929
370 0.0741335
375 0.0811161
380 0.0986094
385 0.0899125
390 0.0661278
395 0.114769
400 0.132199
405 0.144022
410 0.120641
415 0.0990381
420 0.12836
425 0.200724
430 0.258209
435 0.34308
440 0.51856
445 0.920568
450 36.5421
455 632.077
460 969.205
465 233.637
470 28.5772
475 4.70273
480 1.72064
485 1.41953
490 1.55329
495 1.44018
500 1.24402
505 1.02029
510 1.09439
515 1.1874
520 1.2086
525 2.05024
530 3.03779
535 2.45807
540 1.6216
545 1.4532
550 1.26875
555 0.969523
560 0.812759
565 0.691207
570 0.603387
575 0.563551
580 0.491829
585 0.36925
590 0.273719
595 0.22931
600 0.0260946
Ex : 468
200 0.049467
205 0.0616636
210 0.0705788
215 0.0595896
220 0.0306431
225 0.0376318
230 0.0767559
235 0.0518932
240 0.0709148
245 0.0676183
250 0.0602671
255 0.0420792
260 0.0862099
265 0.0870408
270 0.060328
275 0.0863783
280 0.0548407
285 0.0521568
290 0.0784111
295 0.114226
300 0.0662336
305 0.13936
310 0.0575099
315 0.0801916
320 0.0855985
325 0.0735386
330 0.0766685
335 0.109581
340 0.126948
345 0.121909
350 0.0785744
355 0.119042
360 0.105741
365 0.0733679
370 0.0796281
375 0.0889584
380 0.090724
385 0.0974717
390 0.107925
395 0.127691
400 0.108365
405 0.0788389
410 0.145279
415 0.156633
420 0.160892
425 0.127239
430 0.181735
435 0.22842
440 0.258864
445 0.440504
450 0.957449
455 40.0508
460 639.417
465 1009.4
470 246.154
475 29.7861
480 4.78134
485 1.62594
490 1.29884
495 1.39415
500 1.49928
505 1.23744
510 1.00159
515 0.991797
520 0.999471
525 1.22832
530 1.48363
535 2.47089
540 2.67768
545 1.76233
550 1.46874
555 1.27505
560 1.11359
565 0.828351
570 0.704613
575 0.58048
580 0.490633
585 0.397191
590 0.374675
595 0.26442
600 0.28675
Ex : 473
200 0.0528162
205 0.0449165
210 0.0516856
215 0.0306349
220 0.118056
225 0.048395
230 0.0423651
235 0.0516701
240 0.0445548
245 0.0601436
250 0.075819
255 0.0598735
260 0.078855
265 0.0568796
270 0.0732184
275 0.0612369
280 0.0940646
285 0.0435629
290 0.046309
295 0.0874234
300 0.0681649
305 0.0958047
310 0.0600235
315 0.066884
320 0.109946
325 0.0869782
330 0.0729759
335 0.0788544
340 0.0892643
345 0.0757752
350 0.0435853
355 0.0796592
360 0.0946613
365 0.1113
370 0.0894437
375 0.0857337
380 0.0727102
385 0.11112
390 0.0777285
395 0.11232
400 0.156365
405 0.117635
410 0.120014
415 0.0845534
420 0.11763
425 0.102234
430 0.123076
435 0.19825
440 0.232235
445 0.30291
450 0.511253
455 0.936326
460 47.0956
465 713.724
470 1016.35
475 235.494
480 28.6813
485 4.63117
490 1.58432
495 1.22427
500 1.38221
505 1.44364
510 1.15242
515 1.05172
520 1.0575
525 1.07443
530 1.17057
535 1.27078
540 2.09575
545 2.60459
550 1.88642
555 1.25612
560 1.15786
565 0.96972
570 0.664755
575 0.611029
580 0.492012
585 0.379233
590 0.326509
595 0.271375
600 0.352903
Ex : 478
200 0.0550642
205 0.0649945
210 0.0448592
215 0.0583368
220 0.0988162
225 0.12259
230 0.119934
235 0.0671872
240 0.0588016
245 0.0352307
250 0.0368701
255 0.0519109
260 0.0807935
265 0.0973231
270 0.112881
275 0.0558751
280 0.0926915
285 0.0340225
290 0.0796498
295 0.16285
300 0.0775124
305 0.0703501
310 0.0829128
315 0.0920361
320 0.0692955
325 0.0691136
330 0.0773607
335 0.0924709
340 0.121708
345 0.10607
350 0.0724933
355 0.0852945
360 0.0772151
365 0.075117
370 0.0770954
375 0.0770003
380 0.0734062
385 0.0958224
390 0.132649
395 0.146313
400 0.158079
405 0.107581
410 0.108792
415 0.134213
420 0.105331
425 0.119674
430 0.25013
435 0.165952
440 0.182162
445 0.263171
450 0.40892
455 0.588965
460 1.26955
465 53.1596
470 755.41
475 1044.7
480 249.513
485 30.1624
490 4.8136
495 1.52622
500 1.08807
505 1.15739
510 1.2359
515 1.13347
520 1.09964
525 1.07096
530 1.08463
535 1.03118
540 1.14648
545 1.48878
550 2.38548
555 1.92799
560 1.16871
565 1.05741
570 0.839182
575 0.674593
580 0.520465
585 0.371736
590 0.433206
595 0.191821
600 0.0218285
Ex : 483
200 0.0848894
205 0.0589101
210 0.0786715
215 0.153784
220 0.0726185
225 0.0953635
230 0.0593684
235 0.0463463
240 0.0757532
245 0.0864756
250 0.0709683
255 0.0661404
260 0.0737274
265 0.0632043
270 0.100337
275 0.0747446
280 0.0902672
285 0.104664
290 0.100131
295 0.129634
300 0.0823186
305 0.067181
310 0.0683347
315 0.072284
320 0.0651609
325 0.0875972
330 0.0609984
335 0.0482961
340 0.0652416
345 0.102008
350 0.0699227
355 0.0585466
360 0.0760514
365 0.0792809
370 0.0887935
375 0.0713978
380 0.0734194
385 0.0935879
390 0.0825123
395 0.0717639
400 0.125519
405 0.1202
410 0.144763
415 0.103713
420 0.133808
425 0.139744
430 0.148563
435 0.133302
440 0.200205
445 0.228643
450 0.338151
455 0.421448
460 0.6552
465 1.20883
470 41.6735
475 752.608
480 1147.99
485 275.264
490 33.1826
495 5.0651
500 1.61519
505 1.1614
510 1.15793
515 1.31465
520 1.1968
525 1.15163
530 1.03754
535 1.1798
540 1.00278
545 0.909831
550 1.22821
555 2.12068
560 2.19955
565 1.33253
570 0.895537
575 0.746764
580 0.576656
585 0.498248
590 0.366804
595 0.28646
600 0.576054
Ex : 488
200 0.0821805
205 0.0686885
210 0.0700775
215 0.0842789
220 0.0651364
225 0.0865216
230 0.0962563
235 0.0764081
240 0.0841408
245 0.0815155
250 0.0832012
255 0.058393
260 0.0980786
265 0.0752101
270 0.0590562
275 0.0973195
280 0.074538
285 0.134558
290 0.0784494
295 0.102544
300 0.0611335
305 0.067563
310 0.0887939
315 0.0890706
320 0.136981
325 0.0992365
330 0.0551422
335 0.0620029
340 0.0889283
345 0.106693
350 0.069355
355 0.0891707
360 0.134314
365 0.0708044
370 0.118517
375 0.0870256
380 0.137337
385 0.18919
390 0.0988587
395 0.107863
400 0.118357
405 0.139171
410 0.143474
415 0.16514
420 0.13262
425 0.192676
430 0.131918
435 0.137621
440 0.159934
445 0.243687
450 0.29747
455 0.366188
460 0.444913
465 0.748524
470 1.27993
475 51.4687
480 821.764
485 1153.08
490 272.08
495 32.8352
500 4.94792
505 1.55753
510 0.940142
515 1.0207
520 1.34772
525 1.21223
530 1.03367
535 1.10675
540 1.05079
545 0.922504
550 0.859129
555 0.930384
560 1.55699
565 2.00957
570 1.42327
575 0.863178
580 0.648137
585 0.418644
590 0.368773
595 0.263962
600 0.329932
Ex : 493
200 0.0859887
205 0.060937
210 0.136256
215 0.090329
220 0.107743
225 0.0982436
230 0.0943119
235 0.109903
240 0.0885334
245 0.105166
250 0.0674962
255 0.0570308
260 0.0386573
265 0.0595857
270 0.0641416
275 0.0698848
280 0.10412
285 0.063342
290 0.0579563
295 0.055247
300 0.086038
305 0.0864746
310 0.0937109
315 0.132805
320 0.135359
325 0.128654
330 0.145392
335 0.127643
340 0.10567
345 0.116558
350 0.0686819
355 0.0719309
360 0.140843
365 0.171491
370 0.0685116
375 0.0741251
380 0.123178
385 0.128585
390 0.138719
395 0.109911
400 0.108467
405 0.113061
410 0.112746
415 0.0853274
420 0.197337
425 0.134447
430 0.1308
435 0.116531
440 0.156012
445 0.19351
450 0.183068
455 0.264103
460 0.317387
465 0.514473
470 0.716116
475 1.28393
480 48.4058
485 817.68
490 1217.61
495 280.494
500 33.4336
505 4.97917
510 1.72006
515 1.01004
520 1.12387
525 1.31142
530 1.35125
535 1.22899
540 0.958654
545 0.819793
550 0.813531
555 0.895317
560 0.888593
565 1.0855
570 1.67042
575 1.40196
580 0.807324
585 0.548227
590 0.442222
595 0.36252
600 0.344428
Ex : 498
200 0.0660845
205 0.0429434
210 0.132473
215 0.0803109
220 0.108554
225 0.102986
230 0.10954
235 0.0826883
240 0.069377
245 0.0461285
250 0.119484
255 0.0548487
260 0.0744042
265 0.141673
270 0.108659
275 0.0694133
280 0.082491
285 0.0721981
290 0.0702902
295 0.0838502
300 0.109822
305 0.0890456
310 0.098816
315 0.0758028
320 0.128422
325 0.0719372
330 0.121884
335 0.0959325
340 0.0879432
345 0.114475
350 0.132899
355 0.107475
360 0.158985
365 0.132745
370 0.116877
375 0.0879763
380 0.102004
385 0.176761
390 0.136531
395 0.0825754
400 0.0953129
405 0.126992
410 0.143122
415 0.153585
420 0.0913723
425 0.100598
430 0.155695
435 0.161611
440 0.193927
445 0.140537
450 0.148781
455 0.187276
460 0.255606
465 0.298032
470 0.497524
475 0.789683
480 1.37624
485 58.5123
490 887.979
495 1215.97
500 280.543
505 33.6729
510 5.14702
515 1.68155
520 1.1923
525 1.08151
530 1.2631
535 1.20715
540 1.05707
545 0.793664
550 0.874084
555 0.870553
560 0.798836
565 0.680106
570 0.786498
575 1.17538
580 1.0923
585 0.644628
590 0.419311
595 0.395715
600 0.231793
Ex : 503
200 0.0978638
205 0.0764705
210 0.109134
215 0.0915026
220 0.0835161
225 0.105523
230 0.0677852
235 0.06296
240 0.130976
245 0.0797875
250 0.142254
255 0.132707
260 0.110082
265 0.0716509
270 0.0501396
275 0.0814134
280 0.131004
285 0.0951228
290 0.0622435
295 0.101565
300 0.0768905
305 0.107154
310 0.100739
315 0.0930064
320 0.0582261
325 0.0740667
330 0.147389
335 0.0742948
340 0.0649869
345 0.0989029
350 0.143135
355 0.102754
360 0.109026
365 0.127242
370 0.155935
375 0.128661
380 0.0856239
385 0.225914
390 0.171015
395 0.1023
400 0.0838464
405 0.0971776
410 0.12742
415 0.163921
420 0.165481
425 0.0709276
430 0.160181
435 0.168483
440 0.197967
445 0.215246
450 0.214745
455 0.265608
460 0.285357
465 0.308617
470 0.299013
475 0.471624
480 0.753727
485 1.42277
490 54.4466
495 896.98
500 1259.22
505 289.667
510 34.8044
515 5.10515
520 1.69727
525 1.08198
530 1.06647
535 1.04283
540 1.01311
545 1.02219
550 0.790601
555 0.821421
560 0.739592
565 0.637398
570 0.537481
575 0.481802
580 0.837612
585 1.03908
590 0.723115
595 0.392886
600 0.091764
Ex : 508
200 0.161402
205 0.0893177
210 0.067053
215 0.115149
220 0.148246
225 0.110597
230 0.0770899
235 0.0762642
240 0.109732
245 0.102876
250 0.08065
255 0.0977883
260 0.082809
265 0.119678
270 0.0833812
275 0.100771
280 0.118548
285 0.119127
290 0.105032
295 0.124269
300 0.0558986
305 0.0955827
310 0.13196
315 0.0765626
320 0.109239
325 0.177888
330 0.127829
335 0.11099
340 0.0906442
345 0.0904776
350 0.0986055
355 0.108686
360 0.148603
365 0.0659719
370 0.105802
375 0.0944819
380 0.164604
385 0.155437
390 0.119723
395 0.198863
400 0.13909
405 0.188275
410 0.151797
415 0.10662
420 0.17084
425 0.164062
430 0.214634
435 0.102699
440 0.129278
445 0.127852
450 0.096318
455 0.191173
460 0.195615
465 0.377149
470 0.277236
475 0.366016
480 0.430008
485 0.721043
490 1.29166
495 59.2479
500 900.269
505 1281.23
510 309.014
515 37.1669
520 5.65071
525 1.84006
530 1.08969
535 1.06009
540 1.11702
545 0.97723
550 0.931495
555 0.839671
560 0.624478
565 0.566878
570 0.556488
575 0.475811
580 0.497247
585 0.618696
590 0.834183
595 0.64269
600 0.392488
Ex : 513
200 0.0750222
205 0.0835887
210 0.0850883
215 0.0825995
220 0.120919
225 0.121622
230 0.206394
235 0.14875
240 0.0622106
245 0.13021
250 0.0664777
255 0.0870986
260 0.0773713
265 0.142014
270 0.0888477
275 0.0782263
280 0.0829836
285 0.131849
290 0.117017
295 0.129924
300 0.105535
305 0.0805155
310 0.0829053
315 0.0963973
320 0.0968726
325 0.0979201
330 0.0770302
335 0.130524
340 0.164659
345 0.141984
350 0.13549
355 0.110107
360 0.123529
365 0.186526
370 0.136745
375 0.0676144
380 0.109627
385 0.0905231
390 0.15881
395 0.120414
400 0.14635
405 0.138646
410 0.117863
415 0.10475
420 0.114117
425 0.145882
430 0.135039
435 0.246177
440 0.142931
445 0.145584
450 0.116441
455 0.142081
460 0.187199
465 0.252065
470 0.24415
475 0.249929
480 0.32129
485 0.52238
490 0.736644
495 1.33818
500 55.0717
505 905.714
510 1300.99
515 318.643
520 38.5002
525 5.83961
530 1.79681
535 1.10345
540 1.04343
545 1.11848
550 0.956613
555 0.876637
560 0.79449
565 0.610571
570 0.464447
575 0.506723
580 0.451134
585 0.435909
590 0.38162
595 0.621377
600 1.81256
Ex : 518
200 0.106922
205 0.0548908
210 0.0897694
215 0.0575271
220 0.170006
225 0.09034
230 0.123915
235 0.0953984
240 0.160313
245 0.110197
250 0.090186
255 0.0801537
260 0.0728459
265 0.074632
270 0.0725693
275 0.0747489
280 0.102231
285 0.114423
290 0.102887
295 0.157804
300 0.121525
305 0.100988
310 0.0413721
315 0.0623548
320 0.0974295
325 0.0902234
330 0.113259
335 0.115194
340 0.0730912
345 0.160075
350 0.0918374
355 0.148678
360 0.161083
365 0.162948
370 0.0826936
375 0.12198
380 0.101228
385 0.106969
390 0.0964903
395 0.156115
400 0.118466
405 0.107088
410 0.109796
415 0.17262
420 0.104429
425 0.12988
430 0.157495
435 0.133595
440 0.202714
445 0.124489
450 0.218376
455 0.146605
460 0.151668
465 0.213478
470 0.214583
475 0.259866
480 0.308952
485 0.381857
490 0.568517
495 0.780329
500 1.32066
505 56.6675
510 885.87
515 1317.53
520 324.871
525 39.0278
530 5.79062
535 1.81937
540 1.16239
545 0.79329
550 0.886763
555 0.863296
560 0.724705
565 0.680984
570 0.531936
575 0.369132
580 0.323463
585 0.381625
590 0.372973
595 0.321511
600 0.356131
Ex : 523
200 0.0541465
205 0.0769571
210 0.0808475
215 0.0817364
220 0.0923895
225 0.174789
230 0.114681
235 0.151883
240 0.163986
245 0.0870483
250 0.0469358
255 0.0889769
260 0.155363
265 0.157008
270 0.136695
275 0.108232
280 0.179586
285 0.114219
290 0.131081
295 0.117463
300 0.0777092
305 0.082396
310 0.15555
315 0.0756207
320 0.0899625
325 0.102961
330 0.0998392
335 0.153234
340 0.111815
345 0.109676
350 0.114516
355 0.135832
360 0.0856941
365 0.0738973
370 0.132695
375 0.163098
380 0.0676885
385 0.165859
390 0.103908
395 0.12743
400 0.0888766
405 0.092857
410 0.118476
415 0.0784704
420 0.120323
425 0.122359
430 0.189104
435 0.175921
440 0.199474
445 0.259427
450 0.155703
455 0.175476
460 0.170581
465 0.227646
470 0.279167
475 0.274897
480 0.268391
485 0.250775
490 0.401881
495 0.548724
500 0.66795
505 1.36287
510 51.3901
515 862.462
520 1311.55
525 336.445
530 40.1504
535 5.80679
540 1.65091
545 0.996244
550 0.610474
555 0.589317
560 0.744704
565 0.68141
570 0.597854
575 0.464127
580 0.407466
585 0.381611
590 0.397171
595 0.329343
600 0.527339
Ex : 528
200 0.0643787
205 0.10971
210 0.0845151
215 0.136498
220 0.0786076
225 0.0863605
230 0.10103
235 0.117424
240 0.074112
245 0.13095
250 0.128131
255 0.154365
260 0.169599
265 0.158873
270 0.107893
275 0.103692
280 0.0915928
285 0.16867
290 0.102201
295 0.131238
300 0.0908016
305 0.111688
310 0.0446822
315 0.0905632
320 0.131251
325 0.0670975
330 0.0974497
335 0.134926
340 0.159816
345 0.153625
350 0.183276
355 0.173672
360 0.104841
365 0.150745
370 0.100097
375 0.131386
380 0.110298
385 0.14527
390 0.157395
395 0.149834
400 0.107768
405 0.162964
410 0.0765892
415 0.141204
420 0.130582
425 0.151074
430 0.133027
435 0.113689
440 0.120613
445 0.105913
450 0.172718
455 0.198497
460 0.171138
465 0.113551
470 0.132474
475 0.143258
480 0.227189
485 0.189348
490 0.374989
495 0.381323
500 0.445578
505 0.741389
510 1.31814
515 49.6581
520 873.345
525 1325.06
530 330.566
535 39.568
540 5.72038
545 1.51445
550 0.855572
555 0.666497
560 0.51359
565 0.630732
570 0.57903
575 0.527564
580 0.474156
585 0.324209
590 0.40475
595 0.353564
600 0.519881
Ex : 533
200 0.173558
205 0.111584
210 0.0844647
215 0.174333
220 0.124236
225 0.168504
230 0.212018
235 0.10017
240 0.0820709
245 0.0824526
250 0.173478
255 0.110846
260 0.0873015
265 0.0919053
270 0.075925
275 0.120425
280 0.0633986
285 0.119522
290 0.196299
295 0.116732
300 0.180279
305 0.161494
310 0.149973
315 0.130957
320 0.189201
325 0.146839
330 0.152041
335 0.155043
340 0.0971874
345 0.15519
350 0.173746
355 0.133563
360 0.117401
365 0.178753
370 0.100222
375 0.21114
380 0.103592
385 0.0805785
390 0.192483
395 0.0916266
400 0.115704
405 0.114027
410 0.177539
415 0.222022
420 0.12764
425 0.178116
430 0.114912
435 0.184354
440 0.250276
445 0.200751
450 0.103978
455 0.166179
460 0.155699
465 0.176244
470 0.193225
475 0.249369
480 0.188774
485 0.196833
490 0.270787
495 0.317294
500 0.378644
505 0.579516
510 0.753532
515 1.12748
520 49.8035
525 840.81
530 1307.41
535 336.233
540 40.0822
545 5.64648
550 1.44386
555 0.814971
560 0.572061
565 0.476178
570 0.726665
575 0.613541
580 0.422238
585 0.393805
590 0.395803
595 0.325468
600 0.543439
Ex : 538
200 0.134277
205 0.103624
210 0.111315
215 0.0983397
220 0.0758037
225 0.0883926
230 0.0870746
235 0.112101
240 0.132018
245 0.100483
250 0.162963
255 0.115781
260 0.120157
265 0.146523
270 0.12337
275 0.113533
280 0.134308
285 0.115305
290 0.0921311
295 0.0451988
300 0.0624894
305 0.0706428
310 0.110178
315 0.0940398
320 0.139439
325 0.144404
330 0.122995
335 0.140826
340 0.139835
345 0.0988209
350 0.0945657
355 0.189385
360 0.11349
365 0.129748
370 0.166834
375 0.119753
380 0.146402
385 0.0883416
390 0.0951008
395 0.0911875
400 0.181201
405 0.150734
410 0.140314
415 0.0927769
420 0.198905
425 0.215403
430 0.15578
435 0.1506
440 0.143491
445 0.149787
450 0.15407
455 0.0946389
460 0.153464
465 0.195396
470 0.13745
475 0.141383
480 0.0984377
485 0.197451
490 0.253878
495 0.223679
500 0.290378
505 0.461164
510 0.525672
515 0.623265
520 1.27762
525 43.2504
530 801.46
535 1311.94
540 352.358
545 42.1208
550 5.78196
555 1.42034
560 0.750438
565 0.568791
570 0.481309
575 0.494696
580 0.453451
585 0.408438
590 0.323425
595 0.371006
600 0.334374
Ex : 543
200 0.161734
205 0.154188
210 0.118948
215 0.144751
220 0.189742
225 0.165451
230 0.0809358
235 0.0951587
240 0.0892005
245 0.0785288
250 0.143706
255 0.0927133
260 0.118138
265 0.119402
270 0.093796
275 0.0785521
280 0.0841749
285 0.129214
290 0.0819595
295 0.0761455
300 0.0925016
305 0.0776199
310 0.110329
315 0.135077
320 0.172423
325 0.148793
330 0.127113
335 0.235245
340 0.129695
345 0.145952
350 0.255293
355 0.100118
360 0.0931619
365 0.154188
370 0.0858886
375 0.115387
380 0.144114
385 0.146277
390 0.121283
395 0.108387
400 0.215834
405 0.155066
410 0.127874
415 0.130375
420 0.150975
425 0.134416
430 0.154313
435 0.223482
440 0.166907
445 0.143337
450 0.138347
455 0.134528
460 0.276443
465 0.257955
470 0.211714
475 0.237368
480 0.170855
485 0.215419
490 0.183588
495 0.143577
500 0.218509
505 0.285736
510 0.351923
515 0.549425
520 0.674566
525 1.11086
530 39.4689
535 777.22
540 1310.75
545 356.072
550 42.6643
555 5.74956
560 1.35248
565 0.832746
570 0.502548
575 0.474371
580 0.40702
585 0.374979
590 0.46934
595 0.427917
600 0.519027
Ex : 548
200 0.192471
205 0.108258
210 0.216968
215 0.154756
220 0.220408
225 0.122805
230 0.225321
235 0.131932
240 0.16504
245 0.125469
250 0.116499
255 0.136179
260 0.175695
265 0.230147
270 0.150655
275 0.139847
280 0.192082
285 0.111217
290 0.0615585
295 0.0786188
300 0.13969
305 0.12502
310 0.134917
315 0.0818245
320 0.170705
325 0.0891202
330 0.153042
335 0.176815
340 0.155954
345 0.0971358
350 0.0814949
355 0.123748
360 0.164415
365 0.123448
370 0.148074
375 0.150103
380 0.102391
385 0.112776
390 0.101867
395 0.243318
400 0.215668
405 0.22628
410 0.139344
415 0.140049
420 0.134851
425 0.159917
430 0.131307
435 0.155671
440 0.131586
445 0.168701
450 0.155217
455 0.103472
460 0.157934
465 0.181345
470 0.163314
475 0.238343
480 0.209017
485 0.201367
490 0.183137
495 0.229043
500 0.265918
505 0.262727
510 0.230213
515 0.266676
520 0.370932
525 0.677225
530 1.28512
535 43.2383
540 773.281
545 1280.96
550 356.316
555 42.472
560 5.70969
565 1.23155
570 0.726352
575 0.514334
580 0.408318
585 0.358835
590 0.44306
595 0.3583
600 1.50759
Ex : 553
200 0.116713
205 0.112388
210 0.121668
215 0.0923508
220 0.125683
225 0.083946
230 0.133884
235 0.147226
240 0.160428
245 0.144392
250 0.105813
255 0.071389
260 0.158419
265 0.145293
270 0.112248
275 0.116834
280 0.204089
285 0.0788556
290 0.110197
295 0.131462
300 0.156378
305 0.0856661
310 0.120352
315 0.161584
320 0.12802
325 0.142115
330 0.0647123
335 0.172192
340 0.118814
345 0.174694
350 0.238183
355 0.203495
360 0.117181
365 0.171255
370 0.103217
375 0.135013
380 0.128848
385 0.13294
390 0.109845
395 0.115934
400 0.189838
405 0.190177
410 0.175366
415 0.18155
420 0.14061
425 0.196784
430 0.178841
435 0.22682
440 0.171082
445 0.303765
450 0.164295
455 0.198242
460 0.209762
465 0.120401
470 0.15654
475 0.232095
480 0.16605
485 0.184871
490 0.14556
495 0.167205
500 0.171002
505 0.230176
510 0.172367
515 0.269165
520 0.319477
525 0.439927
530 0.567151
535 1.12713
540 37.3756
545 750.403
550 1282.16
555 359.628
560 42.7595
565 5.74819
570 1.11429
575 0.744631
580 0.446084
585 0.255919
590 0.360037
595 0.361749
600 0.27956
Ex : 558
200 0.16536
205 0.171069
210 0.172759
215 0.118372
220 0.108971
225 0.11265
230 0.132361
235 0.141036
240 0.151958
245 0.182249
250 0.113355
255 0.153608
260 0.156066
265 0.187109
270 0.162644
275 0.099636
280 0.123723
285 0.0917302
290 0.0747859
295 0.120693
300 0.125351
305 0.191454
310 0.136186
315 0.219876
320 0.198591
325 0.162737
330 0.275151
335 0.105615
340 0.129782
345 0.143737
350 0.161859
355 0.0898932
360 0.17989
365 0.142409
370 0.169396
375 0.149601
380 0.229001
385 0.180261
390 0.155734
395 0.160371
400 0.131942
405 0.227812
410 0.148561
415 0.167535
420 0.124052
425 0.101017
430 0.117514
435 0.19131
440 0.218791
445 0.138888
450 0.304649
455 0.278932
460 0.173818
465 0.222771
470 0.125734
475 0.143105
480 0.160457
485 0.157648
490 0.204162
495 0.168502
500 0.242077
505 0.215158
510 0.257519
515 0.292214
520 0.317417
525 0.378901
530 0.473381
535 0.644067
540 1.19012
545 35.0854
550 714.306
555 1257.07
560 354.344
565 42.398
570 5.76418
575 1.13312
580 0.603225
585 0.451593
590 0.359998
595 0.402132
600 0.27134
Ex : 563
200 0.0610064
205 0.127661
210 0.0851735
215 0.075997
220 0.165554
225 0.188853
230 0.0883114
235 0.13297
240 0.139373
245 0.100878
250 0.121526
255 0.139272
260 0.235771
265 0.150968
270 0.0950056
275 0.115866
280 0.140608
285 0.205378
290 0.146407
295 0.16496
300 0.0867567
305 0.136872
310 0.140359
315 0.133513
320 0.096854
325 0.0985165
330 0.127757
335 0.148451
340 0.182224
345 0.168326
350 0.244278
355 0.153348
360 0.156233
365 0.160582
370 0.104363
375 0.189385
380 0.154382
385 0.176466
390 0.135036
395 0.13831
400 0.196712
405 0.147426
410 0.0916203
415 0.220583
420 0.154607
425 0.100888
430 0.176518
435 0.119994
440 0.180584
445 0.214428
450 0.217042
455 0.182086
460 0.176817
465 0.176415
470 0.166661
475 0.130794
480 0.15079
485 0.186177
490 0.164714
495 0.268665
500 0.184824
505 0.162884
510 0.315359
515 0.25855
520 0.24658
525 0.291641
530 0.405227
535 0.480613
540 0.765365
545 1.10646
550 35.5878
555 699.511
560 1207.89
565 345.44
570 41.1506
575 5.44029
580 1.04941
585 0.507133
590 0.327989
595 0.468086
600 0.722099
Ex : 568
200 0.192402
205 0.13457
210 0.0996156
215 0.0883732
220 0.14577
225 0.189261
230 0.140489
235 0.122876
240 0.0983441
245 0.126538
250 0.149922
255 0.103476
260 0.146752
265 0.129823
270 0.126252
275 0.153043
280 0.173295
285 0.116457
290 0.206881
295 0.169909
300 0.168159
305 0.109624
310 0.158777
315 0.153257
320 0.220099
325 0.131733
330 0.171999
335 0.112023
340 0.194688
345 0.23539
350 0.0998698
355 0.187509
360 0.164658
365 0.129564
370 0.138092
375 0.132007
380 0.105484
385 0.0946067
390 0.163796
395 0.140362
400 0.190883
405 0.162524
410 0.135468
415 0.247131
420 0.134879
425 0.138829
430 0.160045
435 0.189652
440 0.209218
445 0.19995
450 0.241082
455 0.140677
460 0.14161
465 0.150192
470 0.0994298
475 0.118916
480 0.119849
485 0.255006
490 0.187039
495 0.14959
500 0.207559
505 0.238244
510 0.142192
515 0.234086
520 0.207047
525 0.346725
530 0.336015
535 0.288041
540 0.457254
545 0.576055
550 1.03335
555 25.8094
560 639.277
565 1196.36
570 361.342
575 43.2161
580 5.53645
585 1.12004
590 0.511848
595 0.512717
600 0.0583452
Ex : 573
200 0.0663193
205 0.156466
210 0.112574
215 0.142516
220 0.117226
225 0.11909
230 0.173802
235 0.270694
240 0.110056
245 0.129111
250 0.15001
255 0.162758
260 0.221421
265 0.146799
270 0.173002
275 0.140693
280 0.21808
285 0.106476
290 0.112138
295 0.12959
300 0.135908
305 0.176273
310 0.139682
315 0.158217
320 0.137945
325 0.0988629
330 0.219978
335 0.0998853
340 0.127156
345 0.117359
350 0.190935
355 0.168176
360 0.281254
365 0.137466
370 0.181999
375 0.120103
380 0.0936106
385 0.19459
390 0.197125
395 0.159141
400 0.0852719
405 0.187427
410 0.177019
415 0.158928
420 0.197047
425 0.157175
430 0.121565
435 0.156934
440 0.145121
445 0.148646
450 0.242888
455 0.17217
460 0.120974
465 0.219654
470 0.126022
475 0.192231
480 0.13198
485 0.255059
490 0.156733
495 0.268955
500 0.271977
505 0.232334
510 0.27571
515 0.171905
520 0.216215
525 0.257111
530 0.302674
535 0.379848
540 0.372659
545 0.428282
550 0.583454
555 0.841999
560 22.8811
565 554.383
570 1091.8
575 338.474
580 40.5594
585 5.23472
590 0.914471
595 0.509173
600 0.99141
Ex : 578
200 0.130873
205 0.150459
210 0.111411
215 0.0942907
220 0.115816
225 0.0619412
230 0.131687
235 0.167064
240 0.170915
245 0.1618
250 0.0796954
255 0.176225
260 0.141607
265 0.200425
270 0.0879247
275 0.178799
280 0.156495
285 0.133281
290 0.129806
295 0.196688
300 0.092813
305 0.124882
310 0.11608
315 0.0838447
320 0.103893
325 0.163039
330 0.205642
335 0.163997
340 0.162556
345 0.12123
350 0.110738
355 0.110535
360 0.192691
365 0.107469
370 0.137782
375 0.186215
380 0.142491
385 0.1529
390 0.0793565
395 0.200269
400 0.312656
405 0.18052
410 0.148202
415 0.084039
420 0.12325
425 0.239242
430 0.223517
435 0.125115
440 0.190927
445 0.199666
450 0.213455
455 0.176427
460 0.290999
465 0.232162
470 0.157223
475 0.0813161
480 0.152063
485 0.127625
490 0.177676
495 0.199183
500 0.206154
505 0.14977
510 0.208447
515 0.124551
520 0.131759
525 0.240071
530 0.275607
535 0.199474
540 0.234539
545 0.382832
550 0.502868
555 0.594094
560 0.813131
565 20.1006
570 499.491
575 967.29
580 291.819
585 34.7369
590 4.55555
595 0.933826
600 1.20492
Ex : 583
200 0.0956754
205 0.209481
210 0.123799
215 0.1055
220 0.16405
225 0.272931
230 0.173834
235 0.0780354
240 0.17957
245 0.203818
250 0.104461
255 0.0597983
260 0.124068
265 0.0966989
270 0.11045
275 0.134491
280 0.148705
285 0.141601
290 0.160895
295 0.0931196
300 0.147772
305 0.0623309
310 0.136095
315 0.0714721
320 0.150687
325 0.171856
330 0.17441
335 0.168939
340 0.149932
345 0.18094
350 0.142681
355 0.106766
360 0.176952
365 0.181046
370 0.113792
375 0.118836
380 0.150642
385 0.119127
390 0.16513
395 0.150103
400 0.110569
405 0.164172
410 0.140778
415 0.169202
420 0.092544
425 0.170216
430 0.129449
435 0.174621
440 0.180361
445 0.1673
450 0.132996
455 0.173113
460 0.174173
465 0.133187
470 0.194195
475 0.210589
480 0.166422
485 0.0862334
490 0.122749
495 0.221073
500 0.200417
505 0.139667
510 0.231501
515 0.129662
520 0.13698
525 0.228575
530 0.206056
535 0.2343
540 0.246237
545 0.206246
550 0.282083
555 0.326054
560 0.531241
565 0.694814
570 16.1445
575 441.67
580 833.253
585 241.728
590 28.6951
595 3.68167
600 0.989105
Ex : 588
200 0.184392
205 0.0931935
210 0.121226
215 0.102723
220 0.0899923
225 0.17703
230 0.193856
235 0.123044
240 0.0903006
245 0.0820345
250 0.116684
255 0.160721
260 0.110972
265 0.077127
270 0.0616983
275 0.0966735
280 0.124855
285 0.18459
290 0.171597
295 0.117073
300 0.0664271
305 0.158576
310 0.17618
315 0.139793
320 0.144799
325 0.114962
330 0.199988
335 0.229953
340 0.135291
345 0.172848
350 0.129425
355 0.114104
360 0.0780739
365 0.137264
370 0.185384
375 0.135654
380 0.0765121
385 0.0899152
390 0.108408
395 0.1972
400 0.171527
405 0.11677
410 0.208767
415 0.155001
420 0.124959
425 0.121442
430 0.211135
435 0.195137
440 0.18706
445 0.116959
450 0.209264
455 0.187131
460 0.140807
465 0.262114
470 0.134716
475 0.144671
480 0.115376
485 0.155346
490 0.140231
495 0.171667
500 0.172653
505 0.16003
510 0.220433
515 0.207289
520 0.132116
525 0.150009
530 0.219348
535 0.126316
540 0.188906
545 0.219047
550 0.158127
555 0.204433
560 0.322839
565 0.390173
570 0.555547
575 14.9054
580 368.442
585 718.539
590 217.787
595 25.9894
600 3.7264
Ex : 593
200 0.109205
205 0.076846
210 0.0705017
215 0.155374
220 0.0915982
225 0.133628
230 0.103519
235 0.148181
240 0.196555
245 0.135768
250 0.0895018
255 0.169021
260 0.121204
265 0.107332
270 0.166329
275 0.137593
280 0.139228
285 0.10993
290 0.118977
295 0.183708
300 0.17993
305 0.109884
310 0.134928
315 0.202501
320 0.211372
325 0.203316
330 0.113516
335 0.133793
340 0.0835313
345 0.189385
350 0.0948912
355 0.143521
360 0.118296
365 0.111177
370 0.137782
375 0.0926494
380 0.0600805
385 0.105144
390 0.160471
395 0.259179
400 0.170777
405 0.13943
410 0.142971
415 0.210031
420 0.156477
425 0.126944
430 0.241142
435 0.208962
440 0.194883
445 0.154086
450 0.131605
455 0.189904
460 0.193789
465 0.167849
470 0.16538
475 0.15368
480 0.162148
485 0.226422
490 0.192856
495 0.2945
500 0.173221
505 0.206323
510 0.294634
515 0.233712
520 0.171801
525 0.15908
530 0.139713
535 0.316383
540 0.264468
545 0.18856
550 0.178937
555 0.232337
560 0.246299
565 0.408266
570 0.426008
575 0.533485
580 13.5806
585 325.722
590 607.567
595 186.12
600 26.215
Ex : 598
200 0.105512
205 0.148268
210 0.127859
215 0.161099
220 0.169018
225 0.180808
230 0.0997491
235 0.24657
240 0.12192
245 0.155268
250 0.125809
255 0.156996
260 0.174086
265 0.0899379
270 0.129541
275 0.105751
280 0.172191
285 0.226348
290 0.150072
295 0.219177
300 0.113832
305 0.234378
310 0.12209
315 0.127574
320 0.125587
325 0.157799
330 0.0972345
335 0.177038
340 0.176486
345 0.179384
350 0.154768
355 0.147762
360 0.184839
365 0.208869
370 0.0776159
375 0.114212
380 0.156172
385 0.105037
390 0.228084
395 0.113009
400 0.171996
405 0.110043
410 0.12937
415 0.0927077
420 0.119208
425 0.17598
430 0.103344
435 0.220398
440 0.167913
445 0.0859943
450 0.185339
455 0.143928
460 0.112771
465 0.285524
470 0.163631
475 0.0908023
480 0.0797963
485 0.191539
490 0.15146
495 0.264224
500 0.143268
505 0.199946
510 0.174356
515 0.233366
520 0.148264
525 0.282311
530 0.237501
535 0.26599
540 0.219963
545 0.139053
550 0.157212
555 0.403979
560 0.229575
565 0.233068
570 0.348056
575 0.328966
580 0.468318
585 13.2428
590 297.49
595 540.272
600 360.666
Ex : 603
200 0.276604
205 0.131742
210 0.101438
215 0.152682
220 0.200083
225 0.145501
230 0.112973
235 0.148492
240 0.156955
245 0.188258
250 0.214525
255 0.0910096
260 0.118314
265 0.122698
270 0.146752
275 0.135698
280 0.126349
285 0.107504
290 0.135653
295 0.17164
300 0.123625
305 0.127432
310 0.253731
315 0.14055
320 0.232305
325 0.158363
330 0.0949749
335 0.112866
340 0.0960024
345 0.0960722
350 0.238467
355 0.25238
360 0.095172
365 0.131501
370 0.168903
375 0.173957
380 0.0873176
385 0.176515
390 0.182962
395 0.204094
400 0.310965
405 0.165909
410 0.181488
415 0.1449
420 0.151691
425 0.231728
430 0.118309
435 0.095872
440 0.112536
445 0.149866
450 0.130607
455 0.14964
460 0.23375
465 0.158045
470 0.249872
475 0.221676
480 0.118086
485 0.0824628
490 0.100204
495 0.191279
500 0.0922663
505 0.109982
510 0.143474
515 0.259093
520 0.264124
525 0.152334
530 0.251303
535 0.264135
540 0.165241
545 0.178617
550 0.145671
555 0.170615
560 0.132761
565 0.242222
570 0.318325
575 0.387795
580 0.379051
585 0.657862
590 11.3038
595 259.895
600 516.346
