File format V 1.0
ven. 6. janv. 13:43:30 2017
Operator : 
Comments : 

=============================================
SpectroFluorometer parameters
Mode : 3D measurement
Data : Fluorescence
Phospho. : Ordinary
Spectrum : Fluorescence

Scan speed : 2400 nm/mn
Response : 100 ms
PM Voltage : 700 V
Shutter : On

Lambda Ex. Start : 203
Lambda Ex. End : 603
Lambda Ex. Step : 5
Ex. Slit : 5 nm

Lambda Em. Start : 200
Lambda Em. End : 600
Lambda Em. Step : 5
Em. Slit : 5 nm

Repetition : 1
Decal lambda em : 10
=============================================
DATA
Ex : 203
200 12.9223
205 12.0007
210 13.5042
215 9.0031
220 10.7598
225 13.4456
230 10.6767
235 9.50308
240 9.13214
245 10.6244
250 12.156
255 9.63245
260 11.7689
265 11.6932
270 10.6724
275 9.53727
280 10.4515
285 11.9335
290 10.9057
295 11.9522
300 10.3087
305 10.6998
310 8.70477
315 11.9232
320 12.4766
325 8.87482
330 9.9448
335 9.83476
340 9.93668
345 8.65558
350 12.0876
355 13.3683
360 12.9036
365 12.0211
370 10.5065
375 10.7982
380 13.6137
385 11.3212
390 14.4191
395 11.697
400 9.5619
405 12.6254
410 15.3166
415 11.665
420 14.2357
425 12.1654
430 10.6321
435 9.92023
440 13.5519
445 10.4979
450 12.474
455 11.3955
460 12.3583
465 13.7176
470 12.5616
475 12.5007
480 10.4383
485 9.93199
490 11.7774
495 12.9108
500 9.6281
505 12.0065
510 11.4538
515 11.691
520 10.94
525 14.6111
530 13.0279
535 11.0736
540 11.0541
545 9.65031
550 11.468
555 10.8484
560 12.9747
565 15.0056
570 12.9169
575 8.10829
580 11.9837
585 11.6946
590 13.1398
595 11.0845
600 12.1174
Ex : 208
200 16.6485
205 10.3052
210 12.831
215 10.3574
220 10.5022
225 11.5431
230 9.42542
235 14.7834
240 11.673
245 14.4433
250 13.3279
255 8.67804
260 13.497
265 8.58773
270 7.69669
275 12.3189
280 11.0707
285 6.9663
290 9.75082
295 10.0018
300 12.6984
305 14.8263
310 12.2872
315 11.2835
320 11.0849
325 13.3449
330 11.4696
335 12.2031
340 11.7818
345 12.6261
350 9.9419
355 9.62871
360 9.31574
365 8.73631
370 12.579
375 13.9446
380 15.2304
385 9.96219
390 11.9655
395 12.3637
400 11.9747
405 12.267
410 10.3216
415 12.3033
420 14.1839
425 10.3653
430 12.4712
435 10.9815
440 11.0744
445 14.5574
450 12.5659
455 12.2073
460 12.737
465 13.6265
470 11.5672
475 15.5418
480 12.6118
485 9.76971
490 9.56023
495 12.9172
500 12.3858
505 12.8223
510 12.2691
515 11.8318
520 11.5233
525 12.5951
530 11.1284
535 11.2266
540 10.3192
545 10.1245
550 9.40313
555 12.6155
560 11.6464
565 12.0726
570 13.138
575 13.2126
580 12.2545
585 10.3616
590 9.57753
595 14.1486
600 18.2707
Ex : 213
200 10.625
205 12.9676
210 9.03711
215 14.334
220 10.0563
225 12.0657
230 11.5835
235 7.79647
240 13.4424
245 9.09167
250 15.0294
255 11.6937
260 10.5323
265 9.53499
270 8.97926
275 11.4629
280 9.45591
285 9.58279
290 10.6944
295 8.00016
300 9.0938
305 11.6693
310 14.3642
315 9.37785
320 8.84846
325 10.39
330 11.5228
335 12.1954
340 10.9691
345 11.1925
350 10.2427
355 10.2963
360 14.0024
365 12.4596
370 10.0848
375 10.1072
380 11.7888
385 11.0177
390 10.9146
395 10.0847
400 14.3601
405 11.5553
410 10.0213
415 14.1288
420 11.5266
425 13.4299
430 8.59362
435 10.9817
440 11.2184
445 10.6869
450 10.8557
455 15.186
460 11.4529
465 13.0966
470 10.8416
475 9.49097
480 11.125
485 12.6263
490 14.3535
495 10.8451
500 12.8311
505 16.5038
510 12.2526
515 9.51647
520 10.621
525 11.4655
530 11.9194
535 13.2048
540 12.5157
545 8.11529
550 8.73679
555 11.3963
560 9.87692
565 9.51827
570 12.5279
575 10.2919
580 10.4215
585 10.6034
590 10.3975
595 10.1198
600 6.02571
Ex : 218
200 8.11064
205 11.621
210 7.92284
215 12.2697
220 10.8799
225 13.478
230 9.64444
235 12.8417
240 12.9176
245 12.0414
250 11.7872
255 9.99101
260 9.82417
265 12.6634
270 14.4611
275 11.3683
280 10.3021
285 11.8325
290 11.0057
295 8.50844
300 11.6027
305 9.63638
310 7.63435
315 6.23222
320 10.7971
325 12.2926
330 10.4615
335 9.47221
340 8.85073
345 14.4422
350 9.96326
355 10.9176
360 12.0295
365 12.4444
370 8.72342
375 8.8763
380 10.5498
385 10.1446
390 14.6881
395 15.4801
400 11.177
405 11.3604
410 12.002
415 8.33222
420 9.25161
425 14.7438
430 11.0218
435 8.71439
440 12.4572
445 10.6589
450 11.7835
455 12.6294
460 10.7464
465 9.75361
470 8.471
475 11.5036
480 10.9122
485 12.3035
490 9.27306
495 14.7644
500 12.3887
505 12.0817
510 14.5901
515 11.9122
520 8.1139
525 11.0065
530 11.3131
535 11.1068
540 9.37609
545 14.0511
550 10.0277
555 11.944
560 9.02956
565 10.2942
570 11.3648
575 11.18
580 10.0631
585 10.0191
590 10.0948
595 10.4539
600 16.6096
Ex : 223
200 11.0446
205 11.1794
210 10.0928
215 12.43
220 10.7446
225 13.3355
230 13.772
235 12.931
240 9.14921
245 10.3705
250 12.8349
255 12.7488
260 12.9903
265 11.6458
270 11.5611
275 14.1808
280 8.85748
285 8.93774
290 8.62662
295 11.0483
300 10.9388
305 12.1142
310 12.5424
315 9.71309
320 10.0419
325 10.8787
330 8.74921
335 10.1161
340 11.7693
345 11.3081
350 10.8069
355 9.64673
360 10.4556
365 8.22239
370 13.925
375 12.492
380 7.1117
385 11.521
390 14.4063
395 10.4148
400 11.1419
405 9.00455
410 8.65026
415 11.7658
420 9.49592
425 12.0104
430 11.1556
435 9.37631
440 9.80573
445 10.9626
450 12.4779
455 13.2802
460 12.5365
465 8.87449
470 12.9539
475 9.65415
480 18.3511
485 12.0915
490 10.9185
495 12.5809
500 10.1993
505 11.4892
510 12.2698
515 10.444
520 9.17264
525 9.51814
530 9.52749
535 10.9711
540 12.3695
545 11.8076
550 13.6503
555 10.4386
560 9.22359
565 11.5437
570 10.3253
575 10.3029
580 6.78117
585 13.5402
590 11.9765
595 8.98911
600 1.46603
Ex : 228
200 12.072
205 9.87459
210 9.64889
215 9.17638
220 10.2993
225 12.1181
230 7.68984
235 8.85091
240 11.1613
245 10.9623
250 12.6022
255 10.3616
260 14.2639
265 10.0344
270 10.5087
275 10.4466
280 11.8994
285 12.5172
290 10.3339
295 11.04
300 9.98847
305 7.13528
310 9.62717
315 6.76796
320 10.7914
325 9.27231
330 11.8668
335 10.6366
340 12.9957
345 11.4537
350 9.98819
355 10.1631
360 11.8211
365 14.6076
370 10.9204
375 11.8186
380 12.1879
385 11.1544
390 9.2529
395 8.95082
400 9.93188
405 10.2293
410 13.9507
415 13.6508
420 12.1087
425 12.7236
430 11.3114
435 11.0109
440 13.0472
445 12.2008
450 11.3953
455 13.0717
460 11.5008
465 14.9484
470 11.7754
475 9.87809
480 11.2365
485 12.7131
490 11.0757
495 8.02095
500 9.62018
505 12.0712
510 10.389
515 13.5852
520 12.4732
525 10.8761
530 13.3054
535 12.0884
540 8.837
545 8.34949
550 10.9189
555 8.55827
560 10.1808
565 10.9888
570 13.9288
575 10.1241
580 10.0649
585 10.291
590 8.83674
595 10.217
600 18.5322
Ex : 233
200 11.7211
205 11.6298
210 11.6849
215 9.93088
220 13.5297
225 11.1558
230 10.9418
235 11.29
240 9.91453
245 9.9796
250 10.4869
255 7.25328
260 10.2587
265 7.82995
270 9.03686
275 10.4985
280 13.41
285 15.9222
290 8.5549
295 9.34814
300 8.90476
305 7.68183
310 11.6538
315 10.5101
320 9.59893
325 12.9582
330 9.53759
335 11.5837
340 8.72457
345 9.69275
350 8.45226
355 9.73596
360 9.65848
365 8.64087
370 8.94762
375 12.9033
380 11.5304
385 10.2332
390 11.8253
395 10.795
400 11.6748
405 10.3438
410 9.02421
415 9.59117
420 11.5417
425 11.0358
430 13.2214
435 10.4062
440 9.29779
445 11.7542
450 10.3349
455 9.77044
460 10.2935
465 12.87
470 11.5243
475 12.5449
480 11.1721
485 9.6922
490 12.7101
495 12.0263
500 9.02913
505 10.0187
510 12.8723
515 12.9749
520 11.6403
525 8.44628
530 9.25297
535 8.27387
540 10.4608
545 10.3298
550 9.46496
555 12.4562
560 7.90094
565 10.4168
570 10.0961
575 10.846
580 7.69136
585 8.21603
590 8.69014
595 10.1228
600 1.92736
Ex : 238
200 11.3603
205 9.37561
210 9.0725
215 8.47653
220 6.90581
225 7.79747
230 10.9452
235 6.85383
240 7.45426
245 9.09452
250 9.83189
255 9.32788
260 8.65509
265 10.0589
270 8.56114
275 9.2183
280 7.37711
285 9.63946
290 7.73516
295 8.32913
300 8.64184
305 8.08311
310 8.79609
315 9.81127
320 10.6862
325 8.97996
330 8.34974
335 10.3536
340 9.64563
345 10.5696
350 9.21936
355 9.02185
360 8.63934
365 9.76585
370 9.377
375 11.8353
380 12.2844
385 11.186
390 9.16664
395 10.4402
400 10.2115
405 9.02589
410 7.73306
415 9.87445
420 9.50202
425 8.68183
430 13.7546
435 10.5178
440 8.08777
445 9.6463
450 7.98332
455 9.45263
460 8.57484
465 9.88828
470 9.0666
475 9.98959
480 9.56571
485 10.0898
490 9.79587
495 10.0281
500 11.154
505 6.62736
510 9.18804
515 10.964
520 8.04079
525 7.18507
530 10.9258
535 8.50174
540 9.97883
545 11.5484
550 9.59375
555 9.22619
560 12.9092
565 9.09239
570 11.3113
575 9.5347
580 10.2861
585 8.53729
590 9.16044
595 9.94399
600 5.68921
Ex : 243
200 8.22517
205 6.80897
210 6.34066
215 6.56495
220 8.3363
225 7.5803
230 6.3855
235 7.56703
240 11.4722
245 8.20856
250 7.86422
255 7.61929
260 8.05058
265 9.82203
270 9.26026
275 7.62743
280 7.18555
285 7.36639
290 8.78533
295 7.84336
300 7.7846
305 7.84755
310 7.12106
315 6.53499
320 6.48316
325 8.24252
330 6.71663
335 7.05407
340 9.87495
345 7.99395
350 7.72708
355 7.2393
360 9.43176
365 8.36369
370 9.30482
375 9.46904
380 8.70288
385 8.8337
390 11.3523
395 13.6692
400 10.3822
405 8.61442
410 7.88918
415 5.63629
420 10.5885
425 7.79735
430 6.27153
435 8.24641
440 8.89646
445 7.4118
450 9.51051
455 9.60277
460 9.3111
465 10.193
470 8.86398
475 8.47893
480 7.08198
485 9.83745
490 7.21286
495 8.38187
500 7.99778
505 9.14518
510 7.62097
515 8.18585
520 9.33296
525 8.49463
530 8.31952
535 8.06303
540 6.45776
545 7.88081
550 9.07152
555 7.21598
560 7.51858
565 8.45844
570 7.47656
575 7.50023
580 6.79078
585 8.82021
590 6.57579
595 7.08084
600 8.89238
Ex : 248
200 10.2911
205 7.09914
210 5.82356
215 8.44189
220 6.44715
225 5.81593
230 7.0236
235 7.00772
240 6.85405
245 7.50884
250 8.72112
255 8.13058
260 6.90902
265 10.3306
270 7.29868
275 8.26652
280 6.27806
285 6.45879
290 6.53138
295 6.01489
300 6.71117
305 8.56483
310 8.3425
315 7.18144
320 7.96336
325 7.41639
330 9.32949
335 7.28781
340 7.77653
345 6.59321
350 5.67646
355 8.35309
360 8.13837
365 7.66919
370 7.72941
375 7.25362
380 7.36337
385 10.3981
390 6.95732
395 9.77413
400 8.5193
405 5.96703
410 7.33807
415 8.32448
420 8.13813
425 7.51082
430 7.46573
435 6.45544
440 5.68601
445 6.84545
450 6.10419
455 8.42535
460 6.82115
465 5.61385
470 7.61539
475 7.1298
480 8.58287
485 7.98413
490 8.21341
495 6.52073
500 7.47666
505 6.34328
510 6.8012
515 9.66153
520 7.93898
525 5.89375
530 6.98067
535 8.27758
540 7.15046
545 6.79744
550 6.1646
555 6.8328
560 6.36584
565 7.31326
570 9.71965
575 8.66198
580 7.17903
585 7.46602
590 6.74647
595 7.76058
600 6.31112
Ex : 253
200 4.58561
205 6.03937
210 4.8236
215 4.30198
220 4.73468
225 4.30406
230 5.05257
235 5.99836
240 7.0369
245 6.48652
250 6.51679
255 5.48673
260 5.53937
265 7.23379
270 7.27854
275 7.05842
280 5.7988
285 6.50661
290 6.15393
295 5.88841
300 4.51242
305 4.75614
310 6.16435
315 7.08879
320 6.03814
325 6.19624
330 7.23609
335 5.97794
340 5.63323
345 5.8725
350 5.02544
355 4.93912
360 5.89058
365 5.67846
370 6.06463
375 7.07293
380 6.2356
385 6.22544
390 6.77486
395 8.78867
400 6.91172
405 6.14068
410 7.0061
415 5.89791
420 7.50295
425 7.31736
430 6.20376
435 7.69235
440 6.57893
445 6.81574
450 6.2606
455 5.91221
460 7.23369
465 6.04939
470 6.3398
475 5.80739
480 8.4479
485 7.18633
490 5.90179
495 7.16187
500 5.95716
505 6.98003
510 6.58273
515 5.4994
520 7.84657
525 6.46489
530 5.95186
535 6.66847
540 7.18165
545 6.80661
550 7.03607
555 7.7916
560 5.7416
565 6.10363
570 6.29657
575 8.09423
580 6.35204
585 5.54021
590 5.49272
595 6.72713
600 0.765522
Ex : 258
200 4.80196
205 3.48277
210 3.64805
215 4.35402
220 5.16643
225 4.42993
230 5.01032
235 5.60167
240 4.53148
245 4.26459
250 7.24651
255 4.85266
260 6.40723
265 4.08606
270 4.91195
275 5.56031
280 6.01023
285 7.28183
290 4.55355
295 4.33691
300 6.07871
305 5.92565
310 4.93199
315 3.94905
320 4.63077
325 5.33984
330 5.10483
335 4.76229
340 3.96313
345 6.44215
350 5.63997
355 4.77326
360 4.04834
365 5.48136
370 5.58791
375 4.95725
380 4.68681
385 4.86082
390 4.40652
395 5.76064
400 6.64536
405 6.00046
410 5.21135
415 5.17437
420 5.10792
425 6.39238
430 6.09213
435 6.02083
440 5.68305
445 5.38637
450 6.20352
455 5.20592
460 4.65094
465 5.41339
470 4.96515
475 4.90582
480 4.75788
485 5.85514
490 4.2476
495 4.81066
500 5.0312
505 4.4488
510 6.07898
515 5.01289
520 6.62557
525 5.54999
530 3.50016
535 4.43176
540 4.02791
545 4.56941
550 5.77176
555 5.55709
560 3.81
565 5.25251
570 4.94958
575 5.08447
580 6.06242
585 4.64849
590 4.31454
595 5.39625
600 8.91216
Ex : 263
200 3.31546
205 3.60036
210 4.02109
215 3.06657
220 3.29395
225 3.73391
230 3.57601
235 4.54209
240 2.29636
245 4.72202
250 3.54846
255 3.55004
260 3.91509
265 4.29187
270 3.21909
275 3.38708
280 3.71619
285 3.94238
290 3.19131
295 4.55569
300 3.55703
305 3.7911
310 3.37147
315 4.85369
320 4.01645
325 6.20805
330 4.14858
335 3.93418
340 5.24512
345 4.55394
350 4.08011
355 3.90153
360 3.54569
365 3.68588
370 4.33023
375 4.06294
380 3.87039
385 2.57118
390 4.47458
395 5.0805
400 4.62916
405 3.39053
410 6.16955
415 3.49659
420 4.36982
425 4.48804
430 5.75125
435 4.60702
440 3.52394
445 3.71659
450 4.62672
455 3.3581
460 3.65115
465 4.67124
470 4.42808
475 3.06042
480 4.91958
485 4.82178
490 4.07143
495 4.84271
500 4.31321
505 4.37126
510 4.85739
515 3.23954
520 3.53842
525 4.49229
530 3.69789
535 3.58582
540 2.99719
545 3.196
550 3.72626
555 4.45626
560 4.33847
565 4.53226
570 3.40859
575 4.73385
580 4.08636
585 3.3592
590 3.7507
595 3.44709
600 5.81375
Ex : 268
200 3.20401
205 2.93177
210 2.81363
215 2.90691
220 3.03299
225 2.61038
230 2.94994
235 3.08248
240 2.26551
245 3.00189
250 2.67745
255 3.65282
260 2.80743
265 3.15015
270 3.05108
275 3.38161
280 2.54888
285 4.03243
290 2.51809
295 3.1656
300 3.96698
305 3.64913
310 4.27752
315 2.48157
320 2.87667
325 3.27806
330 2.35218
335 3.84254
340 2.64599
345 2.99414
350 3.67535
355 4.05013
360 3.24869
365 3.05663
370 3.01541
375 3.59479
380 3.09454
385 3.69237
390 4.36568
395 3.99462
400 3.67112
405 3.77665
410 4.21628
415 3.65422
420 4.02908
425 4.08183
430 3.05147
435 4.2041
440 3.89102
445 3.60859
450 3.30683
455 3.47578
460 3.47876
465 3.96754
470 3.4346
475 3.78665
480 4.0333
485 3.48295
490 3.67373
495 3.79834
500 3.32423
505 4.3555
510 4.01426
515 3.14845
520 3.57035
525 3.01884
530 3.5922
535 4.89888
540 4.65617
545 3.45202
550 3.28973
555 2.94724
560 2.81813
565 2.51532
570 3.50849
575 3.54467
580 2.9067
585 2.36701
590 4.08194
595 2.85147
600 0.501727
Ex : 273
200 2.99092
205 2.95074
210 2.25406
215 2.48247
220 2.3696
225 2.75963
230 2.57363
235 2.58582
240 2.02944
245 2.70477
250 1.98734
255 1.99403
260 2.81749
265 2.56391
270 2.56204
275 2.85688
280 2.34053
285 2.37622
290 2.56106
295 2.273
300 2.04209
305 2.57698
310 2.72319
315 2.15936
320 2.70178
325 2.3293
330 2.41911
335 2.11852
340 2.88336
345 2.43992
350 2.9545
355 3.18942
360 2.97625
365 2.35817
370 3.06455
375 3.99786
380 2.92568
385 2.67433
390 3.25804
395 3.14674
400 2.30628
405 3.10625
410 3.38604
415 3.41123
420 3.15927
425 3.2119
430 3.00567
435 2.93165
440 3.06228
445 3.19686
450 2.52013
455 2.6918
460 3.20943
465 2.76308
470 3.27355
475 2.50941
480 3.45084
485 2.77459
490 2.96072
495 2.45275
500 3.60192
505 2.82781
510 3.58513
515 2.55874
520 2.94073
525 2.43938
530 2.08765
535 2.75286
540 3.24449
545 2.65023
550 2.54236
555 2.37267
560 3.4596
565 2.37171
570 2.80462
575 2.62021
580 2.11148
585 2.74457
590 2.78578
595 1.76207
600 0.316108
Ex : 278
200 1.82377
205 2.36017
210 1.90228
215 2.07981
220 2.48212
225 2.06684
230 1.78529
235 1.50918
240 2.46041
245 1.7393
250 1.52348
255 1.97934
260 1.75568
265 2.57406
270 2.07423
275 1.88873
280 2.58733
285 1.58896
290 1.99692
295 2.00792
300 1.88725
305 1.94969
310 1.82956
315 1.75096
320 2.01472
325 2.06604
330 2.12119
335 1.58754
340 2.14003
345 2.42979
350 2.32193
355 2.50773
360 2.55195
365 2.19156
370 2.51463
375 2.28387
380 3.09485
385 3.0904
390 2.10578
395 2.08477
400 2.65491
405 2.22071
410 2.93993
415 2.77367
420 2.66389
425 3.13376
430 2.78549
435 2.86114
440 3.23156
445 2.5377
450 2.42064
455 2.45857
460 2.26448
465 2.60908
470 2.61548
475 2.53531
480 2.13746
485 1.89888
490 2.16067
495 2.38212
500 2.03673
505 2.30728
510 2.06834
515 3.05792
520 1.94988
525 1.73532
530 2.16345
535 2.70612
540 2.91014
545 2.34288
550 2.79776
555 2.29466
560 1.68744
565 2.127
570 2.35008
575 2.37076
580 1.76253
585 2.31371
590 2.29041
595 2.28121
600 1.6522
Ex : 283
200 1.82247
205 2.23869
210 1.70274
215 1.56493
220 2.04421
225 1.32035
230 1.55793
235 1.58946
240 1.51827
245 1.51847
250 1.44059
255 1.55188
260 1.57372
265 1.51682
270 1.78565
275 1.88586
280 1.41229
285 1.8919
290 1.25066
295 1.71849
300 1.49049
305 1.49644
310 1.32927
315 1.31646
320 1.70475
325 1.76981
330 2.18687
335 2.14475
340 1.80759
345 2.00681
350 2.3785
355 1.86911
360 2.30828
365 2.04434
370 1.88527
375 2.25249
380 1.89952
385 2.18829
390 2.01578
395 2.1808
400 2.40495
405 1.93492
410 1.94785
415 2.28884
420 2.39262
425 2.34845
430 1.90625
435 2.60753
440 2.56126
445 1.90693
450 1.70681
455 1.84894
460 2.21139
465 1.76703
470 2.53033
475 2.02755
480 1.99564
485 1.68183
490 1.69768
495 1.66481
500 1.76162
505 2.14018
510 1.83413
515 2.14862
520 1.54804
525 1.98417
530 1.68038
535 1.87532
540 1.75143
545 1.233
550 1.61585
555 2.36713
560 2.45463
565 1.78736
570 1.80662
575 1.77968
580 1.89425
585 2.04465
590 1.83394
595 1.55278
600 1.36675
Ex : 288
200 1.21133
205 1.47499
210 0.841258
215 1.26834
220 1.85776
225 1.30244
230 1.49874
235 1.04516
240 1.67671
245 0.965331
250 1.25177
255 0.88095
260 1.4343
265 1.80669
270 1.37335
275 1.60596
280 1.44913
285 1.44602
290 1.84505
295 1.44928
300 1.24984
305 1.91463
310 1.42002
315 1.31334
320 1.20602
325 1.66114
330 1.56076
335 1.57809
340 1.45988
345 1.72511
350 1.77674
355 1.727
360 1.52894
365 1.62199
370 1.94867
375 1.88625
380 2.26154
385 1.72398
390 1.91953
395 2.32166
400 1.8742
405 2.12922
410 1.68128
415 1.67094
420 1.85053
425 1.81394
430 1.8438
435 2.02819
440 1.7601
445 2.19503
450 2.04034
455 1.83791
460 1.81345
465 1.93218
470 1.35773
475 2.13364
480 1.57367
485 1.35653
490 1.61867
495 1.68486
500 1.77368
505 1.73758
510 1.67682
515 1.69508
520 1.66817
525 1.34525
530 1.3904
535 1.58011
540 1.28652
545 1.28558
550 1.8654
555 1.58737
560 1.86442
565 1.5862
570 1.97495
575 2.07407
580 1.39648
585 1.32013
590 1.13622
595 1.31195
600 1.96834
Ex : 293
200 1.65286
205 0.920886
210 1.15636
215 1.57518
220 1.30174
225 1.0638
230 1.08655
235 1.51568
240 1.26707
245 0.983726
250 1.13021
255 1.27774
260 1.26074
265 0.756547
270 1.12134
275 0.862527
280 1.58171
285 1.31565
290 1.13879
295 1.05339
300 0.951554
305 1.15364
310 1.32544
315 1.55045
320 1.73905
325 1.38527
330 1.18237
335 1.56391
340 1.15792
345 1.66167
350 1.45988
355 1.84956
360 1.39951
365 1.25396
370 1.45122
375 1.62919
380 1.68799
385 1.60726
390 1.55443
395 1.61966
400 1.6755
405 1.72505
410 2.30149
415 2.06192
420 1.74816
425 1.61006
430 1.66142
435 1.84902
440 2.00005
445 1.72743
450 2.09558
455 1.48226
460 1.50246
465 1.69259
470 1.43986
475 1.56303
480 1.60062
485 1.70238
490 1.3242
495 1.63361
500 1.17761
505 1.2632
510 1.14436
515 1.30263
520 0.923275
525 1.16535
530 1.4179
535 1.47224
540 1.6299
545 1.15305
550 1.22575
555 1.33041
560 1.26181
565 1.27306
570 1.18562
575 1.48901
580 1.73357
585 1.82594
590 1.27847
595 1.44721
600 2.49097
Ex : 298
200 1.24374
205 1.09995
210 0.935038
215 0.894614
220 0.93112
225 1.42769
230 0.930897
235 1.2723
240 1.07685
245 0.816851
250 1.00411
255 0.885518
260 1.18842
265 1.02261
270 1.17487
275 1.16663
280 1.15324
285 1.4278
290 1.1547
295 1.37727
300 1.18793
305 1.18177
310 1.10206
315 1.06108
320 1.09935
325 1.22137
330 1.36937
335 1.24089
340 1.36119
345 1.5994
350 1.63846
355 1.48924
360 1.15689
365 1.26728
370 1.66369
375 1.29446
380 1.1946
385 1.78771
390 1.23261
395 1.76258
400 1.38797
405 1.60358
410 1.41007
415 1.70719
420 1.54808
425 1.31529
430 1.51336
435 1.4763
440 1.60064
445 1.54566
450 1.36804
455 1.61244
460 1.69805
465 1.62079
470 1.2089
475 1.13202
480 1.19188
485 1.3044
490 1.26957
495 1.00841
500 1.33518
505 1.29502
510 1.44929
515 1.1801
520 1.38654
525 1.6761
530 1.16932
535 1.17566
540 1.07598
545 1.20158
550 1.19516
555 1.30139
560 1.08385
565 1.01842
570 1.34931
575 1.12787
580 0.989571
585 1.24718
590 1.5415
595 1.19228
600 0.857769
Ex : 303
200 1.13243
205 1.03972
210 1.00114
215 0.898705
220 0.946305
225 0.819136
230 1.01259
235 0.655941
240 0.989738
245 0.888855
250 1.10834
255 0.933906
260 0.723428
265 0.959142
270 0.886781
275 0.807922
280 0.723641
285 0.947419
290 1.43221
295 0.895338
300 0.934004
305 1.1587
310 0.936707
315 1.03078
320 0.885141
325 0.922644
330 1.25948
335 0.920957
340 1.01868
345 1.05414
350 1.04415
355 1.25952
360 1.15783
365 1.16329
370 1.30596
375 1.36057
380 1.22479
385 1.51548
390 1.69793
395 1.26923
400 1.47022
405 1.43567
410 1.7843
415 1.61298
420 1.45741
425 1.70729
430 1.46135
435 1.33564
440 1.4377
445 1.53616
450 1.36609
455 1.41016
460 1.49231
465 1.31903
470 1.19889
475 1.87294
480 1.24231
485 1.0195
490 1.20947
495 1.25217
500 0.9727
505 1.32537
510 1.09748
515 1.06627
520 1.07347
525 1.10962
530 0.978653
535 1.25397
540 1.09621
545 0.836403
550 0.784931
555 0.849944
560 0.907805
565 1.12341
570 0.857457
575 0.794624
580 0.954423
585 0.880671
590 0.880896
595 1.15855
600 0.174039
Ex : 308
200 1.13533
205 0.830528
210 0.712132
215 0.720612
220 0.775721
225 0.887514
230 0.920288
235 0.809342
240 0.616023
245 0.855896
250 0.879793
255 0.958323
260 0.859572
265 0.93758
270 0.735016
275 0.8856
280 0.877756
285 0.726647
290 0.958209
295 1.13484
300 1.32128
305 1.17183
310 0.890495
315 0.906222
320 0.966773
325 1.11331
330 1.1971
335 0.902135
340 1.02158
345 1.02458
350 1.16101
355 1.00302
360 1.13908
365 0.878574
370 1.0723
375 1.35168
380 1.33305
385 1.16572
390 1.51575
395 1.39765
400 1.23947
405 1.23462
410 1.19853
415 1.25474
420 1.52267
425 1.31487
430 1.13383
435 1.44454
440 1.62473
445 1.18685
450 1.34107
455 1.21505
460 1.19752
465 1.17447
470 1.33211
475 1.11296
480 1.2252
485 0.990582
490 1.29642
495 1.13542
500 1.07041
505 0.992298
510 0.859181
515 0.828704
520 0.866876
525 1.13348
530 0.875357
535 1.06528
540 0.837063
545 0.791176
550 0.842719
555 0.849483
560 1.03493
565 0.793369
570 0.841888
575 0.746531
580 0.879807
585 0.832355
590 0.98033
595 0.775841
600 1.04733
Ex : 313
200 0.649245
205 0.863245
210 0.536941
215 0.472489
220 0.696026
225 0.632076
230 0.751896
235 0.708217
240 0.732006
245 0.717194
250 0.645138
255 0.903162
260 0.921233
265 0.756476
270 0.854805
275 0.826022
280 0.598164
285 0.789881
290 0.866838
295 0.731385
300 0.806348
305 0.933122
310 1.00469
315 0.874932
320 0.863059
325 1.09383
330 1.06314
335 1.02283
340 1.07382
345 1.11536
350 1.04293
355 1.19848
360 1.65136
365 1.32019
370 1.30064
375 1.29176
380 1.53035
385 1.71096
390 2.02556
395 1.86304
400 1.87017
405 1.77909
410 1.63881
415 1.82871
420 1.91847
425 1.98789
430 1.85167
435 1.84416
440 1.71617
445 2.06031
450 1.87122
455 1.73315
460 1.6888
465 1.43099
470 1.52532
475 1.66169
480 1.49204
485 1.28248
490 1.26757
495 0.967258
500 1.02908
505 1.21414
510 1.3189
515 1.19288
520 0.872822
525 0.988626
530 1.02379
535 1.02961
540 0.783568
545 0.732438
550 0.912311
555 0.922692
560 0.935928
565 0.994523
570 0.8512
575 0.682156
580 0.688382
585 0.737274
590 0.739825
595 0.81318
600 0.398879
Ex : 318
200 0.817054
205 0.554384
210 0.59532
215 0.574909
220 0.524242
225 0.719852
230 0.537398
235 0.606225
240 0.499288
245 0.518271
250 0.562214
255 0.586077
260 0.552676
265 0.873848
270 0.509347
275 0.55887
280 0.501005
285 0.60371
290 0.675944
295 0.638468
300 0.57639
305 0.626553
310 1.05298
315 2.06785
320 1.50446
325 1.20079
330 1.3548
335 1.88959
340 1.73047
345 2.43922
350 3.41266
355 4.19506
360 4.65464
365 5.53582
370 7.0989
375 7.51703
380 8.6465
385 10.057
390 10.5056
395 11.6749
400 12.2261
405 12.173
410 11.7296
415 12.1863
420 11.9997
425 12.0721
430 11.4803
435 11.4957
440 10.627
445 10.3248
450 9.18665
455 8.87731
460 8.70769
465 7.97312
470 7.17758
475 6.69571
480 5.883
485 5.32589
490 5.13905
495 4.65261
500 3.85364
505 4.1719
510 3.34998
515 3.1146
520 2.74402
525 2.28782
530 1.98699
535 2.0392
540 1.62082
545 1.45791
550 1.27192
555 1.3137
560 1.43428
565 1.15357
570 0.973526
575 0.811309
580 1.10093
585 0.993423
590 0.72604
595 0.591106
600 0.0863237
Ex : 323
200 0.562384
205 0.85439
210 0.5878
215 0.600715
220 0.736522
225 0.514066
230 0.735428
235 0.811068
240 0.664675
245 0.706154
250 0.581703
255 0.430003
260 0.455393
265 0.68337
270 0.682575
275 0.763332
280 0.758942
285 0.787223
290 0.588888
295 0.55601
300 0.604223
305 0.65674
310 0.59056
315 8.04942
320 33.5661
325 14.5928
330 4.10605
335 4.07131
340 5.39021
345 6.8727
350 9.66527
355 13.596
360 15.8907
365 18.3566
370 21.8002
375 25.6666
380 29.1544
385 32.8721
390 35.1588
395 37.3216
400 39.044
405 40.6795
410 41.4318
415 41.2709
420 39.543
425 38.8563
430 36.9384
435 36.1531
440 35.2182
445 32.9369
450 31.3198
455 29.2475
460 26.7622
465 24.5929
470 23.416
475 21.2208
480 18.8631
485 17.8251
490 16.1508
495 14.8837
500 11.9263
505 10.555
510 9.25888
515 8.37583
520 7.413
525 6.72878
530 5.75686
535 4.7879
540 4.57779
545 4.1819
550 3.5256
555 3.12523
560 2.82965
565 2.53165
570 1.95442
575 1.59052
580 1.39007
585 1.30204
590 1.02275
595 0.951652
600 0.409432
Ex : 328
200 0.537728
205 0.495834
210 0.512993
215 0.55337
220 0.650337
225 0.724499
230 0.548653
235 0.384183
240 0.564045
245 0.563206
250 0.67352
255 0.498805
260 0.665237
265 0.645457
270 0.480499
275 0.544315
280 0.561048
285 0.472647
290 0.526614
295 0.5205
300 0.629107
305 0.592656
310 0.630623
315 2.54795
320 68.577
325 161.591
330 48.2765
335 9.85329
340 7.098
345 7.42816
350 10.1843
355 13.4581
360 19.1789
365 21.8977
370 22.6911
375 26.5632
380 30.1429
385 33.4546
390 36.5737
395 38.632
400 39.9158
405 41.2965
410 41.2965
415 42.2101
420 39.6281
425 40.1252
430 38.0255
435 36.965
440 35.742
445 34.1423
450 32.1102
455 29.6706
460 27.3249
465 25.1181
470 23.5208
475 21.7362
480 19.7373
485 17.4159
490 16.1745
495 14.4715
500 13.1695
505 11.7815
510 9.92101
515 8.4986
520 8.15317
525 6.95868
530 6.15691
535 5.531
540 4.85038
545 4.3636
550 3.77429
555 3.42906
560 2.86304
565 2.77265
570 2.30882
575 1.88454
580 1.65652
585 1.4205
590 1.32099
595 1.25756
600 0.155082
Ex : 333
200 0.419496
205 0.399343
210 0.385503
215 0.53005
220 0.567278
225 0.556378
230 0.50616
235 0.653672
240 0.420708
245 0.502065
250 0.493865
255 0.511558
260 0.543018
265 0.489952
270 0.478345
275 0.517704
280 0.422805
285 0.441623
290 0.557217
295 0.593864
300 0.526224
305 0.668035
310 0.659031
315 0.589576
320 9.43316
325 180.113
330 301.199
335 78.9339
340 13.1891
345 6.91021
350 7.06959
355 7.56241
360 10.7922
365 15.1131
370 16.2206
375 17.0267
380 17.735
385 19.6636
390 23.1509
395 24.4973
400 24.3435
405 24.9088
410 25.7985
415 26.9293
420 26.2015
425 25.6945
430 23.4418
435 23.3937
440 22.318
445 20.9848
450 20.1365
455 18.1025
460 17.3402
465 16.138
470 14.6976
475 13.3377
480 12.4256
485 11.614
490 10.5033
495 9.46075
500 8.58389
505 7.7991
510 7.05961
515 5.93415
520 5.71799
525 5.10401
530 4.45785
535 4.02256
540 3.70553
545 3.30163
550 3.19387
555 2.65976
560 2.46932
565 2.07212
570 1.65281
575 1.6208
580 1.26832
585 1.16825
590 1.21026
595 1.21025
600 1.39259
Ex : 338
200 0.681232
205 0.549442
210 0.489945
215 0.401857
220 0.546385
225 0.453568
230 0.542423
235 0.526406
240 0.540821
245 0.535599
250 0.475521
255 0.425963
260 0.403573
265 0.536741
270 0.63568
275 0.62216
280 0.534221
285 0.418145
290 0.408521
295 0.552248
300 0.416827
305 0.39991
310 0.639815
315 0.653931
320 0.763067
325 17.2507
330 261.05
335 381.451
340 95.706
345 14.6285
350 5.76962
355 5.20626
360 4.69616
365 6.93737
370 11.4961
375 11.644
380 11.4797
385 12.3495
390 15.2013
395 16.3613
400 16.4265
405 16.336
410 17.4488
415 18.7428
420 18.2709
425 16.5536
430 15.9531
435 15.9046
440 15.2193
445 14.9143
450 13.5038
455 12.6367
460 11.5818
465 10.9628
470 10.446
475 9.77306
480 8.81149
485 8.00516
490 7.64057
495 7.11015
500 7.05371
505 5.98427
510 5.35536
515 5.04059
520 4.74521
525 4.24614
530 3.8602
535 3.4091
540 2.93065
545 2.70688
550 2.67109
555 2.51839
560 2.28634
565 2.03088
570 1.85039
575 1.41144
580 1.42788
585 1.16601
590 1.07191
595 1.12219
600 0.47306
Ex : 343
200 0.511967
205 0.393292
210 0.501061
215 0.463313
220 0.495754
225 0.366792
230 0.417804
235 0.381722
240 0.410306
245 0.45549
250 0.355038
255 0.411688
260 0.555173
265 0.435419
270 0.410128
275 0.476384
280 0.588977
285 0.444113
290 0.366482
295 0.459736
300 0.509858
305 0.428806
310 0.464342
315 0.554301
320 0.699156
325 0.779611
330 19.3831
335 298.936
340 426.348
345 103.993
350 15.1753
355 5.17852
360 3.80742
365 3.80587
370 4.5927
375 8.89772
380 11.0011
385 12.0814
390 13.0825
395 13.3718
400 13.0335
405 13.6576
410 15.4473
415 17.0408
420 16.0033
425 14.7934
430 13.8223
435 13.9599
440 13.786
445 13.4836
450 11.6376
455 11.0153
460 10.7811
465 10.1384
470 9.53675
475 9.38939
480 8.45942
485 7.75272
490 7.2393
495 6.88266
500 6.32136
505 5.98697
510 5.19667
515 5.10172
520 4.54571
525 4.43236
530 3.85078
535 3.40615
540 3.13707
545 2.85842
550 2.57782
555 2.79025
560 2.22227
565 1.99732
570 1.70713
575 1.5086
580 1.46495
585 1.15659
590 1.07867
595 0.981028
600 0.909221
Ex : 348
200 0.358157
205 0.387652
210 0.35995
215 0.420763
220 0.406392
225 0.388887
230 0.350886
235 0.433332
240 0.425173
245 0.390182
250 0.485222
255 0.481161
260 0.507577
265 0.498222
270 0.40306
275 0.469692
280 0.41692
285 0.325474
290 0.445883
295 0.399799
300 0.495678
305 0.461513
310 0.39369
315 0.474951
320 0.498063
325 0.637258
330 0.917047
335 19.3619
340 293.858
345 444.961
350 114.742
355 15.9743
360 4.74996
365 3.84155
370 2.86163
375 3.62944
380 8.33095
385 14.0466
390 16.2364
395 16.5158
400 15.3162
405 15.6112
410 18.2552
415 19.6764
420 19.3184
425 17.2785
430 15.9795
435 15.7966
440 15.5407
445 15.1202
450 13.532
455 12.2079
460 11.0661
465 10.7133
470 10.2816
475 9.75396
480 9.20998
485 8.61805
490 8.30338
495 7.5625
500 7.3357
505 6.37505
510 5.98159
515 5.35059
520 4.72439
525 4.32805
530 4.17342
535 4.00837
540 3.3599
545 3.2102
550 3.1288
555 2.74993
560 2.3724
565 2.15992
570 1.69821
575 1.69853
580 1.41765
585 1.276
590 1.14814
595 1.04467
600 0.872979
Ex : 353
200 0.368206
205 0.347442
210 0.534805
215 0.274084
220 0.410085
225 0.392437
230 0.326582
235 0.259475
240 0.374986
245 0.560804
250 0.515154
255 0.389815
260 0.404969
265 0.442611
270 0.385767
275 0.388217
280 0.416538
285 0.314259
290 0.446495
295 0.420873
300 0.38737
305 0.379494
310 0.369751
315 0.40166
320 0.444029
325 0.672744
330 0.673116
335 0.941855
340 19.972
345 305.504
350 441.177
355 109.41
360 14.7368
365 4.11835
370 3.09406
375 3.20541
380 4.4378
385 10.3974
390 18.6078
395 19.7429
400 17.9414
405 16.9266
410 18.431
415 20.8789
420 20.8243
425 18.8234
430 17.6093
435 16.6302
440 16.3654
445 15.7041
450 14.8681
455 13.43
460 12.1478
465 12.0678
470 11.291
475 11.0162
480 10.2233
485 9.57237
490 8.7585
495 8.3227
500 7.65306
505 6.94725
510 6.43805
515 5.96958
520 5.51274
525 5.16201
530 4.75759
535 4.22857
540 4.15588
545 3.52737
550 2.95308
555 2.90478
560 2.6519
565 2.22023
570 1.88269
575 1.72909
580 1.34157
585 1.31231
590 0.950473
595 0.990245
600 1.16816
Ex : 358
200 0.352339
205 0.483197
210 0.340687
215 0.335796
220 0.268887
225 0.336197
230 0.424329
235 0.323912
240 0.319727
245 0.396238
250 0.431548
255 0.385044
260 0.406859
265 0.381173
270 0.339791
275 0.395755
280 0.414757
285 0.523418
290 0.374874
295 0.381446
300 0.375197
305 0.470663
310 0.37492
315 0.400772
320 0.435045
325 0.514968
330 0.557675
335 0.80455
340 0.890323
345 18.85
350 294.463
355 448.17
360 112.437
365 15.0622
370 4.27582
375 3.49193
380 4.30448
385 7.31036
390 13.6846
395 18.7726
400 18.1362
405 16.4696
410 17.5673
415 19.6967
420 19.3605
425 17.5479
430 16.2348
435 15.5017
440 16.0704
445 15.4068
450 14.1489
455 13.1272
460 12.4569
465 11.6956
470 11.5033
475 11.279
480 10.2881
485 9.36407
490 9.02781
495 8.8621
500 8.25873
505 7.58482
510 7.18888
515 6.61531
520 6.06629
525 5.5722
530 4.88699
535 4.44005
540 3.90251
545 3.75361
550 3.29475
555 3.07907
560 2.7492
565 2.56479
570 2.08979
575 1.89301
580 1.54636
585 1.25117
590 1.13132
595 0.976276
600 0.930953
Ex : 363
200 0.352572
205 0.317053
210 0.365226
215 0.344059
220 0.30152
225 0.255441
230 0.374135
235 0.361562
240 0.352468
245 0.444658
250 0.346638
255 0.268192
260 0.378859
265 0.354231
270 0.351656
275 0.405199
280 0.40618
285 0.346635
290 0.282817
295 0.304376
300 0.39653
305 0.347467
310 0.348423
315 0.477856
320 0.33867
325 0.427001
330 0.465221
335 0.581684
340 0.62695
345 0.842098
350 17.3915
355 284.706
360 449.224
365 117.952
370 15.6749
375 4.4414
380 5.38313
385 9.21351
390 13.1066
395 15.6558
400 18.0793
405 20.4811
410 22.1633
415 22.9214
420 20.6222
425 18.4977
430 17.607
435 17.11
440 17.3951
445 16.9641
450 14.8999
455 13.6945
460 13.1245
465 12.5978
470 12.0305
475 11.804
480 11.2177
485 10.8669
490 9.90473
495 9.54611
500 9.08937
505 8.19109
510 7.9517
515 7.06382
520 6.22058
525 5.74749
530 5.2545
535 4.8653
540 4.32948
545 3.95184
550 3.50208
555 3.2372
560 2.93124
565 2.59099
570 2.20691
575 1.84125
580 1.68517
585 1.322
590 1.15747
595 0.906762
600 0.654308
Ex : 368
200 0.277215
205 0.283661
210 0.394715
215 0.323695
220 0.280408
225 0.327113
230 0.28952
235 0.309609
240 0.38344
245 0.303945
250 0.265261
255 0.375267
260 0.274199
265 0.279565
270 0.392072
275 0.345151
280 0.351484
285 0.364834
290 0.350616
295 0.364385
300 0.298493
305 0.35679
310 0.326903
315 0.374352
320 0.309913
325 0.359449
330 0.474396
335 0.454142
340 0.511156
345 0.615432
350 1.06774
355 14.6813
360 280.125
365 468.474
370 125.159
375 16.9105
380 6.58356
385 10.8896
390 16.5104
395 19.2896
400 18.4516
405 21.8928
410 27.0813
415 28.9785
420 26.8209
425 23.3164
430 20.5538
435 20.3772
440 20.6536
445 19.9187
450 17.6467
455 16.2548
460 15.1559
465 14.2647
470 13.8819
475 12.9426
480 12.8833
485 12.1775
490 10.95
495 10.6443
500 9.98909
505 9.01428
510 8.57541
515 7.5754
520 7.2149
525 6.76732
530 5.88075
535 5.44316
540 4.88365
545 4.32568
550 3.84648
555 3.50749
560 3.10958
565 2.99564
570 2.37199
575 1.93638
580 1.65211
585 1.52294
590 1.27235
595 0.951899
600 1.13879
Ex : 373
200 0.29767
205 0.295802
210 0.263611
215 0.319859
220 0.300281
225 0.314832
230 0.323603
235 0.276349
240 0.271849
245 0.301821
250 0.309097
255 0.29733
260 0.308134
265 0.284519
270 0.352489
275 0.30895
280 0.33227
285 0.267651
290 0.293726
295 0.27862
300 0.319914
305 0.286166
310 0.394128
315 0.374775
320 0.381345
325 0.428064
330 0.392699
335 0.454439
340 0.441189
345 0.606452
350 0.70381
355 0.904234
360 17.6398
365 288.718
370 470.951
375 125.851
380 18.2015
385 9.83242
390 16.2092
395 19.773
400 18.7802
405 17.5522
410 23.2466
415 29.4538
420 28.2895
425 24.2797
430 19.8718
435 19.3268
440 19.2677
445 19.3488
450 17.9847
455 15.7975
460 14.6382
465 14.0614
470 13.841
475 13.5598
480 12.6651
485 12.57
490 11.6083
495 11.1923
500 9.99286
505 9.45082
510 9.03068
515 8.31202
520 7.56546
525 7.21054
530 6.74646
535 5.77516
540 5.20572
545 4.63665
550 4.356
555 3.84622
560 3.28459
565 2.96641
570 2.55312
575 2.31836
580 1.87385
585 1.52751
590 1.24484
595 1.16029
600 0.820876
Ex : 378
200 0.280515
205 0.297261
210 0.31827
215 0.25423
220 0.236734
225 0.259225
230 0.326828
235 0.271055
240 0.294879
245 0.340601
250 0.232971
255 0.306063
260 0.316492
265 0.346597
270 0.303205
275 0.290871
280 0.280621
285 0.273913
290 0.319483
295 0.362301
300 0.343542
305 0.289949
310 0.25147
315 0.344972
320 0.304799
325 0.312416
330 0.289339
335 0.324049
340 0.329569
345 0.398175
350 0.534716
355 0.682319
360 0.980927
365 15.7074
370 288.227
375 477.246
380 129.516
385 21.4338
390 13.3149
395 14.3651
400 13.773
405 13.8903
410 15.8461
415 20.0752
420 22.4059
425 19.8817
430 17.0003
435 15.7631
440 15.2817
445 15.1825
450 13.8418
455 12.8988
460 12.5106
465 12.5465
470 12.4387
475 12.1857
480 11.9336
485 11.718
490 11.5073
495 10.9348
500 10.1354
505 9.79559
510 9.13848
515 8.64541
520 8.01659
525 6.96692
530 6.38478
535 6.13979
540 5.39301
545 5.02139
550 4.42838
555 4.22784
560 3.69249
565 3.24471
570 2.69555
575 2.30246
580 1.73981
585 1.44571
590 1.22963
595 1.05968
600 0.988252
Ex : 383
200 0.306753
205 0.25911
210 0.211631
215 0.265366
220 0.284708
225 0.366448
230 0.286924
235 0.260329
240 0.26625
245 0.317771
250 0.2759
255 0.247856
260 0.261563
265 0.221482
270 0.292274
275 0.266042
280 0.285744
285 0.311569
290 0.325052
295 0.27779
300 0.365314
305 0.37147
310 0.287805
315 0.260764
320 0.264841
325 0.304304
330 0.363681
335 0.443815
340 0.397059
345 0.41211
350 0.512255
355 0.531355
360 0.522734
365 0.946962
370 15.2719
375 294.192
380 510.407
385 143.113
390 27.3408
395 14.3994
400 12.7088
405 13.9327
410 16.2539
415 18.0079
420 18.4078
425 19.1733
430 18.0809
435 17.0932
440 16.4418
445 15.9641
450 14.3307
455 13.1815
460 12.8196
465 12.6673
470 12.3734
475 12.6775
480 12.1995
485 11.6623
490 11.6296
495 10.858
500 10.4536
505 9.77131
510 9.41583
515 8.26298
520 7.67355
525 7.30862
530 6.65025
535 6.01098
540 5.52756
545 5.02323
550 4.73608
555 4.14504
560 3.64373
565 3.25745
570 2.54419
575 2.19889
580 1.82528
585 1.54596
590 1.21445
595 1.01403
600 0.707377
Ex : 388
200 0.1873
205 0.282207
210 0.227056
215 0.210433
220 0.261277
225 0.292492
230 0.217043
235 0.231382
240 0.297555
245 0.259823
250 0.237331
255 0.27453
260 0.374024
265 0.297517
270 0.213169
275 0.268517
280 0.210931
285 0.256803
290 0.350015
295 0.257436
300 0.220933
305 0.225991
310 0.301778
315 0.296905
320 0.313473
325 0.320937
330 0.330423
335 0.332569
340 0.408951
345 0.348008
350 0.422393
355 0.360984
360 0.555638
365 0.636953
370 0.839867
375 18.1097
380 307.815
385 520.661
390 149.975
395 32.2485
400 16.8729
405 16.5866
410 20.1336
415 22.7845
420 21.8752
425 19.7831
430 19.9167
435 21.0844
440 20.4024
445 19.2335
450 16.7722
455 14.8961
460 14.108
465 13.8326
470 13.8249
475 13.7557
480 13.0406
485 12.803
490 11.892
495 11.7882
500 10.8352
505 10.2572
510 9.80567
515 9.00734
520 8.34442
525 7.53679
530 6.67016
535 6.34394
540 5.93736
545 5.18455
550 4.59484
555 4.06088
560 3.76711
565 3.27505
570 2.9257
575 2.26783
580 1.93271
585 1.66054
590 1.24632
595 0.997596
600 0.602463
Ex : 393
200 0.214354
205 0.17634
210 0.235728
215 0.254258
220 0.204206
225 0.272828
230 0.26355
235 0.227363
240 0.2035
245 0.23791
250 0.290394
255 0.240114
260 0.242312
265 0.358426
270 0.226078
275 0.269039
280 0.242457
285 0.29072
290 0.280913
295 0.244278
300 0.275778
305 0.278431
310 0.294843
315 0.285082
320 0.182894
325 0.282061
330 0.277611
335 0.289009
340 0.345366
345 0.357263
350 0.312745
355 0.360286
360 0.372755
365 0.515621
370 0.603421
375 1.02948
380 16.3405
385 314.358
390 542.6
395 160.547
400 33.3309
405 17.2226
410 18.6605
415 23.1114
420 23.7051
425 20.5764
430 17.1197
435 18.0471
440 20.8706
445 20.1176
450 17.7981
455 15.3355
460 13.9115
465 13.3517
470 14.075
475 13.2759
480 12.9598
485 12.5658
490 11.8974
495 11.6391
500 11.0693
505 10.5101
510 9.93786
515 8.78045
520 8.49521
525 7.77654
530 6.92686
535 6.43218
540 5.81239
545 5.29259
550 4.72724
555 4.11547
560 3.91761
565 3.47818
570 2.83184
575 2.30741
580 1.89924
585 1.55237
590 1.38793
595 1.10504
600 0.937564
Ex : 398
200 0.253703
205 0.279628
210 0.246815
215 0.261714
220 0.240307
225 0.220696
230 0.238653
235 0.209172
240 0.247433
245 0.269742
250 0.250928
255 0.237929
260 0.214561
265 0.250377
270 0.253572
275 0.215456
280 0.203139
285 0.226416
290 0.29248
295 0.297935
300 0.293177
305 0.195138
310 0.277859
315 0.27161
320 0.285416
325 0.289286
330 0.280963
335 0.248691
340 0.264958
345 0.343656
350 0.352743
355 0.302155
360 0.359129
365 0.343959
370 0.478423
375 0.645075
380 1.14062
385 17.8798
390 327.515
395 565.836
400 158.331
405 26.339
410 12.6848
415 14.487
420 14.996
425 13.1705
430 11.0265
435 10.7456
440 12.2402
445 15.0509
450 14.3311
455 12.0568
460 11.1298
465 11.0362
470 11.0962
475 11.4923
480 11.6735
485 11.2374
490 11.1981
495 10.7719
500 10.6774
505 10.2743
510 9.58724
515 8.89004
520 8.36585
525 7.66243
530 7.28553
535 6.56677
540 5.81416
545 5.38316
550 4.97161
555 4.3369
560 3.89571
565 3.40596
570 3.10115
575 2.39297
580 2.07169
585 1.56766
590 1.26275
595 1.06714
600 0.799122
Ex : 403
200 0.236358
205 0.207838
210 0.227099
215 0.186923
220 0.228552
225 0.209045
230 0.228769
235 0.297713
240 0.251929
245 0.251066
250 0.20911
255 0.283922
260 0.286215
265 0.268852
270 0.275237
275 0.235778
280 0.219204
285 0.292014
290 0.214294
295 0.285043
300 0.229692
305 0.220236
310 0.343658
315 0.270129
320 0.200261
325 0.280057
330 0.247663
335 0.306965
340 0.252011
345 0.310335
350 0.322084
355 0.318019
360 0.333504
365 0.350482
370 0.388151
375 0.384916
380 0.711333
385 1.23292
390 19.6429
395 334.405
400 552.419
405 150.251
410 22.6738
415 8.92809
420 7.82807
425 7.71522
430 7.04782
435 6.87629
440 7.5493
445 8.34361
450 10.6101
455 11.3883
460 10.0639
465 10.4175
470 9.8704
475 10.1922
480 10.6327
485 11.3134
490 10.9276
495 10.3823
500 10.3435
505 9.87289
510 9.781
515 8.99196
520 8.4318
525 7.897
530 7.09154
535 6.34849
540 5.92375
545 5.57434
550 4.76619
555 4.39865
560 3.95347
565 3.56436
570 2.81515
575 2.25317
580 2.04186
585 1.64963
590 1.30714
595 1.11621
600 1.42189
Ex : 408
200 0.227314
205 0.203504
210 0.21788
215 0.276242
220 0.220663
225 0.22806
230 0.27579
235 0.268391
240 0.214858
245 0.19
250 0.300201
255 0.251019
260 0.221473
265 0.215885
270 0.244122
275 0.190045
280 0.250989
285 0.240964
290 0.239691
295 0.247316
300 0.23711
305 0.241535
310 0.228187
315 0.243734
320 0.286169
325 0.302616
330 0.296999
335 0.289912
340 0.226274
345 0.217619
350 0.333172
355 0.271117
360 0.31028
365 0.318029
370 0.309572
375 0.346774
380 0.503824
385 0.705113
390 1.10264
395 18.4157
400 343.836
405 576.008
410 152.627
415 22.9312
420 8.28926
425 6.39412
430 6.36843
435 6.66552
440 6.98764
445 7.31834
450 7.85989
455 9.79381
460 11.3346
465 11.0027
470 11.0015
475 10.853
480 11.0519
485 10.8075
490 10.8737
495 10.9357
500 10.8041
505 10.1316
510 9.94576
515 9.03961
520 8.45164
525 7.87186
530 7.28623
535 6.64018
540 6.24521
545 5.55058
550 5.04816
555 4.48966
560 3.98951
565 3.68941
570 2.97039
575 2.55843
580 2.06112
585 1.63351
590 1.39977
595 1.05354
600 0.716782
Ex : 413
200 0.204802
205 0.274984
210 0.231322
215 0.273194
220 0.257562
225 0.249452
230 0.210326
235 0.247672
240 0.230712
245 0.228479
250 0.214495
255 0.287848
260 0.211534
265 0.276892
270 0.229255
275 0.245326
280 0.178853
285 0.243394
290 0.255319
295 0.25179
300 0.251737
305 0.268254
310 0.255709
315 0.313559
320 0.255369
325 0.249273
330 0.229757
335 0.31116
340 0.263437
345 0.256767
350 0.341773
355 0.259001
360 0.264462
365 0.375029
370 0.328368
375 0.348701
380 0.38868
385 0.476712
390 0.686104
395 1.13561
400 20.5816
405 355.677
410 577.722
415 151.677
420 22.6293
425 7.42372
430 5.59778
435 6.13781
440 6.61613
445 6.70875
450 7.41224
455 7.82098
460 9.21943
465 11.5986
470 11.8356
475 11.0212
480 11.4141
485 10.7886
490 10.6737
495 10.5676
500 10.3817
505 10.228
510 9.31679
515 8.87344
520 8.58632
525 8.11756
530 7.39246
535 6.78757
540 5.92536
545 5.35529
550 4.98837
555 4.54575
560 3.93137
565 3.7665
570 3.09154
575 2.52046
580 1.97134
585 1.52751
590 1.24786
595 0.981906
600 0.765201
Ex : 418
200 0.226312
205 0.228084
210 0.272738
215 0.217047
220 0.227441
225 0.191681
230 0.193836
235 0.196651
240 0.260734
245 0.274473
250 0.363427
255 0.222539
260 0.222705
265 0.204412
270 0.182777
275 0.257375
280 0.310245
285 0.242774
290 0.225346
295 0.22538
300 0.199467
305 0.262827
310 0.235427
315 0.26984
320 0.202701
325 0.206116
330 0.253084
335 0.286069
340 0.274977
345 0.295782
350 0.309471
355 0.314728
360 0.263385
365 0.276392
370 0.31722
375 0.336163
380 0.453709
385 0.418629
390 0.476146
395 0.635903
400 1.07441
405 20.2762
410 355.341
415 591.199
420 159.117
425 21.6235
430 5.75967
435 4.28249
440 4.85707
445 4.79811
450 5.09034
455 5.5025
460 6.28866
465 7.64202
470 10.5178
475 10.9259
480 10.4206
485 10.3247
490 10.0136
495 10.0568
500 9.66855
505 9.55732
510 9.27286
515 8.58477
520 8.11901
525 7.48506
530 7.05811
535 6.48315
540 6.05498
545 5.19622
550 4.84362
555 4.50941
560 4.03974
565 3.54814
570 2.99114
575 2.40866
580 1.96569
585 1.5953
590 1.31537
595 1.02428
600 0.378593
Ex : 423
200 0.171308
205 0.218302
210 0.181672
215 0.273875
220 0.250509
225 0.230928
230 0.298046
235 0.203105
240 0.193987
245 0.261618
250 0.212855
255 0.228843
260 0.19646
265 0.259258
270 0.259812
275 0.267459
280 0.282869
285 0.263513
290 0.199551
295 0.23231
300 0.222685
305 0.251723
310 0.273151
315 0.218871
320 0.284654
325 0.247209
330 0.275839
335 0.282774
340 0.25866
345 0.270417
350 0.270914
355 0.235586
360 0.353113
365 0.376129
370 0.389669
375 0.38333
380 0.376159
385 0.44012
390 0.451881
395 0.600309
400 0.709023
405 1.02781
410 20.6339
415 379.737
420 606.474
425 155.936
430 20.3471
435 4.76949
440 3.16804
445 3.60674
450 4.05289
455 4.24126
460 4.77891
465 5.65271
470 6.66822
475 9.11754
480 10.7212
485 10.1813
490 9.85715
495 9.52401
500 9.31269
505 9.01287
510 8.37357
515 7.9579
520 7.45704
525 7.05873
530 6.50998
535 6.10296
540 5.59215
545 5.15219
550 4.79159
555 4.1573
560 3.88445
565 3.37899
570 2.88822
575 2.3097
580 1.86837
585 1.4874
590 1.30165
595 1.00449
600 1.05862
Ex : 428
200 0.203509
205 0.185335
210 0.192959
215 0.219225
220 0.268435
225 0.23765
230 0.26376
235 0.231835
240 0.220054
245 0.238488
250 0.227084
255 0.220719
260 0.251583
265 0.214244
270 0.28515
275 0.314358
280 0.294085
285 0.273228
290 0.282108
295 0.285958
300 0.275077
305 0.254785
310 0.283077
315 0.22852
320 0.228208
325 0.238541
330 0.261999
335 0.252421
340 0.317836
345 0.243318
350 0.287815
355 0.251799
360 0.317582
365 0.28141
370 0.298142
375 0.302044
380 0.326417
385 0.277141
390 0.391569
395 0.413197
400 0.542367
405 0.66134
410 1.15235
415 23.1524
420 388.645
425 620.078
430 161.37
435 20.7928
440 4.48918
445 2.76199
450 3.13669
455 3.60384
460 4.04367
465 4.47167
470 5.62747
475 6.40766
480 8.60375
485 10.4487
490 9.80309
495 9.18205
500 8.97633
505 8.44253
510 7.78446
515 7.55352
520 7.10773
525 6.77473
530 6.43273
535 5.80547
540 5.28804
545 4.86721
550 4.54279
555 3.94739
560 3.5585
565 3.15462
570 2.76934
575 2.14773
580 1.66903
585 1.47315
590 1.14962
595 1.00291
600 2.23383
Ex : 433
200 0.275353
205 0.205484
210 0.267316
215 0.214844
220 0.234837
225 0.237916
230 0.234262
235 0.189497
240 0.278856
245 0.226057
250 0.239275
255 0.244109
260 0.265902
265 0.276237
270 0.242009
275 0.225956
280 0.266257
285 0.225714
290 0.219626
295 0.295548
300 0.261021
305 0.263315
310 0.257355
315 0.278954
320 0.221908
325 0.292277
330 0.237625
335 0.244711
340 0.2385
345 0.271688
350 0.266956
355 0.231395
360 0.267794
365 0.323688
370 0.28156
375 0.370945
380 0.263618
385 0.335124
390 0.321543
395 0.445204
400 0.542861
405 0.56856
410 0.725034
415 1.07866
420 25.4737
425 418.298
430 639.344
435 160.299
440 20.6415
445 4.58544
450 2.86834
455 3.48131
460 4.05112
465 4.45782
470 5.19365
475 5.64326
480 6.1973
485 7.8085
490 9.65652
495 9.27084
500 8.32849
505 8.16173
510 7.51614
515 6.87805
520 6.29746
525 6.18876
530 5.77307
535 5.26812
540 4.92699
545 4.33645
550 4.13804
555 3.5956
560 3.42821
565 2.98967
570 2.50233
575 2.04099
580 1.66322
585 1.33043
590 1.11244
595 0.925808
600 0.38426
Ex : 438
200 0.254674
205 0.255354
210 0.245427
215 0.244564
220 0.19954
225 0.223298
230 0.234861
235 0.23076
240 0.251871
245 0.364179
250 0.225379
255 0.242719
260 0.232481
265 0.216356
270 0.237232
275 0.22915
280 0.238943
285 0.292596
290 0.242093
295 0.258808
300 0.290717
305 0.299762
310 0.238072
315 0.219006
320 0.316333
325 0.251069
330 0.281895
335 0.233391
340 0.296391
345 0.23687
350 0.25426
355 0.22971
360 0.271025
365 0.296058
370 0.317443
375 0.32434
380 0.34634
385 0.293409
390 0.367816
395 0.383765
400 0.412172
405 0.470179
410 0.513532
415 0.74461
420 1.06336
425 25.2196
430 433.349
435 692.783
440 174.005
445 22.4411
450 5.04583
455 3.00552
460 3.62275
465 4.17186
470 4.52783
475 5.06663
480 5.32266
485 6.12448
490 6.61437
495 8.35073
500 8.942
505 7.81748
510 7.47291
515 6.68167
520 6.0957
525 5.5816
530 5.2133
535 4.64496
540 4.52949
545 4.07588
550 3.48895
555 3.51894
560 3.05021
565 2.66969
570 2.19784
575 1.85966
580 1.45064
585 1.30207
590 1.10289
595 0.981634
600 1.02775
Ex : 443
200 0.288572
205 0.201986
210 0.258792
215 0.194743
220 0.225637
225 0.214453
230 0.23734
235 0.220924
240 0.263373
245 0.289962
250 0.186419
255 0.289321
260 0.296844
265 0.361005
270 0.285094
275 0.313124
280 0.382251
285 0.235535
290 0.252224
295 0.240861
300 0.192139
305 0.245475
310 0.262177
315 0.269014
320 0.25795
325 0.203853
330 0.285566
335 0.293225
340 0.281195
345 0.300344
350 0.231895
355 0.262994
360 0.241139
365 0.286058
370 0.335102
375 0.336817
380 0.32178
385 0.340334
390 0.297223
395 0.293907
400 0.367506
405 0.430794
410 0.501378
415 0.621501
420 0.799591
425 1.09133
430 28.6022
435 461.5
440 704.286
445 173.639
450 22.3198
455 5.0874
460 3.29277
465 3.81051
470 4.46728
475 4.72727
480 4.60007
485 5.22687
490 5.39668
495 5.62361
500 7.31158
505 8.14615
510 7.00924
515 6.16672
520 5.95053
525 5.0903
530 4.62261
535 4.36229
540 4.08319
545 3.47099
550 3.2623
555 3.06204
560 2.71369
565 2.53407
570 2.09539
575 1.70076
580 1.384
585 1.24515
590 0.975649
595 0.832737
600 1.04405
Ex : 448
200 0.259661
205 0.22874
210 0.259942
215 0.250679
220 0.335461
225 0.240947
230 0.267539
235 0.255807
240 0.300892
245 0.243094
250 0.216382
255 0.199368
260 0.287653
265 0.238181
270 0.275535
275 0.27092
280 0.202621
285 0.274921
290 0.261813
295 0.28592
300 0.257432
305 0.250576
310 0.290767
315 0.286713
320 0.246995
325 0.286822
330 0.231666
335 0.253642
340 0.266772
345 0.295872
350 0.304176
355 0.304069
360 0.215125
365 0.300935
370 0.330368
375 0.315443
380 0.273101
385 0.32473
390 0.322679
395 0.360197
400 0.342579
405 0.380115
410 0.444272
415 0.494627
420 0.588992
425 0.76801
430 1.18787
435 29.6208
440 496.651
445 754.833
450 187.752
455 24.0037
460 5.42436
465 3.3398
470 3.46665
475 4.13984
480 4.30047
485 4.46098
490 4.62352
495 4.83563
500 4.70219
505 5.8408
510 6.89047
515 6.21857
520 5.28021
525 4.79593
530 4.58226
535 3.78652
540 3.42992
545 3.1959
550 2.86758
555 2.56222
560 2.55499
565 2.31598
570 1.93836
575 1.63665
580 1.41626
585 1.15688
590 0.988085
595 0.794048
600 1.28092
Ex : 453
200 0.251329
205 0.29778
210 0.181338
215 0.171758
220 0.185113
225 0.230562
230 0.222587
235 0.208239
240 0.24535
245 0.232981
250 0.230593
255 0.22519
260 0.263452
265 0.279457
270 0.233923
275 0.259928
280 0.264206
285 0.266129
290 0.255729
295 0.272619
300 0.245506
305 0.228924
310 0.24471
315 0.281619
320 0.228228
325 0.260473
330 0.252286
335 0.337624
340 0.262953
345 0.278311
350 0.325103
355 0.268965
360 0.261162
365 0.256151
370 0.312718
375 0.322062
380 0.294264
385 0.291824
390 0.301266
395 0.273556
400 0.343088
405 0.340255
410 0.387956
415 0.445594
420 0.461152
425 0.562794
430 0.778111
435 1.13908
440 30.8578
445 527.556
450 768.425
455 180.364
460 23.0548
465 5.32098
470 3.36885
475 3.45591
480 3.70398
485 3.99141
490 3.91719
495 4.03279
500 4.05712
505 3.76136
510 4.43366
515 5.84992
520 5.65954
525 4.57322
530 4.03928
535 3.89078
540 3.14029
545 2.73456
550 2.48119
555 2.44123
560 2.20202
565 1.91697
570 1.76081
575 1.43117
580 1.17363
585 0.980171
590 0.847051
595 0.767543
600 0.794602
Ex : 458
200 0.226489
205 0.223586
210 0.216986
215 0.245467
220 0.283743
225 0.262631
230 0.252285
235 0.314495
240 0.300968
245 0.286502
250 0.28394
255 0.309588
260 0.272574
265 0.254969
270 0.302473
275 0.246743
280 0.300442
285 0.270534
290 0.253112
295 0.232786
300 0.272345
305 0.335151
310 0.270024
315 0.284998
320 0.253474
325 0.272819
330 0.271685
335 0.298763
340 0.247145
345 0.255106
350 0.335118
355 0.30551
360 0.283204
365 0.29595
370 0.323984
375 0.317834
380 0.329529
385 0.366318
390 0.354861
395 0.326846
400 0.308858
405 0.353598
410 0.418472
415 0.405995
420 0.44427
425 0.52961
430 0.585617
435 0.804324
440 1.28703
445 34.3605
450 538.686
455 802.946
460 195.309
465 24.9223
470 5.34193
475 2.99562
480 3.2381
485 3.46175
490 3.49967
495 3.36073
500 3.31078
505 3.19873
510 3.21344
515 3.32811
520 4.58744
525 5.02712
530 3.84879
535 3.41908
540 3.28122
545 2.77363
550 2.39998
555 2.24062
560 2.07675
565 1.77036
570 1.66465
575 1.39104
580 1.17157
585 0.902769
590 0.820401
595 0.672639
600 0.756654
Ex : 463
200 0.332034
205 0.272166
210 0.198228
215 0.235461
220 0.238623
225 0.259675
230 0.262406
235 0.270038
240 0.250519
245 0.230926
250 0.267671
255 0.214768
260 0.23945
265 0.287304
270 0.308472
275 0.226805
280 0.262341
285 0.284095
290 0.230839
295 0.221783
300 0.217388
305 0.254587
310 0.236528
315 0.238011
320 0.225934
325 0.242464
330 0.292588
335 0.321374
340 0.312739
345 0.303808
350 0.296278
355 0.237166
360 0.239585
365 0.324441
370 0.248259
375 0.350998
380 0.28688
385 0.251855
390 0.344629
395 0.305079
400 0.335351
405 0.343697
410 0.296199
415 0.430688
420 0.436483
425 0.452826
430 0.521724
435 0.667058
440 0.763407
445 1.12393
450 33.3559
455 565.257
460 857.009
465 205.432
470 26.1666
475 5.38437
480 2.87884
485 2.67591
490 3.00079
495 3.03465
500 2.83199
505 2.7072
510 2.73756
515 2.57341
520 2.66755
525 3.13475
530 4.37317
535 3.82402
540 2.75123
545 2.72266
550 2.39548
555 1.96062
560 1.79766
565 1.53279
570 1.38093
575 1.28181
580 1.00068
585 0.83667
590 0.691355
595 0.593058
600 1.61085
Ex : 468
200 0.220153
205 0.278094
210 0.242172
215 0.250257
220 0.258169
225 0.235516
230 0.226052
235 0.221399
240 0.257002
245 0.242253
250 0.200992
255 0.196036
260 0.246074
265 0.241262
270 0.252907
275 0.259514
280 0.227229
285 0.237777
290 0.225272
295 0.251896
300 0.236515
305 0.218159
310 0.202478
315 0.189769
320 0.219819
325 0.189928
330 0.323634
335 0.268931
340 0.257713
345 0.208549
350 0.243143
355 0.188662
360 0.253995
365 0.249192
370 0.22144
375 0.29823
380 0.336199
385 0.31235
390 0.297161
395 0.337834
400 0.305072
405 0.342357
410 0.379454
415 0.313143
420 0.38751
425 0.396266
430 0.443325
435 0.426293
440 0.616318
445 0.729071
450 1.12864
455 36.2736
460 566.334
465 882.747
470 211.645
475 26.3778
480 5.15189
485 2.53204
490 2.26349
495 2.55352
500 2.58308
505 2.35515
510 2.28323
515 2.11819
520 2.19234
525 2.23279
530 2.59283
535 3.64861
540 3.72187
545 2.62718
550 2.20398
555 2.11397
560 1.6156
565 1.37673
570 1.34616
575 1.1726
580 0.923499
585 0.811162
590 0.644971
595 0.661748
600 1.35429
Ex : 473
200 0.251897
205 0.271293
210 0.257986
215 0.243877
220 0.172185
225 0.252034
230 0.216963
235 0.242699
240 0.255731
245 0.265422
250 0.232571
255 0.270351
260 0.255551
265 0.243954
270 0.238473
275 0.265849
280 0.275922
285 0.27144
290 0.23781
295 0.219524
300 0.285343
305 0.253287
310 0.218715
315 0.25561
320 0.297474
325 0.249855
330 0.221157
335 0.234555
340 0.265126
345 0.261018
350 0.216666
355 0.225716
360 0.244367
365 0.262521
370 0.307209
375 0.313626
380 0.292854
385 0.280622
390 0.330043
395 0.273002
400 0.319801
405 0.304897
410 0.278405
415 0.371838
420 0.363869
425 0.429612
430 0.34991
435 0.428149
440 0.488678
445 0.597977
450 0.763935
455 1.28406
460 41.5356
465 631.099
470 894.835
475 207.653
480 25.8447
485 5.04268
490 2.47564
495 2.00002
500 2.11788
505 2.22611
510 2.12555
515 2.07358
520 1.9911
525 2.08278
530 1.86129
535 2.06281
540 2.93588
545 3.37466
550 2.60282
555 1.95719
560 1.88605
565 1.6347
570 1.3766
575 1.05333
580 0.90907
585 0.776384
590 0.73376
595 0.619298
600 0.517474
Ex : 478
200 0.312972
205 0.24997
210 0.207332
215 0.265134
220 0.332622
225 0.308206
230 0.269562
235 0.32898
240 0.321598
245 0.246075
250 0.265664
255 0.350305
260 0.258089
265 0.245343
270 0.265489
275 0.352859
280 0.269933
285 0.333721
290 0.284416
295 0.297961
300 0.3339
305 0.284521
310 0.354488
315 0.359981
320 0.2811
325 0.321733
330 0.282433
335 0.268708
340 0.341939
345 0.291569
350 0.371131
355 0.319229
360 0.368323
365 0.346015
370 0.344244
375 0.295543
380 0.322846
385 0.359689
390 0.343713
395 0.37435
400 0.291811
405 0.294095
410 0.357073
415 0.354988
420 0.415387
425 0.407532
430 0.405701
435 0.481423
440 0.53031
445 0.573792
450 0.715431
455 1.03561
460 1.50295
465 45.0705
470 636.498
475 885.83
480 214.398
485 26.7103
490 4.91632
495 2.115
500 1.80123
505 1.9432
510 1.95181
515 1.96393
520 1.85975
525 1.76219
530 1.87821
535 1.82272
540 1.70442
545 2.30933
550 3.07746
555 2.84332
560 1.92249
565 1.65478
570 1.46592
575 1.30123
580 0.889091
585 0.797208
590 0.691861
595 0.72868
600 0.504025
Ex : 483
200 0.293135
205 0.29775
210 0.333946
215 0.30408
220 0.342646
225 0.325577
230 0.276812
235 0.284498
240 0.281109
245 0.293296
250 0.260976
255 0.293038
260 0.305634
265 0.227436
270 0.333354
275 0.340973
280 0.220306
285 0.305153
290 0.286772
295 0.266816
300 0.275846
305 0.297199
310 0.355275
315 0.278446
320 0.372171
325 0.304685
330 0.245258
335 0.283109
340 0.252328
345 0.370144
350 0.341673
355 0.319586
360 0.288577
365 0.358238
370 0.330665
375 0.268369
380 0.281159
385 0.299842
390 0.371133
395 0.370543
400 0.361893
405 0.376796
410 0.395948
415 0.355337
420 0.330532
425 0.296851
430 0.390123
435 0.446872
440 0.431652
445 0.510824
450 0.568596
455 0.796674
460 0.916495
465 1.51128
470 35.4896
475 616.371
480 929.841
485 223.161
490 27.6583
495 4.84589
500 1.93663
505 1.42569
510 1.77899
515 1.86216
520 1.8674
525 1.79869
530 1.7257
535 1.69205
540 1.68964
545 1.52884
550 1.62734
555 2.76769
560 2.69237
565 1.95264
570 1.56251
575 1.33452
580 1.08998
585 0.907746
590 0.739229
595 0.728081
600 0.654998
Ex : 488
200 0.319747
205 0.243924
210 0.244394
215 0.351911
220 0.274131
225 0.237256
230 0.353407
235 0.348314
240 0.358075
245 0.259612
250 0.275247
255 0.342298
260 0.342843
265 0.279527
270 0.378452
275 0.289046
280 0.27515
285 0.317191
290 0.256676
295 0.287454
300 0.271486
305 0.294645
310 0.305812
315 0.361739
320 0.39875
325 0.277629
330 0.366493
335 0.384042
340 0.341
345 0.3646
350 0.26564
355 0.355548
360 0.368384
365 0.344231
370 0.430454
375 0.369124
380 0.284434
385 0.259402
390 0.381346
395 0.327037
400 0.426125
405 0.456213
410 0.425579
415 0.389347
420 0.426127
425 0.370386
430 0.402399
435 0.402382
440 0.511314
445 0.485411
450 0.506885
455 0.652585
460 0.822046
465 1.10808
470 1.59391
475 42.5299
480 659.6
485 902.443
490 211.607
495 26.1536
500 4.54331
505 1.94966
510 1.62164
515 1.71579
520 1.91074
525 1.87517
530 1.88863
535 1.58835
540 1.70042
545 1.44991
550 1.38838
555 1.53694
560 2.15289
565 2.52043
570 1.9722
575 1.30979
580 1.25101
585 1.0381
590 0.84437
595 0.73325
600 0.183053
Ex : 493
200 0.352963
205 0.317788
210 0.344628
215 0.27777
220 0.308742
225 0.287294
230 0.266017
235 0.308821
240 0.279939
245 0.330628
250 0.373141
255 0.282798
260 0.281098
265 0.340725
270 0.281139
275 0.319366
280 0.221333
285 0.257336
290 0.344111
295 0.278538
300 0.349499
305 0.30292
310 0.363728
315 0.316044
320 0.261008
325 0.307166
330 0.325479
335 0.308512
340 0.311325
345 0.32416
350 0.356049
355 0.316317
360 0.29648
365 0.359481
370 0.329562
375 0.381286
380 0.265592
385 0.365542
390 0.359342
395 0.354242
400 0.342558
405 0.326998
410 0.339135
415 0.352696
420 0.349528
425 0.447038
430 0.414402
435 0.370674
440 0.41643
445 0.507396
450 0.547589
455 0.576217
460 0.726709
465 0.802686
470 1.01537
475 1.46523
480 38.8975
485 648.193
490 956.471
495 220.775
500 27.0267
505 4.71825
510 2.03908
515 1.64681
520 1.64479
525 1.76757
530 1.75874
535 1.72383
540 1.61805
545 1.54387
550 1.43321
555 1.39269
560 1.27429
565 1.54565
570 2.08723
575 1.94351
580 1.26344
585 1.00765
590 0.93672
595 0.774319
600 0.660739
Ex : 498
200 0.275469
205 0.282226
210 0.29294
215 0.318837
220 0.342257
225 0.331329
230 0.258959
235 0.311742
240 0.25369
245 0.332769
250 0.340507
255 0.324039
260 0.311708
265 0.276819
270 0.308821
275 0.327361
280 0.29889
285 0.375254
290 0.355174
295 0.379101
300 0.319511
305 0.309823
310 0.347912
315 0.340287
320 0.286597
325 0.323187
330 0.302885
335 0.313504
340 0.413046
345 0.361097
350 0.400645
355 0.366226
360 0.362793
365 0.319489
370 0.415089
375 0.366998
380 0.404334
385 0.415704
390 0.389001
395 0.349916
400 0.332373
405 0.306437
410 0.409559
415 0.404759
420 0.438668
425 0.512153
430 0.440317
435 0.446389
440 0.443336
445 0.504249
450 0.534257
455 0.563314
460 0.603864
465 0.693881
470 0.869941
475 1.12444
480 1.50955
485 47.3222
490 683.85
495 929.283
500 213.038
505 26.185
510 4.49522
515 2.20091
520 1.81945
525 1.60716
530 1.85274
535 1.60892
540 1.53228
545 1.46639
550 1.37436
555 1.38728
560 1.33977
565 1.21143
570 1.20823
575 1.73042
580 1.78167
585 1.13335
590 0.970968
595 0.925037
600 0.636988
Ex : 503
200 0.440209
205 0.322079
210 0.284461
215 0.375155
220 0.372379
225 0.429434
230 0.404115
235 0.428469
240 0.373349
245 0.314577
250 0.350628
255 0.332215
260 0.365273
265 0.3457
270 0.340216
275 0.307917
280 0.352332
285 0.392329
290 0.361667
295 0.288092
300 0.376288
305 0.415595
310 0.422406
315 0.272647
320 0.40133
325 0.347811
330 0.354419
335 0.368432
340 0.334125
345 0.402053
350 0.326206
355 0.332204
360 0.400112
365 0.291968
370 0.343425
375 0.420325
380 0.341767
385 0.417675
390 0.37367
395 0.349804
400 0.362541
405 0.400908
410 0.454588
415 0.429988
420 0.436794
425 0.425662
430 0.457471
435 0.374401
440 0.481463
445 0.601431
450 0.456446
455 0.451692
460 0.480369
465 0.658114
470 0.775241
475 1.00437
480 1.14704
485 1.61043
490 42.6912
495 688.491
500 966.499
505 221.842
510 27.3177
515 4.59099
520 2.15534
525 1.86004
530 1.7088
535 1.77057
540 1.64011
545 1.50869
550 1.30677
555 1.37088
560 1.2622
565 1.22131
570 1.03299
575 1.03331
580 1.33456
585 1.50488
590 1.17093
595 0.798091
600 0.793396
Ex : 508
200 0.387918
205 0.341778
210 0.329574
215 0.32075
220 0.39374
225 0.356154
230 0.352264
235 0.417997
240 0.355439
245 0.342083
250 0.370367
255 0.281083
260 0.423687
265 0.403677
270 0.419345
275 0.448895
280 0.43879
285 0.39873
290 0.350422
295 0.450107
300 0.389625
305 0.357721
310 0.349339
315 0.375501
320 0.318997
325 0.485272
330 0.393486
335 0.360515
340 0.34331
345 0.414494
350 0.434297
355 0.42394
360 0.36187
365 0.245832
370 0.397529
375 0.333764
380 0.276468
385 0.326302
390 0.495748
395 0.427614
400 0.375946
405 0.410649
410 0.454257
415 0.384192
420 0.408494
425 0.474104
430 0.482849
435 0.329304
440 0.462436
445 0.420709
450 0.496004
455 0.575901
460 0.625222
465 0.612503
470 0.601918
475 0.759156
480 0.8271
485 1.07572
490 1.49124
495 44.9353
500 668.197
505 930.886
510 222.609
515 27.3148
520 4.87531
525 2.22483
530 1.6857
535 1.61165
540 1.53831
545 1.5932
550 1.47593
555 1.26104
560 1.28547
565 1.1402
570 1.10219
575 1.01084
580 1.05027
585 1.07285
590 1.30274
595 1.10857
600 0.787741
Ex : 513
200 0.312825
205 0.329137
210 0.45753
215 0.463004
220 0.338864
225 0.298917
230 0.307451
235 0.347057
240 0.343074
245 0.341659
250 0.358819
255 0.392102
260 0.302795
265 0.29473
270 0.375088
275 0.344102
280 0.345227
285 0.358152
290 0.419904
295 0.356426
300 0.348888
305 0.396068
310 0.352438
315 0.318471
320 0.446439
325 0.42691
330 0.374959
335 0.282968
340 0.415947
345 0.346421
350 0.436741
355 0.376233
360 0.441905
365 0.495015
370 0.379695
375 0.443292
380 0.408715
385 0.400566
390 0.452392
395 0.427615
400 0.319675
405 0.375859
410 0.411718
415 0.465354
420 0.427329
425 0.484798
430 0.44781
435 0.479111
440 0.499763
445 0.552117
450 0.445067
455 0.425157
460 0.553492
465 0.581566
470 0.57787
475 0.63752
480 0.734347
485 0.871641
490 1.15086
495 1.46388
500 41.0546
505 653.11
510 945.116
515 231.637
520 28.4195
525 4.85416
530 2.1334
535 1.71557
540 1.44617
545 1.62132
550 1.51143
555 1.36397
560 1.35737
565 1.25776
570 1.00476
575 0.960504
580 0.877446
585 0.796326
590 0.831881
595 1.00272
600 1.33264
Ex : 518
200 0.368513
205 0.372467
210 0.481715
215 0.418909
220 0.340398
225 0.407262
230 0.358079
235 0.340731
240 0.282326
245 0.334423
250 0.337268
255 0.426107
260 0.46279
265 0.371529
270 0.390052
275 0.338109
280 0.331055
285 0.331652
290 0.344712
295 0.385902
300 0.357122
305 0.384163
310 0.395982
315 0.297755
320 0.334476
325 0.431372
330 0.473386
335 0.422756
340 0.387619
345 0.348821
350 0.453769
355 0.409764
360 0.466905
365 0.413827
370 0.398229
375 0.355494
380 0.464186
385 0.499437
390 0.443326
395 0.369532
400 0.383307
405 0.328262
410 0.354296
415 0.344069
420 0.433729
425 0.508046
430 0.448241
435 0.479601
440 0.445518
445 0.397989
450 0.51302
455 0.409286
460 0.568538
465 0.594303
470 0.483171
475 0.614602
480 0.582796
485 0.706199
490 0.830936
495 1.07276
500 1.43756
505 40.9979
510 635.128
515 932.901
520 229.262
525 28.1979
530 4.82546
535 2.01081
540 1.64334
545 1.33303
550 1.42902
555 1.6331
560 1.33724
565 1.25338
570 1.07539
575 1.00942
580 0.903057
585 0.744757
590 0.710754
595 0.694712
600 0.373016
Ex : 523
200 0.321699
205 0.312316
210 0.341985
215 0.39198
220 0.406943
225 0.330926
230 0.419182
235 0.374813
240 0.325625
245 0.399103
250 0.309539
255 0.375021
260 0.414778
265 0.513781
270 0.421711
275 0.383677
280 0.411277
285 0.37241
290 0.373654
295 0.369074
300 0.346419
305 0.32403
310 0.325967
315 0.354024
320 0.313928
325 0.398207
330 0.357427
335 0.433275
340 0.407873
345 0.431171
350 0.436739
355 0.493775
360 0.365145
365 0.333407
370 0.352452
375 0.442125
380 0.512614
385 0.398908
390 0.418618
395 0.367299
400 0.416585
405 0.391051
410 0.49648
415 0.420365
420 0.480039
425 0.490343
430 0.457494
435 0.469092
440 0.519408
445 0.448715
450 0.406733
455 0.395755
460 0.455791
465 0.459777
470 0.554413
475 0.537453
480 0.646747
485 0.705108
490 0.832694
495 0.857635
500 1.06024
505 1.54424
510 38.6767
515 617.896
520 929.813
525 235.867
530 28.8404
535 4.71138
540 1.87526
545 1.40022
550 1.26057
555 1.26597
560 1.54051
565 1.34825
570 1.17893
575 1.04849
580 0.965372
585 0.882096
590 0.808029
595 0.818427
600 0.574865
Ex : 528
200 0.387922
205 0.331498
210 0.3592
215 0.342922
220 0.363647
225 0.435336
230 0.404424
235 0.416196
240 0.390097
245 0.379519
250 0.434448
255 0.430492
260 0.390238
265 0.355348
270 0.308295
275 0.365266
280 0.417217
285 0.36378
290 0.379279
295 0.394392
300 0.363923
305 0.382278
310 0.434015
315 0.496439
320 0.355269
325 0.369577
330 0.344369
335 0.436996
340 0.404077
345 0.418384
350 0.425267
355 0.430856
360 0.504842
365 0.418577
370 0.383837
375 0.401077
380 0.415707
385 0.428616
390 0.469259
395 0.486122
400 0.510273
405 0.408368
410 0.439156
415 0.469538
420 0.53351
425 0.412632
430 0.509245
435 0.572166
440 0.449317
445 0.430789
450 0.566818
455 0.483537
460 0.458017
465 0.621538
470 0.676587
475 0.580031
480 0.633118
485 0.578338
490 0.632624
495 0.799157
500 0.793517
505 1.14339
510 1.59937
515 35.7703
520 600.943
525 905.693
530 227.384
535 27.8845
540 4.52293
545 1.98311
550 1.55237
555 1.37337
560 1.12966
565 1.20822
570 0.96642
575 1.06078
580 0.967026
585 0.829592
590 0.858362
595 0.721192
600 1.64216
Ex : 533
200 0.499615
205 0.484701
210 0.373815
215 0.325207
220 0.387097
225 0.390681
230 0.389722
235 0.439364
240 0.390291
245 0.415377
250 0.328411
255 0.361685
260 0.383966
265 0.451969
270 0.440284
275 0.379339
280 0.371926
285 0.411057
290 0.427545
295 0.362155
300 0.488326
305 0.444531
310 0.519685
315 0.404693
320 0.406137
325 0.402348
330 0.380087
335 0.420911
340 0.41259
345 0.369765
350 0.454676
355 0.370719
360 0.449833
365 0.495952
370 0.445578
375 0.46816
380 0.490636
385 0.40834
390 0.392499
395 0.428278
400 0.464047
405 0.463118
410 0.433484
415 0.534847
420 0.491292
425 0.437975
430 0.332339
435 0.477717
440 0.498096
445 0.400378
450 0.509582
455 0.41027
460 0.503832
465 0.594009
470 0.548235
475 0.642896
480 0.538226
485 0.576662
490 0.706615
495 0.625475
500 0.771161
505 0.918074
510 1.16854
515 1.54774
520 34.5572
525 576.884
530 901.765
535 227.963
540 27.7994
545 4.44093
550 1.8637
555 1.34179
560 1.07867
565 1.07438
570 1.16859
575 1.15766
580 0.937033
585 0.897482
590 0.810197
595 0.566568
600 0.350345
Ex : 538
200 0.450007
205 0.391463
210 0.37668
215 0.428238
220 0.475886
225 0.355525
230 0.396057
235 0.371835
240 0.508774
245 0.347966
250 0.414452
255 0.399863
260 0.331034
265 0.487838
270 0.353011
275 0.379331
280 0.317881
285 0.414584
290 0.364842
295 0.52711
300 0.379021
305 0.411407
310 0.506938
315 0.401198
320 0.377642
325 0.346199
330 0.468304
335 0.327131
340 0.392324
345 0.404172
350 0.453318
355 0.417257
360 0.470387
365 0.436188
370 0.455665
375 0.531372
380 0.484522
385 0.47399
390 0.510721
395 0.450851
400 0.399173
405 0.441999
410 0.462505
415 0.405097
420 0.424134
425 0.451851
430 0.512046
435 0.540919
440 0.634399
445 0.598741
450 0.41593
455 0.49593
460 0.582759
465 0.486758
470 0.407759
475 0.514183
480 0.555442
485 0.572475
490 0.534452
495 0.632907
500 0.629439
505 0.780567
510 0.650985
515 0.964575
520 1.39517
525 29.2212
530 548.224
535 888.143
540 236.23
545 28.9332
550 4.68923
555 1.74959
560 1.2757
565 1.08861
570 1.14254
575 1.11594
580 1.06777
585 0.866056
590 0.722446
595 0.674905
600 1.1045
Ex : 543
200 0.426475
205 0.350112
210 0.374656
215 0.447868
220 0.440677
225 0.311052
230 0.486143
235 0.509002
240 0.429851
245 0.376123
250 0.477065
255 0.470548
260 0.35956
265 0.334935
270 0.471013
275 0.429253
280 0.396362
285 0.3699
290 0.332888
295 0.557539
300 0.461669
305 0.465903
310 0.385893
315 0.382995
320 0.442726
325 0.448862
330 0.496513
335 0.499664
340 0.498255
345 0.527253
350 0.539678
355 0.514611
360 0.485679
365 0.332914
370 0.363718
375 0.561039
380 0.549273
385 0.495577
390 0.470094
395 0.465478
400 0.514028
405 0.46754
410 0.518944
415 0.446366
420 0.430492
425 0.55046
430 0.465936
435 0.543485
440 0.471975
445 0.519415
450 0.570337
455 0.564731
460 0.445559
465 0.619277
470 0.454016
475 0.568008
480 0.460032
485 0.596195
490 0.58534
495 0.566231
500 0.672281
505 0.676341
510 0.753253
515 0.685447
520 1.00056
525 1.36297
530 28.026
535 525.646
540 878.457
545 239.834
550 29.3528
555 4.61949
560 1.74754
565 1.50822
570 1.00725
575 1.17308
580 1.10878
585 1.02026
590 0.799336
595 0.843237
600 0.823361
Ex : 548
200 0.370484
205 0.455019
210 0.348846
215 0.450289
220 0.396279
225 0.500689
230 0.463635
235 0.482192
240 0.427145
245 0.423487
250 0.487361
255 0.439527
260 0.377334
265 0.368766
270 0.418152
275 0.397227
280 0.464414
285 0.492464
290 0.353397
295 0.362528
300 0.42715
305 0.406186
310 0.448769
315 0.467181
320 0.437604
325 0.452776
330 0.443822
335 0.40676
340 0.401567
345 0.390885
350 0.452572
355 0.480576
360 0.441299
365 0.428455
370 0.519432
375 0.534642
380 0.446429
385 0.490835
390 0.452426
395 0.385319
400 0.519825
405 0.661113
410 0.504456
415 0.418229
420 0.456505
425 0.436041
430 0.564043
435 0.590338
440 0.452957
445 0.506555
450 0.5439
455 0.590717
460 0.638497
465 0.532385
470 0.534007
475 0.563075
480 0.585702
485 0.552597
490 0.568661
495 0.518989
500 0.676205
505 0.568992
510 0.701939
515 0.733541
520 0.904181
525 1.09427
530 1.46983
535 31.122
540 535.794
545 864.87
550 236.234
555 29.1137
560 4.66044
565 1.7029
570 1.32835
575 1.01726
580 0.878302
585 0.874068
590 0.886305
595 0.877691
600 0.592796
Ex : 553
200 0.5355
205 0.404924
210 0.412349
215 0.530086
220 0.507742
225 0.453527
230 0.51696
235 0.363932
240 0.491097
245 0.609392
250 0.472701
255 0.434762
260 0.43326
265 0.443529
270 0.358069
275 0.445313
280 0.537005
285 0.492464
290 0.391753
295 0.53663
300 0.416267
305 0.410524
310 0.516148
315 0.415146
320 0.412861
325 0.401977
330 0.44982
335 0.461372
340 0.495089
345 0.349175
350 0.380916
355 0.481183
360 0.460778
365 0.387269
370 0.479256
375 0.455873
380 0.481536
385 0.545418
390 0.459246
395 0.50452
400 0.568362
405 0.42094
410 0.451655
415 0.515927
420 0.47611
425 0.52821
430 0.645393
435 0.553219
440 0.447579
445 0.42784
450 0.527712
455 0.641062
460 0.573664
465 0.558856
470 0.711636
475 0.492291
480 0.480367
485 0.565861
490 0.520129
495 0.583429
500 0.631912
505 0.622286
510 0.586973
515 0.684468
520 0.769264
525 0.716856
530 0.947626
535 1.36899
540 26.0147
545 499.638
550 847.89
555 237.819
560 28.9741
565 4.48921
570 1.5539
575 1.0743
580 0.829112
585 0.788158
590 0.921468
595 0.853437
600 0.617166
Ex : 558
200 0.572342
205 0.532636
210 0.475271
215 0.42769
220 0.479191
225 0.466213
230 0.42974
235 0.444073
240 0.448576
245 0.446082
250 0.538542
255 0.435203
260 0.498837
265 0.405295
270 0.618978
275 0.597059
280 0.509855
285 0.422461
290 0.52047
295 0.467786
300 0.445512
305 0.505409
310 0.503135
315 0.523476
320 0.443808
325 0.471944
330 0.558608
335 0.398062
340 0.536102
345 0.464895
350 0.513968
355 0.4754
360 0.454533
365 0.381678
370 0.572586
375 0.519142
380 0.421302
385 0.505872
390 0.425347
395 0.484284
400 0.486128
405 0.459664
410 0.650723
415 0.655252
420 0.517534
425 0.497545
430 0.568214
435 0.438894
440 0.555819
445 0.518879
450 0.679575
455 0.614346
460 0.566575
465 0.673764
470 0.610695
475 0.487696
480 0.682341
485 0.513553
490 0.495046
495 0.553041
500 0.629443
505 0.673118
510 0.635978
515 0.668049
520 0.568665
525 0.743421
530 0.835373
535 1.01498
540 1.4391
545 25.5563
550 479.849
555 841.329
560 236.655
565 28.7772
570 4.24951
575 1.38054
580 1.10926
585 0.826497
590 0.745254
595 0.745285
600 0.943492
Ex : 563
200 0.349168
205 0.323872
210 0.520277
215 0.538466
220 0.444793
225 0.421247
230 0.530643
235 0.498035
240 0.492336
245 0.433604
250 0.397753
255 0.406228
260 0.515042
265 0.501165
270 0.400157
275 0.447613
280 0.613267
285 0.472743
290 0.55606
295 0.422922
300 0.524444
305 0.440552
310 0.48194
315 0.613142
320 0.438763
325 0.475405
330 0.444862
335 0.524903
340 0.448327
345 0.473461
350 0.463882
355 0.416096
360 0.504741
365 0.448037
370 0.488832
375 0.468625
380 0.533132
385 0.506555
390 0.459881
395 0.475943
400 0.551953
405 0.539574
410 0.41251
415 0.509125
420 0.581577
425 0.444619
430 0.608076
435 0.567164
440 0.542812
445 0.563947
450 0.526353
455 0.467658
460 0.583269
465 0.615648
470 0.573981
475 0.585418
480 0.713829
485 0.601117
490 0.507129
495 0.494788
500 0.640412
505 0.579103
510 0.681608
515 0.677284
520 0.649784
525 0.67442
530 0.696785
535 0.857229
540 1.09674
545 1.21845
550 23.7702
555 452.657
560 795.14
565 228.473
570 27.952
575 4.24021
580 1.42656
585 1.02614
590 0.900668
595 0.723204
600 0.567734
Ex : 568
200 0.630404
205 0.63238
210 0.522964
215 0.525253
220 0.467198
225 0.445569
230 0.558749
235 0.448173
240 0.374927
245 0.558936
250 0.542596
255 0.53839
260 0.528872
265 0.45901
270 0.418919
275 0.544549
280 0.669098
285 0.554369
290 0.448721
295 0.436857
300 0.438327
305 0.439675
310 0.580796
315 0.428118
320 0.395598
325 0.504983
330 0.424743
335 0.414176
340 0.457945
345 0.602539
350 0.442987
355 0.538334
360 0.572165
365 0.550721
370 0.396334
375 0.409212
380 0.578205
385 0.540754
390 0.693935
395 0.467245
400 0.461343
405 0.426474
410 0.452962
415 0.499911
420 0.462749
425 0.678861
430 0.541595
435 0.458973
440 0.512672
445 0.472219
450 0.613474
455 0.595492
460 0.442507
465 0.621267
470 0.638604
475 0.66268
480 0.500596
485 0.491322
490 0.574482
495 0.515774
500 0.574721
505 0.454126
510 0.666344
515 0.634742
520 0.59947
525 0.732097
530 0.697184
535 0.755016
540 0.851038
545 0.994114
550 1.24423
555 18.2478
560 411.949
565 764.629
570 229.324
575 28.2645
580 4.13326
585 1.19604
590 0.921261
595 0.837149
600 0.337493
Ex : 573
200 0.537379
205 0.500714
210 0.471974
215 0.426237
220 0.431903
225 0.536561
230 0.46802
235 0.608781
240 0.489157
245 0.47669
250 0.454317
255 0.51339
260 0.576492
265 0.404441
270 0.494769
275 0.426133
280 0.436722
285 0.450026
290 0.362753
295 0.458827
300 0.477544
305 0.423366
310 0.422497
315 0.492988
320 0.58863
325 0.487204
330 0.512284
335 0.526811
340 0.424644
345 0.47163
350 0.498069
355 0.503885
360 0.441068
365 0.482776
370 0.480622
375 0.517965
380 0.522903
385 0.457303
390 0.537947
395 0.597279
400 0.558359
405 0.557031
410 0.47976
415 0.474521
420 0.579786
425 0.541653
430 0.588574
435 0.540413
440 0.635818
445 0.606757
450 0.725376
455 0.576362
460 0.655954
465 0.689529
470 0.555597
475 0.49951
480 0.673671
485 0.68835
490 0.738691
495 0.501693
500 0.544046
505 0.677032
510 0.737344
515 0.703918
520 0.513071
525 0.461324
530 0.51782
535 0.783659
540 0.818736
545 0.860221
550 0.986839
555 1.10448
560 15.7904
565 354.485
570 705.249
575 219.268
580 26.783
585 4.00724
590 1.11781
595 0.760205
600 3.69202
Ex : 578
200 0.619697
205 0.459925
210 0.472399
215 0.529056
220 0.481025
225 0.510871
230 0.674807
235 0.556645
240 0.439008
245 0.464041
250 0.595234
255 0.505617
260 0.637563
265 0.562777
270 0.411689
275 0.434739
280 0.496166
285 0.433919
290 0.458189
295 0.49487
300 0.506445
305 0.528953
310 0.406774
315 0.462888
320 0.453516
325 0.420637
330 0.419346
335 0.484795
340 0.440655
345 0.570073
350 0.542527
355 0.450113
360 0.557367
365 0.465557
370 0.615549
375 0.498481
380 0.63154
385 0.542389
390 0.531873
395 0.499675
400 0.558382
405 0.490819
410 0.439959
415 0.531737
420 0.542808
425 0.462284
430 0.587199
435 0.516634
440 0.66828
445 0.529833
450 0.600974
455 0.470965
460 0.510937
465 0.659565
470 0.599403
475 0.636258
480 0.55253
485 0.559536
490 0.688027
495 0.60867
500 0.652637
505 0.572331
510 0.446668
515 0.570158
520 0.568471
525 0.581543
530 0.632009
535 0.75855
540 0.847469
545 0.755939
550 0.756527
555 0.858118
560 1.17114
565 13.9183
570 326.744
575 629.662
580 191.586
585 23.3363
590 3.5106
595 1.15407
600 0.131329
Ex : 583
200 0.511695
205 0.38879
210 0.527404
215 0.478849
220 0.425819
225 0.509795
230 0.465283
235 0.58602
240 0.530188
245 0.450556
250 0.575856
255 0.470608
260 0.516133
265 0.517215
270 0.487788
275 0.600003
280 0.495043
285 0.399272
290 0.479966
295 0.460123
300 0.474151
305 0.579353
310 0.577087
315 0.584103
320 0.503366
325 0.46949
330 0.559013
335 0.534624
340 0.550618
345 0.479641
350 0.46072
355 0.518972
360 0.545227
365 0.542537
370 0.525729
375 0.468973
380 0.566794
385 0.559564
390 0.363253
395 0.463817
400 0.539252
405 0.471996
410 0.454777
415 0.4464
420 0.540724
425 0.508385
430 0.566627
435 0.508725
440 0.561074
445 0.534141
450 0.457691
455 0.581763
460 0.527745
465 0.709938
470 0.680044
475 0.578803
480 0.521807
485 0.613161
490 0.588636
495 0.547362
500 0.516767
505 0.609909
510 0.590235
515 0.626319
520 0.723431
525 0.481253
530 0.693116
535 0.589957
540 0.825666
545 0.604801
550 0.572432
555 0.755291
560 1.01845
565 1.23469
570 12.3144
575 289.201
580 527.31
585 154.464
590 18.984
595 2.85263
600 0.611519
Ex : 588
200 0.5711
205 0.492012
210 0.591097
215 0.460142
220 0.538483
225 0.552013
230 0.554887
235 0.63156
240 0.423522
245 0.600249
250 0.461016
255 0.577526
260 0.426087
265 0.474796
270 0.449267
275 0.402453
280 0.421566
285 0.475413
290 0.532389
295 0.553744
300 0.45704
305 0.404789
310 0.473673
315 0.60689
320 0.583474
325 0.605778
330 0.486075
335 0.527161
340 0.559385
345 0.454114
350 0.513789
355 0.524126
360 0.525126
365 0.559513
370 0.543296
375 0.60314
380 0.656865
385 0.651397
390 0.478078
395 0.554816
400 0.619967
405 0.535605
410 0.629398
415 0.630817
420 0.657004
425 0.494852
430 0.602773
435 0.623657
440 0.658036
445 0.520828
450 0.456674
455 0.576179
460 0.553271
465 0.571988
470 0.657212
475 0.597995
480 0.624
485 0.708354
490 0.549663
495 0.612128
500 0.598857
505 0.570936
510 0.538942
515 0.591192
520 0.544974
525 0.658034
530 0.631096
535 0.539614
540 0.652999
545 0.596788
550 0.741074
555 0.831331
560 0.885551
565 0.898561
570 1.18643
575 10.723
580 240.06
585 446.889
590 135.869
595 16.628
600 1.98479
Ex : 593
200 0.474024
205 0.552329
210 0.510313
215 0.592299
220 0.512815
225 0.498654
230 0.515367
235 0.479524
240 0.545653
245 0.428998
250 0.536321
255 0.540256
260 0.550476
265 0.66584
270 0.60201
275 0.554415
280 0.725854
285 0.532085
290 0.552609
295 0.474953
300 0.565948
305 0.492061
310 0.487752
315 0.573355
320 0.629896
325 0.46575
330 0.685457
335 0.652366
340 0.537288
345 0.556843
350 0.537191
355 0.549031
360 0.625991
365 0.420771
370 0.496587
375 0.601231
380 0.61807
385 0.427025
390 0.549298
395 0.55499
400 0.623819
405 0.597647
410 0.420809
415 0.471522
420 0.575139
425 0.439924
430 0.694951
435 0.509789
440 0.523748
445 0.581789
450 0.71884
455 0.584203
460 0.668572
465 0.647895
470 0.580979
475 0.514661
480 0.519241
485 0.550473
490 0.589026
495 0.557086
500 0.690254
505 0.615247
510 0.571125
515 0.588568
520 0.586822
525 0.56286
530 0.482966
535 0.544881
540 0.65918
545 0.598933
550 0.706883
555 0.663758
560 0.771754
565 0.755321
570 0.843293
575 1.21669
580 10.4899
585 216.807
590 397.871
595 118.456
600 17.7654
Ex : 598
200 0.532336
205 0.561851
210 0.532445
215 0.511605
220 0.560793
225 0.534385
230 0.497993
235 0.739876
240 0.604933
245 0.523373
250 0.430046
255 0.458274
260 0.475821
265 0.548715
270 0.429623
275 0.55576
280 0.471004
285 0.440721
290 0.620559
295 0.603616
300 0.709637
305 0.561076
310 0.663446
315 0.50591
320 0.588563
325 0.413714
330 0.532966
335 0.619783
340 0.644006
345 0.672679
350 0.399466
355 0.477567
360 0.614815
365 0.834789
370 0.629066
375 0.521603
380 0.52059
385 0.633052
390 0.677083
395 0.597961
400 0.778633
405 0.546118
410 0.695888
415 0.660086
420 0.670396
425 0.531085
430 0.492781
435 0.594921
440 0.496681
445 0.622783
450 0.470578
455 0.61275
460 0.703817
465 0.535179
470 0.544536
475 0.565601
480 0.653547
485 0.602645
490 0.601889
495 0.609204
500 0.696649
505 0.524789
510 0.668333
515 0.595511
520 0.561274
525 0.683402
530 0.737111
535 0.706871
540 0.575339
545 0.506848
550 0.662772
555 0.608286
560 0.730021
565 0.690668
570 0.761175
575 0.836868
580 0.886455
585 9.47642
590 190.777
595 346.833
600 239.534
Ex : 603
200 0.456014
205 0.582063
210 0.619639
215 0.477217
220 0.512724
225 0.633303
230 0.441076
235 0.494916
240 0.537783
245 0.580964
250 0.609681
255 0.552452
260 0.556472
265 0.537219
270 0.671754
275 0.496366
280 0.53463
285 0.637078
290 0.568757
295 0.638223
300 0.612868
305 0.769054
310 0.542879
315 0.657201
320 0.843457
325 0.560603
330 0.495767
335 0.542988
340 0.583727
345 0.562426
350 0.561242
355 0.442031
360 0.653781
365 0.474861
370 0.694313
375 0.687136
380 0.601164
385 0.5474
390 0.556209
395 0.53244
400 0.578154
405 0.645212
410 0.784112
415 0.537385
420 0.526131
425 0.693029
430 0.691526
435 0.596021
440 0.522497
445 0.682351
450 0.8599
455 0.704175
460 0.597912
465 0.710152
470 0.58255
475 0.601797
480 0.476082
485 0.536257
490 0.580653
495 0.641204
500 0.572766
505 0.590911
510 0.741983
515 0.683541
520 0.655493
525 0.594494
530 0.654813
535 0.799182
540 0.61384
545 0.564306
550 0.663327
555 0.595194
560 0.783822
565 0.780464
570 0.675977
575 0.663522
580 0.762693
585 0.880906
590 8.69949
595 164.537
600 322.289
