File format V 1.0
ven. 6. janv. 03:49:42 2017
Operator : 
Comments : 

=============================================
SpectroFluorometer parameters
Mode : 3D measurement
Data : Fluorescence
Phospho. : Ordinary
Spectrum : Fluorescence

Scan speed : 2400 nm/mn
Response : 100 ms
PM Voltage : 700 V
Shutter : On

Lambda Ex. Start : 203
Lambda Ex. End : 603
Lambda Ex. Step : 5
Ex. Slit : 5 nm

Lambda Em. Start : 200
Lambda Em. End : 600
Lambda Em. Step : 5
Em. Slit : 5 nm

Repetition : 1
Decal lambda em : 10
=============================================
DATA
Ex : 203
200 3.24845
205 5.0292
210 5.19679
215 1.96555
220 3.48383
225 1.17118
230 4.26112
235 3.63223
240 2.17385
245 5.24234
250 5.55097
255 2.72583
260 2.17917
265 2.81554
270 1.84199
275 3.6077
280 2.02029
285 4.49703
290 4.14069
295 2.07563
300 1.82468
305 5.18786
310 2.05107
315 6.54908
320 3.78445
325 4.54558
330 2.84056
335 5.60882
340 4.03446
345 3.21951
350 4.87335
355 3.45534
360 1.05939
365 2.92596
370 5.99343
375 4.12149
380 2.0495
385 3.38542
390 8.13802
395 3.09235
400 2.31058
405 3.23652
410 1.76888
415 5.11721
420 4.57892
425 3.92005
430 2.63055
435 6.29561
440 6.03901
445 4.85628
450 3.49881
455 2.7112
460 3.55614
465 2.92127
470 5.23018
475 2.15055
480 3.67665
485 3.12716
490 6.35043
495 1.04887
500 4.2681
505 3.85219
510 3.13889
515 5.16545
520 4.44826
525 4.21867
530 8.62244
535 3.95933
540 4.49423
545 1.70749
550 2.95314
555 3.46273
560 2.92859
565 1.7594
570 3.64392
575 7.01329
580 6.75594
585 6.00493
590 8.4418
595 6.35624
600 0.723316
Ex : 208
200 3.15432
205 6.6499
210 5.60384
215 4.20023
220 3.07369
225 4.1763
230 3.11625
235 3.49661
240 4.00364
245 3.65389
250 3.22779
255 6.77696
260 5.76287
265 5.96695
270 1.98324
275 3.82439
280 1.70912
285 1.3887
290 2.79421
295 2.01605
300 2.95717
305 2.13499
310 1.78666
315 5.25528
320 3.30384
325 2.08588
330 3.13007
335 3.86098
340 3.04097
345 1.06142
350 4.38915
355 2.54919
360 2.5056
365 7.23715
370 2.7315
375 2.406
380 4.05057
385 3.89797
390 6.35927
395 3.0621
400 5.088
405 3.20651
410 3.10009
415 2.63159
420 8.96334
425 4.98396
430 3.28081
435 5.27587
440 2.73949
445 2.52457
450 2.80014
455 5.84766
460 4.94676
465 5.11479
470 3.95381
475 4.78514
480 4.89703
485 5.71603
490 4.15525
495 1.5698
500 2.60339
505 5.33804
510 2.87913
515 1.9414
520 4.90666
525 6.89176
530 3.61519
535 4.65804
540 5.37717
545 5.35496
550 4.79915
555 2.95986
560 4.14034
565 6.66875
570 4.57684
575 3.25698
580 4.47216
585 5.67672
590 2.59216
595 3.36091
600 7.47209
Ex : 213
200 1.56442
205 1.37956
210 4.01909
215 4.87017
220 2.30418
225 4.55689
230 4.14698
235 4.85748
240 2.80236
245 4.42279
250 2.339
255 1.581
260 6.26025
265 4.42655
270 2.79207
275 3.33963
280 7.78806
285 2.71475
290 2.51514
295 3.02539
300 1.36425
305 4.10772
310 1.98332
315 1.59093
320 1.86538
325 4.20019
330 3.57682
335 4.46334
340 6.01312
345 4.0685
350 2.73679
355 5.12226
360 4.09509
365 3.28895
370 2.25885
375 7.14974
380 3.42206
385 2.35297
390 2.31945
395 3.04419
400 3.58821
405 3.11358
410 3.03656
415 3.51566
420 2.84829
425 3.74632
430 3.70019
435 2.67281
440 3.61988
445 2.3855
450 5.86884
455 4.77175
460 4.63062
465 5.09976
470 2.90737
475 4.4156
480 3.0433
485 8.61962
490 4.28937
495 2.55779
500 3.65632
505 1.71447
510 3.59408
515 2.47291
520 1.52447
525 4.73193
530 4.03249
535 5.18352
540 4.8082
545 6.31544
550 4.71873
555 6.56542
560 5.66987
565 2.54024
570 1.75184
575 1.72689
580 2.88231
585 2.75965
590 6.55112
595 2.58158
600 4.72479
Ex : 218
200 3.04636
205 7.62428
210 6.18484
215 3.00794
220 4.98486
225 3.84567
230 4.28183
235 6.04713
240 9.09025
245 6.02545
250 6.97202
255 5.29826
260 2.7221
265 2.55632
270 3.97883
275 3.00504
280 4.53945
285 2.73208
290 7.63196
295 2.6142
300 5.01623
305 2.82552
310 2.19686
315 3.83287
320 2.77353
325 5.25854
330 3.68861
335 3.59004
340 3.37214
345 2.79864
350 2.95313
355 4.88109
360 2.97733
365 1.72904
370 3.55011
375 4.08782
380 1.7465
385 3.85635
390 4.19952
395 4.53145
400 2.39331
405 4.33138
410 3.63631
415 2.56446
420 6.13964
425 5.18017
430 2.44656
435 9.99671
440 6.93528
445 4.50307
450 4.00151
455 3.00807
460 7.89125
465 3.37496
470 2.9285
475 1.81738
480 4.432
485 4.51153
490 4.74448
495 3.73915
500 4.12061
505 2.51358
510 4.35477
515 6.44072
520 3.32249
525 1.95572
530 2.58008
535 4.64932
540 3.18769
545 2.82386
550 2.16856
555 2.53225
560 3.72504
565 6.24274
570 6.11508
575 2.4849
580 2.15175
585 4.39316
590 2.5185
595 1.86266
600 0.211963
Ex : 223
200 1.53659
205 4.79853
210 4.78242
215 3.05604
220 3.02799
225 1.87675
230 3.1619
235 2.70467
240 3.22798
245 3.4117
250 2.95622
255 1.71192
260 2.71049
265 6.72134
270 3.87454
275 2.4376
280 2.49844
285 2.64225
290 4.49146
295 4.11327
300 4.44035
305 1.92213
310 1.63666
315 1.55775
320 4.87892
325 2.50025
330 1.45518
335 2.79719
340 1.5214
345 3.57592
350 3.85967
355 2.37178
360 2.20982
365 4.65595
370 3.90148
375 2.33673
380 2.12907
385 1.95357
390 2.18839
395 4.22093
400 6.94961
405 2.88228
410 4.92375
415 3.40882
420 4.81372
425 7.4779
430 4.94901
435 4.77118
440 2.16856
445 2.3582
450 5.91123
455 6.41941
460 3.03357
465 5.63525
470 5.72497
475 5.34612
480 4.77461
485 3.04877
490 3.21735
495 4.06455
500 1.21825
505 2.15721
510 3.40646
515 1.98076
520 2.61049
525 2.75281
530 1.94292
535 1.90652
540 4.65328
545 3.68503
550 4.32401
555 7.6212
560 3.8121
565 3.1755
570 2.90985
575 2.65605
580 4.05781
585 2.28222
590 1.47267
595 9.64115
600 1.09713
Ex : 228
200 4.06842
205 4.55437
210 3.11576
215 2.71777
220 2.18999
225 4.21652
230 4.75755
235 4.10157
240 2.37778
245 6.72795
250 7.79079
255 2.25615
260 1.69999
265 3.11627
270 1.98659
275 4.38916
280 4.00575
285 4.04211
290 1.79902
295 3.25137
300 6.89568
305 3.94213
310 2.61954
315 3.13087
320 4.46134
325 2.09324
330 2.21434
335 4.33979
340 2.38934
345 6.33397
350 5.07361
355 4.2195
360 2.02095
365 3.74509
370 3.01858
375 3.61813
380 3.23745
385 2.30821
390 2.00434
395 5.64435
400 4.70717
405 1.57128
410 2.87725
415 4.36078
420 2.81361
425 2.80815
430 3.92274
435 3.03763
440 2.60575
445 5.84724
450 4.98126
455 6.07174
460 4.82109
465 2.81218
470 2.86915
475 2.87558
480 3.44294
485 2.27744
490 3.51876
495 3.46185
500 3.04743
505 3.7431
510 2.6288
515 2.40518
520 5.30264
525 4.09641
530 4.57408
535 3.1
540 4.85677
545 2.17739
550 2.11373
555 3.55417
560 3.48711
565 2.1643
570 1.56764
575 1.87306
580 1.18797
585 8.07474
590 3.66089
595 1.61036
600 0.183253
Ex : 233
200 2.34759
205 4.51721
210 1.07499
215 4.43519
220 2.29949
225 3.53068
230 2.01132
235 2.15541
240 2.65856
245 3.81118
250 3.62101
255 2.27216
260 1.87705
265 3.45364
270 1.82643
275 4.31064
280 4.13704
285 2.95303
290 2.66172
295 3.04474
300 1.99698
305 3.57921
310 2.13355
315 1.99738
320 2.57081
325 1.06088
330 6.0032
335 4.85325
340 5.22371
345 6.90102
350 4.51216
355 4.56126
360 6.06726
365 2.52063
370 4.12406
375 1.68908
380 2.26145
385 2.4751
390 2.83068
395 1.85539
400 2.22701
405 1.09323
410 3.54749
415 2.52248
420 4.60553
425 1.77751
430 2.83781
435 2.52901
440 6.48658
445 2.19858
450 3.47597
455 5.64849
460 4.61624
465 1.63912
470 2.27988
475 1.36486
480 6.05531
485 4.04502
490 3.6347
495 2.11889
500 4.38951
505 3.29805
510 4.34014
515 2.891
520 4.75546
525 3.68358
530 1.63654
535 3.37088
540 5.3481
545 3.57213
550 1.39424
555 3.03882
560 5.2223
565 2.93706
570 2.25668
575 3.05608
580 2.3373
585 4.84095
590 3.42309
595 7.60108
600 7.73305
Ex : 238
200 4.92035
205 5.13387
210 3.82289
215 2.38953
220 4.52491
225 4.22321
230 1.91685
235 3.12313
240 2.57513
245 3.16649
250 3.35635
255 2.06267
260 2.16068
265 3.42428
270 1.60052
275 1.82485
280 0.815344
285 1.42209
290 1.78085
295 1.40854
300 1.79255
305 3.33407
310 2.83025
315 2.68385
320 4.94252
325 3.24138
330 1.24674
335 1.98278
340 3.38035
345 4.59729
350 2.61707
355 0.896599
360 2.17121
365 3.51797
370 2.39325
375 1.92499
380 2.58371
385 2.73717
390 1.03126
395 1.97838
400 2.82755
405 3.04531
410 1.52436
415 4.36902
420 2.5109
425 4.51256
430 3.74937
435 1.9489
440 3.62531
445 2.56664
450 2.75279
455 2.44326
460 2.27402
465 1.34496
470 3.03424
475 1.89395
480 2.60335
485 3.01025
490 2.56436
495 2.72067
500 1.95714
505 1.76851
510 3.48317
515 2.59137
520 2.56104
525 3.83625
530 2.92762
535 3.95739
540 3.33575
545 1.81024
550 3.07995
555 1.98976
560 2.84651
565 1.86763
570 2.64014
575 1.40289
580 4.21321
585 1.82129
590 3.37955
595 2.14897
600 0.244544
Ex : 243
200 2.05426
205 1.2275
210 1.22078
215 3.39764
220 1.16664
225 1.15012
230 5.09856
235 2.07238
240 2.07325
245 1.57578
250 1.30561
255 1.67342
260 2.94495
265 4.35163
270 2.90806
275 3.02703
280 3.6695
285 2.29806
290 3.41407
295 3.50499
300 1.94422
305 2.02469
310 1.39567
315 1.75872
320 1.96259
325 5.29257
330 3.56849
335 4.78061
340 2.64234
345 2.28689
350 2.45465
355 3.72727
360 2.78736
365 2.44866
370 3.27642
375 1.27388
380 1.59546
385 4.70685
390 3.83329
395 2.96769
400 2.87647
405 1.53929
410 1.84418
415 2.86077
420 2.064
425 1.67126
430 2.68468
435 3.24338
440 2.68907
445 3.01758
450 1.89965
455 1.73224
460 2.24305
465 3.30577
470 4.05958
475 2.52493
480 2.07024
485 1.56671
490 1.76449
495 1.35543
500 1.89699
505 4.6649
510 2.75178
515 2.46957
520 3.01111
525 4.07711
530 3.28921
535 2.48079
540 2.84687
545 3.03732
550 3.12673
555 3.11827
560 3.66035
565 1.19827
570 3.12402
575 3.23924
580 1.8515
585 2.54969
590 2.09185
595 2.54292
600 0.289375
Ex : 248
200 2.21452
205 1.56021
210 2.16154
215 2.44302
220 1.32647
225 3.49814
230 2.44551
235 4.49301
240 2.4915
245 1.59129
250 1.73347
255 0.758422
260 1.07548
265 2.59264
270 1.38458
275 2.59016
280 2.27568
285 1.2107
290 2.12089
295 1.50166
300 1.75657
305 1.76502
310 0.90793
315 1.53968
320 1.71409
325 1.43825
330 2.95635
335 3.03329
340 2.48973
345 3.46504
350 1.88845
355 1.47626
360 2.68833
365 3.49267
370 2.543
375 2.19472
380 2.63123
385 1.12757
390 2.48199
395 1.65831
400 0.949655
405 1.75866
410 0.910938
415 1.42354
420 0.47722
425 1.82068
430 3.27339
435 2.73159
440 2.29607
445 2.36524
450 3.45585
455 2.2976
460 3.22871
465 1.64319
470 2.50903
475 1.49281
480 2.1601
485 1.28069
490 3.94545
495 2.36857
500 1.97777
505 2.64226
510 2.76371
515 2.7655
520 4.04402
525 1.1793
530 3.0031
535 1.63811
540 3.42967
545 3.34125
550 2.64496
555 1.2818
560 2.155
565 2.32968
570 3.47173
575 2.54158
580 2.43855
585 4.45257
590 5.65681
595 3.94137
600 0.448513
Ex : 253
200 2.04607
205 0.978848
210 1.43943
215 0.660574
220 3.02588
225 1.25967
230 1.28947
235 1.24903
240 1.42726
245 0.990049
250 1.22486
255 1.23203
260 2.40635
265 1.06727
270 1.58455
275 1.40965
280 1.25529
285 0.764208
290 1.56397
295 0.62482
300 2.16438
305 2.80313
310 0.934691
315 1.81441
320 1.03574
325 0.823779
330 1.45059
335 1.08373
340 1.83426
345 1.12224
350 1.55268
355 2.23258
360 1.56367
365 0.966234
370 1.88236
375 1.44184
380 1.89966
385 1.45887
390 1.7068
395 3.43693
400 1.57271
405 0.671025
410 0.853645
415 2.14356
420 1.32846
425 0.945701
430 2.86203
435 2.55724
440 1.53364
445 1.56184
450 1.78269
455 1.01439
460 2.64074
465 1.69348
470 2.35485
475 2.45579
480 4.45295
485 2.05203
490 1.88333
495 1.39268
500 1.93846
505 2.04029
510 1.8088
515 1.70614
520 3.5921
525 2.1289
530 4.41023
535 1.70802
540 1.93081
545 1.14904
550 0.652336
555 0.820642
560 1.42517
565 1.39302
570 1.42032
575 2.09586
580 1.74724
585 1.66705
590 0.710714
595 0.660317
600 0.0751416
Ex : 258
200 1.04009
205 1.18259
210 0.710211
215 0.843602
220 1.93658
225 2.27008
230 0.755169
235 0.742746
240 1.1387
245 0.894304
250 1.28602
255 0.805115
260 0.999295
265 1.28868
270 1.21495
275 0.830853
280 1.12981
285 0.720742
290 2.26035
295 2.1053
300 2.4783
305 1.09837
310 1.22676
315 1.16951
320 2.52465
325 1.04775
330 2.20914
335 1.15532
340 1.16302
345 1.34228
350 2.09058
355 2.46029
360 2.6021
365 2.29827
370 2.04377
375 1.12876
380 1.37345
385 1.23254
390 0.88238
395 1.48096
400 1.19122
405 1.20525
410 1.84626
415 1.04643
420 3.44859
425 1.51469
430 0.675079
435 1.19726
440 0.953367
445 2.12277
450 0.792809
455 1.27046
460 2.02921
465 1.94154
470 1.07006
475 2.08709
480 1.95203
485 1.52138
490 1.82994
495 1.23394
500 0.60993
505 0.945873
510 2.10403
515 1.16051
520 0.907991
525 1.68439
530 0.506772
535 0.945837
540 0.590475
545 1.11869
550 1.80531
555 1.65684
560 1.43918
565 1.45316
570 2.2062
575 1.93008
580 0.903618
585 0.87776
590 1.23248
595 1.79812
600 0.204619
Ex : 263
200 0.803419
205 0.919468
210 0.642907
215 0.548572
220 0.783143
225 1.25613
230 1.34985
235 1.47211
240 0.688359
245 1.0503
250 0.934456
255 0.628264
260 1.65125
265 0.454524
270 0.530918
275 1.01622
280 0.901038
285 0.972327
290 1.1909
295 0.725806
300 0.498659
305 1.18315
310 1.06064
315 1.09137
320 1.66371
325 1.4932
330 1.09214
335 1.76557
340 0.916176
345 1.47482
350 0.718158
355 0.843495
360 0.617465
365 0.978961
370 1.88069
375 1.14694
380 1.32464
385 0.74005
390 0.647339
395 2.41566
400 1.34648
405 1.12095
410 1.02287
415 0.641223
420 0.925028
425 1.23567
430 0.825551
435 1.14873
440 0.774686
445 1.69944
450 1.33673
455 0.669707
460 0.616241
465 0.824408
470 0.875313
475 0.880746
480 1.1313
485 0.86624
490 0.51723
495 0.643633
500 0.48202
505 0.670105
510 0.779321
515 0.673855
520 1.56746
525 0.978227
530 1.22739
535 0.556264
540 0.792845
545 0.938162
550 0.79519
555 2.15982
560 1.4347
565 1.04022
570 0.336169
575 0.550049
580 0.749325
585 0.555157
590 1.66664
595 0.832347
600 0.0947179
Ex : 268
200 0.482993
205 0.624406
210 0.53837
215 0.524261
220 0.778563
225 1.56679
230 0.882117
235 0.957727
240 1.06904
245 0.800833
250 1.04271
255 0.489229
260 0.312173
265 0.595357
270 0.416677
275 1.08965
280 1.03684
285 0.799041
290 0.914689
295 1.01761
300 0.79722
305 0.49835
310 1.36543
315 0.907681
320 0.695699
325 0.490878
330 0.624002
335 0.388113
340 0.563665
345 0.537184
350 0.860186
355 0.761932
360 0.886073
365 0.913086
370 0.84753
375 0.700511
380 0.794042
385 0.647263
390 1.55266
395 0.605261
400 0.935736
405 0.723597
410 1.11504
415 1.13728
420 1.08565
425 1.07236
430 1.45438
435 0.821366
440 1.41915
445 0.894987
450 0.884837
455 0.751459
460 1.14992
465 1.28124
470 0.709531
475 1.24864
480 1.41017
485 1.45214
490 1.35293
495 1.25378
500 1.20272
505 0.959768
510 0.530047
515 1.02146
520 0.689381
525 1.44782
530 1.72313
535 1.59717
540 0.87357
545 1.33092
550 1.07986
555 0.64831
560 0.393096
565 0.498791
570 1.0516
575 0.497955
580 0.621165
585 0.431778
590 0.338556
595 0.46698
600 0.0531406
Ex : 273
200 0.31952
205 0.458875
210 0.295703
215 1.12997
220 0.938444
225 0.267563
230 0.503288
235 0.929917
240 0.423296
245 0.461345
250 0.605765
255 0.25668
260 0.558579
265 0.693797
270 1.23724
275 0.671342
280 0.670801
285 0.429265
290 0.568147
295 0.383725
300 0.402207
305 0.668318
310 0.674192
315 0.406268
320 1.52711
325 0.542223
330 1.04104
335 0.383076
340 0.641853
345 0.433978
350 0.790626
355 0.630244
360 1.14803
365 0.864286
370 0.851139
375 0.845313
380 1.20008
385 0.708622
390 1.2725
395 0.542237
400 0.642187
405 1.20594
410 0.697753
415 0.595135
420 0.722954
425 0.708809
430 1.13458
435 0.645657
440 0.807865
445 0.770296
450 1.81643
455 0.87355
460 0.623295
465 0.737765
470 0.455059
475 0.495845
480 0.978465
485 0.672929
490 0.518223
495 0.80205
500 0.666053
505 0.936594
510 0.392018
515 0.633135
520 0.866543
525 1.19971
530 1.12809
535 0.602814
540 1.43087
545 0.725357
550 0.544107
555 0.838309
560 0.952608
565 0.630561
570 0.98782
575 1.03582
580 0.959475
585 0.530447
590 0.845729
595 0.487501
600 0.0554757
Ex : 278
200 0.810498
205 0.508944
210 0.467057
215 0.655578
220 0.552654
225 0.452596
230 0.212487
235 0.480079
240 0.285012
245 0.26822
250 0.382479
255 0.868419
260 0.322563
265 0.631228
270 1.03388
275 0.399947
280 0.699578
285 0.620912
290 0.39941
295 0.632015
300 0.351103
305 0.422346
310 0.725888
315 0.668615
320 0.804919
325 0.46949
330 0.42576
335 0.224725
340 0.416894
345 0.782265
350 0.357614
355 0.857393
360 0.628492
365 0.415313
370 1.26299
375 1.087
380 0.785766
385 1.31757
390 0.425045
395 0.935369
400 0.754502
405 0.662922
410 0.536837
415 0.735015
420 0.94432
425 0.655194
430 0.5423
435 0.589731
440 0.914542
445 0.741754
450 0.406736
455 0.564706
460 0.616349
465 0.490966
470 0.379936
475 0.525458
480 0.791354
485 0.562327
490 0.87121
495 0.305067
500 0.524252
505 0.846075
510 0.700223
515 0.430985
520 0.350512
525 0.330796
530 0.511039
535 0.484199
540 0.571258
545 0.803642
550 0.778662
555 0.31134
560 0.357395
565 0.50965
570 0.434297
575 0.451524
580 0.913569
585 0.961397
590 0.628273
595 0.626555
600 0.0712996
Ex : 283
200 0.613208
205 0.357322
210 0.203996
215 0.284824
220 0.550128
225 0.224147
230 0.282092
235 0.643863
240 0.441809
245 0.790838
250 0.245457
255 0.712696
260 0.271097
265 0.340464
270 0.517632
275 0.280786
280 0.404814
285 0.292306
290 0.67819
295 0.293832
300 0.29224
305 0.486753
310 0.415058
315 0.442766
320 0.767537
325 0.440516
330 1.03189
335 0.951576
340 0.369318
345 0.304581
350 0.669915
355 0.597491
360 0.752786
365 0.467052
370 1.04088
375 0.824918
380 0.702525
385 0.86372
390 0.472449
395 0.682257
400 0.617095
405 0.867282
410 0.669802
415 0.467677
420 0.55503
425 0.697468
430 0.619544
435 1.09939
440 0.993612
445 1.20845
450 0.601688
455 0.464655
460 0.580316
465 0.523877
470 0.42105
475 0.548265
480 0.411284
485 0.398149
490 0.403422
495 0.372231
500 0.304355
505 0.3713
510 0.369056
515 0.721333
520 0.497267
525 0.417366
530 0.478675
535 0.22522
540 0.358528
545 0.604747
550 0.410214
555 0.471823
560 0.483837
565 0.517454
570 0.285966
575 0.5847
580 0.423243
585 0.768163
590 0.378661
595 0.31411
600 0.0357446
Ex : 288
200 0.406573
205 0.505759
210 0.26965
215 0.439996
220 0.351975
225 0.141349
230 0.411
235 0.422187
240 0.565222
245 0.407649
250 0.535859
255 0.756308
260 0.241123
265 0.46291
270 0.598908
275 0.296517
280 0.175601
285 0.404314
290 0.540874
295 0.20293
300 0.437678
305 0.386967
310 0.360537
315 0.269375
320 0.606905
325 0.424309
330 0.368639
335 0.615599
340 0.330894
345 0.538648
350 0.551805
355 0.516849
360 0.389913
365 0.578732
370 0.60996
375 0.637153
380 0.692574
385 0.746857
390 0.579029
395 0.456441
400 0.463877
405 0.686177
410 0.611783
415 0.334611
420 0.655635
425 0.635998
430 0.578934
435 0.410424
440 0.908622
445 0.602875
450 0.831241
455 0.707743
460 0.537316
465 0.46073
470 0.487653
475 0.578516
480 0.321521
485 0.662462
490 0.417324
495 0.670772
500 0.444905
505 0.458217
510 0.554362
515 0.542291
520 0.632221
525 0.457607
530 0.402575
535 0.306331
540 0.206033
545 0.39515
550 0.220236
555 0.164031
560 0.308556
565 0.716682
570 0.437125
575 0.324488
580 0.185724
585 0.212925
590 0.393211
595 0.393131
600 0.0447368
Ex : 293
200 0.179073
205 0.377993
210 0.243515
215 0.524726
220 0.381968
225 0.620799
230 0.545068
235 0.257816
240 0.5918
245 0.375406
250 0.442836
255 0.241389
260 0.348544
265 0.176791
270 0.197827
275 0.167738
280 0.415031
285 0.30689
290 0.370649
295 0.414553
300 0.557669
305 0.29404
310 0.272286
315 0.295316
320 0.173337
325 0.446381
330 0.546259
335 0.5991
340 0.340781
345 0.30929
350 0.279953
355 0.667763
360 0.201655
365 0.390638
370 0.480329
375 0.357164
380 0.436411
385 0.441672
390 0.7777
395 0.756632
400 0.686808
405 0.654375
410 0.485405
415 0.583228
420 0.537704
425 0.70364
430 0.675352
435 0.412235
440 0.437692
445 0.57577
450 0.749256
455 0.450769
460 0.575445
465 0.295084
470 0.651959
475 0.807744
480 0.358797
485 0.568123
490 0.469706
495 0.336192
500 0.369887
505 0.247669
510 0.335481
515 0.277842
520 0.182818
525 0.142831
530 0.192759
535 0.609827
540 0.403423
545 0.232875
550 0.408228
555 0.570753
560 0.336811
565 0.335892
570 0.418292
575 0.325296
580 0.834601
585 0.586224
590 0.393231
595 0.118637
600 0.0135004
Ex : 298
200 0.213363
205 0.110601
210 0.185327
215 0.141552
220 0.235465
225 0.204678
230 0.239596
235 0.265037
240 0.150896
245 0.253331
250 0.385653
255 0.155258
260 0.122565
265 0.137976
270 0.221571
275 0.0894898
280 0.29954
285 0.230708
290 0.424905
295 0.343216
300 0.282462
305 0.249377
310 0.290257
315 0.23455
320 0.195492
325 0.271995
330 0.434613
335 0.201263
340 0.358158
345 0.285437
350 0.385512
355 0.386376
360 0.434608
365 0.195206
370 0.201947
375 0.26281
380 0.375197
385 0.350993
390 0.464573
395 0.386147
400 0.482641
405 0.4078
410 0.411739
415 0.605513
420 0.746095
425 0.449432
430 0.363233
435 0.41012
440 0.388629
445 0.473253
450 0.322716
455 0.551046
460 0.378286
465 0.287322
470 0.257982
475 0.461437
480 0.611943
485 0.380768
490 0.391928
495 0.256291
500 0.393978
505 0.265378
510 0.456531
515 0.2505
520 0.438462
525 0.247727
530 0.414679
535 0.359255
540 0.298723
545 0.11299
550 0.330176
555 0.489363
560 0.358157
565 0.213812
570 0.407587
575 0.299583
580 0.298859
585 0.286807
590 0.582004
595 0.282642
600 0.0321636
Ex : 303
200 0.203344
205 0.285899
210 0.303849
215 0.205282
220 0.367859
225 0.323097
230 0.148808
235 0.172266
240 0.327712
245 0.166182
250 0.278708
255 0.160014
260 0.411806
265 0.183918
270 0.145942
275 0.260296
280 0.128513
285 0.10919
290 0.126707
295 0.12602
300 0.129659
305 0.195762
310 0.203776
315 0.200782
320 0.270676
325 0.10026
330 0.234086
335 0.319816
340 0.294358
345 0.597958
350 0.314578
355 0.389929
360 0.265311
365 0.398102
370 0.406387
375 0.266151
380 0.551297
385 0.56465
390 0.41929
395 0.505423
400 0.434927
405 0.387622
410 0.322059
415 0.337016
420 0.26843
425 0.502185
430 0.350806
435 0.493847
440 0.322543
445 0.496501
450 0.397321
455 0.37667
460 0.334535
465 0.459259
470 0.30195
475 0.225353
480 0.227484
485 0.255204
490 0.328139
495 0.271407
500 0.375136
505 0.651324
510 0.284921
515 0.240777
520 0.247821
525 0.336597
530 0.271169
535 0.179614
540 0.120843
545 0.536865
550 0.239659
555 0.177417
560 0.240699
565 0.14991
570 0.166153
575 0.195657
580 0.300317
585 0.241895
590 0.374949
595 0.396663
600 2.23206
Ex : 308
200 0.202948
205 0.410331
210 0.125623
215 0.171917
220 0.137279
225 0.303378
230 0.218377
235 0.185811
240 0.0842931
245 0.282783
250 0.138463
255 0.253198
260 0.148867
265 0.152442
270 0.146156
275 0.204209
280 0.22566
285 0.27836
290 0.263935
295 0.280944
300 0.1817
305 0.318924
310 0.204076
315 0.167552
320 0.219769
325 0.158821
330 0.409959
335 0.375068
340 0.316737
345 0.146819
350 0.390646
355 0.248892
360 0.182299
365 0.326101
370 0.42001
375 0.376558
380 0.495342
385 0.402389
390 0.438845
395 0.584976
400 0.634373
405 0.437919
410 0.564511
415 0.461946
420 0.474018
425 0.391153
430 0.650038
435 0.403743
440 0.307241
445 0.524691
450 0.356621
455 0.396404
460 0.364823
465 0.552658
470 0.316966
475 0.22452
480 0.371489
485 0.156859
490 0.410769
495 0.373907
500 0.373965
505 0.202348
510 0.172243
515 0.341058
520 0.37461
525 0.199463
530 0.106233
535 0.311148
540 0.173905
545 0.222612
550 0.334487
555 0.195024
560 0.238616
565 0.285158
570 0.150123
575 0.0835487
580 0.235857
585 0.237011
590 0.297554
595 0.171843
600 0.8015
Ex : 313
200 0.243624
205 0.130235
210 0.169706
215 0.158288
220 0.0858762
225 0.116489
230 0.24082
235 0.530832
240 0.145731
245 0.125234
250 0.141304
255 0.241359
260 0.0979562
265 0.373275
270 0.222487
275 0.0482327
280 0.191819
285 0.141074
290 0.194038
295 0.193483
300 0.331097
305 0.272967
310 0.258082
315 0.168569
320 0.273452
325 0.359361
330 0.293407
335 0.182326
340 0.384121
345 0.163239
350 0.319119
355 0.210064
360 0.345143
365 0.517959
370 0.415885
375 0.60485
380 0.430005
385 0.62975
390 0.731071
395 0.623244
400 0.743732
405 0.622677
410 0.784663
415 0.695209
420 0.670185
425 0.752301
430 0.705551
435 0.835321
440 0.636862
445 0.6437
450 0.74597
455 0.619315
460 0.5754
465 0.671969
470 0.642786
475 0.583723
480 0.492751
485 0.546717
490 0.315377
495 0.310419
500 0.366113
505 0.366639
510 0.191193
515 0.331276
520 0.396552
525 0.275512
530 0.234721
535 0.0821148
540 0.193881
545 0.282822
550 0.203038
555 0.230036
560 0.137119
565 0.200796
570 0.213512
575 0.189512
580 0.266174
585 0.194215
590 0.280854
595 0.19651
600 0.0223621
Ex : 318
200 0.231012
205 0.0936426
210 0.126848
215 0.103766
220 0.109933
225 0.172819
230 0.204153
235 0.181821
240 0.113975
245 0.0849266
250 0.159488
255 0.109379
260 0.106118
265 0.142113
270 0.32216
275 0.127432
280 0.048949
285 0.280993
290 0.104857
295 0.177755
300 0.109133
305 0.106741
310 0.228387
315 0.368899
320 0.269496
325 0.239283
330 0.45063
335 0.571552
340 0.743492
345 1.09275
350 1.68156
355 2.03319
360 2.39468
365 3.40319
370 3.94343
375 5.23075
380 5.94562
385 6.45466
390 6.92088
395 7.6912
400 7.68324
405 7.73359
410 7.86174
415 8.0964
420 7.78541
425 7.97157
430 7.54418
435 7.03599
440 6.61812
445 6.63772
450 6.3535
455 5.99906
460 5.08801
465 4.9223
470 4.5053
475 3.90223
480 3.42454
485 3.24193
490 2.81357
495 2.56221
500 2.02585
505 1.80362
510 1.4592
515 1.56204
520 1.24253
525 0.928999
530 0.972401
535 0.50103
540 0.610005
545 0.628699
550 0.372877
555 0.430592
560 0.365433
565 0.241954
570 0.43044
575 0.290588
580 0.294192
585 0.232702
590 0.135574
595 0.122019
600 0.0138853
Ex : 323
200 0.0704125
205 0.221148
210 0.127331
215 0.122465
220 0.1686
225 0.143025
230 0.109371
235 0.202407
240 0.0922218
245 0.0614717
250 0.101493
255 0.126584
260 0.204516
265 0.159289
270 0.117272
275 0.165592
280 0.162268
285 0.0996381
290 0.233468
295 0.173391
300 0.141629
305 0.103029
310 0.090307
315 3.75503
320 19.3095
325 8.81111
330 2.24998
335 2.54594
340 3.84351
345 4.99904
350 7.32836
355 10.8864
360 13.0162
365 16.2391
370 19.6412
375 21.4338
380 25.1143
385 28.3721
390 30.7316
395 32.3325
400 33.0494
405 34.8094
410 35.2232
415 34.5677
420 34.4522
425 33.6466
430 31.9751
435 31.263
440 30.5331
445 28.8305
450 26.8485
455 25.0742
460 23.5923
465 22.2235
470 19.7038
475 18.074
480 16.7163
485 14.3317
490 13.6001
495 11.5592
500 10.4694
505 8.92696
510 7.91626
515 6.91049
520 5.34514
525 4.70071
530 3.97675
535 3.14198
540 2.71865
545 2.32073
550 1.82458
555 1.85419
560 1.28112
565 1.01767
570 0.844044
575 0.650214
580 0.566281
585 0.399715
590 0.282663
595 0.261992
600 0.372011
Ex : 328
200 0.0868276
205 0.124394
210 0.104104
215 0.263639
220 0.109566
225 0.179955
230 0.230509
235 0.137549
240 0.156419
245 0.174638
250 0.113257
255 0.0788681
260 0.0827775
265 0.148155
270 0.2504
275 0.0989011
280 0.0814321
285 0.0860066
290 0.109766
295 0.0956794
300 0.118985
305 0.178332
310 0.102262
315 0.967247
320 46.7656
325 115.672
330 37.1862
335 7.70391
340 5.24207
345 6.40104
350 7.98356
355 12.393
360 17.034
365 19.3061
370 22.0775
375 24.4519
380 28.96
385 32.0827
390 35.6264
395 35.8886
400 37.1161
405 37.8564
410 39.1202
415 39.6098
420 37.7103
425 37.4449
430 35.4129
435 34.6105
440 33.0956
445 31.7717
450 29.6139
455 27.8919
460 26.1767
465 22.9134
470 22.1711
475 19.7459
480 17.625
485 16.2166
490 14.3586
495 12.7561
500 11.3574
505 9.95243
510 8.57332
515 7.93851
520 6.34241
525 5.38766
530 4.60894
535 4.01865
540 3.01323
545 2.83358
550 2.32359
555 1.99073
560 1.75996
565 1.31826
570 0.790383
575 0.761246
580 0.51173
585 0.558613
590 0.353208
595 0.390076
600 0.51494
Ex : 333
200 0.161265
205 0.0888429
210 0.0313446
215 0.114063
220 0.0905076
225 0.0702992
230 0.0965335
235 0.0906785
240 0.10957
245 0.0968854
250 0.056436
255 0.146213
260 0.142551
265 0.0769654
270 0.191618
275 0.194972
280 0.182736
285 0.0844134
290 0.151673
295 0.117883
300 0.123366
305 0.111989
310 0.172916
315 0.200844
320 7.04334
325 142.065
330 245.061
335 64.2972
340 10.2164
345 5.51379
350 5.33906
355 6.44198
360 9.09577
365 13.9189
370 14.227
375 14.591
380 16.3973
385 18.8011
390 20.9324
395 22.6503
400 23.1241
405 23.2735
410 23.9156
415 24.2694
420 22.8664
425 21.2044
430 20.4069
435 19.7714
440 18.6644
445 18.059
450 16.6556
455 15.1002
460 14.0434
465 13.0989
470 12.2869
475 11.4093
480 9.8656
485 8.31158
490 7.69369
495 6.90101
500 6.14906
505 5.7251
510 4.85782
515 3.99999
520 3.58909
525 2.85463
530 2.51809
535 2.4053
540 2.02447
545 1.47673
550 1.46965
555 1.17323
560 0.880246
565 0.993229
570 0.791218
575 0.584131
580 0.381734
585 0.397062
590 0.360999
595 0.257681
600 0.238265
Ex : 338
200 0.155598
205 0.0950784
210 0.156201
215 0.18301
220 0.120408
225 0.163752
230 0.0876362
235 0.254966
240 0.129248
245 0.105609
250 0.120379
255 0.133775
260 0.157459
265 0.0992788
270 0.0407489
275 0.128972
280 0.13983
285 0.175482
290 0.129516
295 0.0744527
300 0.0925546
305 0.117122
310 0.0772128
315 0.116063
320 0.214639
325 12.315
330 216.567
335 319.394
340 79.7325
345 11.5599
350 3.99728
355 3.76741
360 3.45008
365 5.08093
370 9.15225
375 9.43954
380 8.5392
385 9.91771
390 11.6906
395 12.8246
400 12.5828
405 13.1971
410 13.6918
415 14.1404
420 13.8882
425 13.0537
430 12.0998
435 11.5621
440 10.9584
445 10.509
450 9.67192
455 9.11794
460 8.16539
465 7.00092
470 6.83495
475 6.16448
480 5.6236
485 4.55897
490 4.50491
495 3.96654
500 3.40763
505 3.02168
510 2.50792
515 2.22569
520 2.16333
525 1.83513
530 1.3815
535 1.3361
540 1.24042
545 1.2113
550 0.945947
555 0.807823
560 0.737276
565 0.597309
570 0.50271
575 0.459214
580 0.498577
585 0.27817
590 0.193915
595 0.250348
600 0.32389
Ex : 343
200 0.143063
205 0.0969739
210 0.126447
215 0.152164
220 0.148193
225 0.13982
230 0.18788
235 0.127353
240 0.130739
245 0.189944
250 0.0730324
255 0.118785
260 0.0792039
265 0.0466875
270 0.109463
275 0.0806918
280 0.0868645
285 0.114755
290 0.0991877
295 0.109295
300 0.0943434
305 0.11892
310 0.152069
315 0.220755
320 0.172584
325 0.490933
330 15.9895
335 246.969
340 359.455
345 88.1012
350 11.8353
355 3.37911
360 2.55671
365 2.01591
370 2.8679
375 6.97367
380 8.71767
385 8.79455
390 9.81025
395 9.82886
400 10.0029
405 10.7499
410 11.4694
415 11.8678
420 11.336
425 10.3615
430 9.7915
435 9.64457
440 8.92134
445 8.71286
450 7.85004
455 7.18365
460 6.39303
465 5.93232
470 5.6333
475 5.08731
480 4.34075
485 3.94669
490 3.49091
495 3.07469
500 2.52982
505 2.46023
510 2.2923
515 2.1153
520 1.89496
525 1.48616
530 1.40825
535 1.09583
540 1.1656
545 0.832712
550 0.702779
555 0.652334
560 0.702808
565 0.632193
570 0.418574
575 0.316801
580 0.285768
585 0.329061
590 0.285487
595 0.269534
600 0.0425673
Ex : 348
200 0.124264
205 0.113963
210 0.0978179
215 0.0765672
220 0.0779641
225 0.111607
230 0.0820199
235 0.0664151
240 0.0467147
245 0.0590213
250 0.144014
255 0.116992
260 0.0596447
265 0.135711
270 0.0824507
275 0.0880155
280 0.165092
285 0.0739951
290 0.068473
295 0.112741
300 0.132164
305 0.111987
310 0.111735
315 0.114692
320 0.164029
325 0.124354
330 0.276759
335 15.7575
340 260.29
345 380.86
350 98.32
355 12.8262
360 3.44259
365 2.09261
370 1.54029
375 2.20791
380 6.89628
385 11.4748
390 12.789
395 12.2807
400 11.0713
405 11.4958
410 13.3166
415 14.0012
420 13.3403
425 11.7436
430 10.7066
435 11.1289
440 10.8635
445 10.4152
450 8.84488
455 7.61412
460 7.00255
465 6.8515
470 6.06645
475 5.15184
480 4.82718
485 4.23839
490 3.69717
495 3.43662
500 3.12227
505 2.62634
510 2.41651
515 1.99164
520 1.91707
525 1.64188
530 1.45012
535 1.21698
540 1.04535
545 0.859293
550 0.760337
555 0.71783
560 0.677643
565 0.525791
570 0.388445
575 0.319984
580 0.207181
585 0.273814
590 0.159668
595 0.256172
600 0.0291514
Ex : 353
200 0.0603367
205 0.0867119
210 0.077275
215 0.114797
220 0.132129
225 0.0945296
230 0.0756251
235 0.096174
240 0.0907813
245 0.103067
250 0.108686
255 0.0660884
260 0.0863592
265 0.0429891
270 0.0653729
275 0.0734176
280 0.113357
285 0.102199
290 0.0897137
295 0.209292
300 0.0584529
305 0.07329
310 0.156969
315 0.0925082
320 0.0765261
325 0.193958
330 0.219682
335 0.319069
340 16.5366
345 263.176
350 383.645
355 94.4521
360 12.201
365 2.94273
370 2.03482
375 1.70429
380 2.92641
385 8.11108
390 14.7148
395 15.6176
400 13.4748
405 12.3183
410 13.7875
415 15.2881
420 15.2966
425 13.3532
430 11.9906
435 11.2861
440 11.6977
445 10.8785
450 9.67686
455 8.3718
460 7.57753
465 6.87394
470 6.49997
475 5.46662
480 5.41537
485 4.50758
490 4.19147
495 3.46633
500 3.2901
505 3.04345
510 2.60768
515 2.23029
520 1.83861
525 1.77104
530 1.50671
535 1.40515
540 1.14054
545 1.01213
550 0.909371
555 0.644443
560 0.618156
565 0.532737
570 0.525517
575 0.391153
580 0.316704
585 0.304354
590 0.308078
595 0.248835
600 0.0283165
Ex : 358
200 0.070954
205 0.0428472
210 0.0719801
215 0.0406379
220 0.0625143
225 0.0762711
230 0.110419
235 0.0900772
240 0.116976
245 0.0879666
250 0.126426
255 0.0865197
260 0.157415
265 0.0882952
270 0.102266
275 0.0474961
280 0.0702052
285 0.0864808
290 0.155261
295 0.0907361
300 0.0579599
305 0.0834263
310 0.0821755
315 0.0953053
320 0.0563522
325 0.118783
330 0.1161
335 0.192229
340 0.423249
345 15.2877
350 253.818
355 390.471
360 98.0369
365 12.7229
370 2.96164
375 2.08354
380 2.56499
385 5.30395
390 10.2418
395 15.9576
400 14.6687
405 12.4246
410 13.1373
415 14.8758
420 14.5878
425 12.1971
430 11.1836
435 11.0863
440 11.0859
445 10.2199
450 9.31106
455 8.58067
460 7.48777
465 7.23846
470 6.59486
475 6.21526
480 5.30697
485 4.549
490 4.38332
495 3.79906
500 3.64611
505 3.01481
510 2.72456
515 2.48308
520 2.19138
525 1.8805
530 1.5521
535 1.28005
540 1.1095
545 1.05522
550 0.904543
555 0.76835
560 0.646787
565 0.578743
570 0.426379
575 0.383975
580 0.340146
585 0.251779
590 0.247941
595 0.27038
600 0.0307682
Ex : 363
200 0.0255474
205 0.0450575
210 0.0278967
215 0.0660596
220 0.0940586
225 0.0640613
230 0.0566825
235 0.117794
240 0.0734915
245 0.0550275
250 0.0855176
255 0.0609822
260 0.108785
265 0.0531559
270 0.0401215
275 0.0534611
280 0.0455779
285 0.0911624
290 0.0474178
295 0.0304443
300 0.0673653
305 0.092904
310 0.0608095
315 0.0954982
320 0.0793217
325 0.112637
330 0.155066
335 0.163145
340 0.148292
345 0.34711
350 14.78
355 249.883
360 392.749
365 103.05
370 13.2283
375 3.16448
380 4.07709
385 7.20106
390 10.6608
395 12.3155
400 14.8323
405 15.8657
410 16.415
415 16.3507
420 15.5346
425 13.6476
430 12.0911
435 12.2009
440 12.4813
445 11.1198
450 10.1844
455 9.10291
460 8.14275
465 7.40832
470 7.08254
475 6.37257
480 5.8456
485 5.06262
490 4.68596
495 4.35209
500 3.85447
505 3.35068
510 2.74566
515 2.62366
520 2.31346
525 2.03672
530 1.75191
535 1.57104
540 1.57774
545 1.22843
550 1.07172
555 0.825584
560 0.741915
565 0.607427
570 0.574033
575 0.399958
580 0.354046
585 0.310651
590 0.240985
595 0.191363
600 0.325996
Ex : 368
200 0.12561
205 0.0617604
210 0.077991
215 0.0742055
220 0.0482958
225 0.0836141
230 0.108825
235 0.0438304
240 0.0598723
245 0.060892
250 0.0692644
255 0.0666337
260 0.0654724
265 0.0829518
270 0.0959177
275 0.0644191
280 0.0788703
285 0.0925124
290 0.0368572
295 0.0847761
300 0.102392
305 0.111291
310 0.0875438
315 0.0873765
320 0.112545
325 0.0460572
330 0.0817071
335 0.170945
340 0.15321
345 0.212388
350 0.347569
355 12.2635
360 244.869
365 406.691
370 109.835
375 14.3836
380 5.25205
385 8.84706
390 13.6792
395 15.0423
400 14.2919
405 17.6107
410 22.1804
415 22.2044
420 20.6562
425 16.8579
430 15.0064
435 15.0426
440 15.097
445 14.0217
450 12.6706
455 11.0322
460 9.92035
465 8.95993
470 8.8989
475 7.7017
480 6.83945
485 6.17662
490 5.52477
495 4.92149
500 4.05212
505 3.71681
510 3.34864
515 2.95379
520 2.45709
525 2.0719
530 1.78368
535 1.66692
540 1.5218
545 1.22581
550 0.969924
555 1.01115
560 0.775195
565 0.58335
570 0.639126
575 0.434077
580 0.435192
585 0.300986
590 0.292974
595 0.250351
600 0.980035
Ex : 373
200 0.0203509
205 0.0455747
210 0.0378437
215 0.0457456
220 0.071865
225 0.050281
230 0.0709604
235 0.0326557
240 0.0387333
245 0.0664354
250 0.0513129
255 0.0297857
260 0.144269
265 0.0715453
270 0.0674135
275 0.0523954
280 0.07453
285 0.0509192
290 0.104006
295 0.0830054
300 0.0463514
305 0.0523993
310 0.0572956
315 0.0848236
320 0.143447
325 0.126288
330 0.0954689
335 0.0974652
340 0.0874528
345 0.212436
350 0.249149
355 0.453667
360 14.1296
365 245.255
370 401.246
375 107.601
380 15.1283
385 7.70049
390 13.1122
395 16.1859
400 14.6694
405 13.7674
410 18.1939
415 23.6144
420 22.7489
425 18.42
430 15.6553
435 14.5592
440 14.6797
445 14.1242
450 12.5212
455 11.0712
460 9.45139
465 8.60646
470 8.43377
475 7.58792
480 6.84992
485 5.75566
490 4.96664
495 4.75386
500 4.20123
505 3.54184
510 3.37711
515 2.97972
520 2.51223
525 2.0784
530 1.78858
535 1.73444
540 1.5258
545 1.22554
550 1.17075
555 1.00692
560 0.677866
565 0.662287
570 0.519445
575 0.477023
580 0.400285
585 0.318687
590 0.267761
595 0.170173
600 0.17416
Ex : 378
200 0.0657467
205 0.106765
210 0.0810013
215 0.0723233
220 0.0844617
225 0.0742561
230 0.0632259
235 0.0335099
240 0.0279673
245 0.0839786
250 0.0725421
255 0.0723433
260 0.154523
265 0.0778073
270 0.0400307
275 0.0703204
280 0.0412085
285 0.0569068
290 0.0224172
295 0.0289
300 0.0983922
305 0.0612765
310 0.0744197
315 0.0774488
320 0.0840256
325 0.0803988
330 0.0887869
335 0.0718293
340 0.0699694
345 0.137964
350 0.133615
355 0.264138
360 0.344953
365 13.3365
370 247.574
375 408.951
380 111.787
385 17.6201
390 10.7165
395 12.2485
400 11.42
405 10.787
410 12.4082
415 15.7086
420 18.1496
425 15.8894
430 12.9368
435 11.7763
440 11.5962
445 11.2746
450 10.435
455 8.94365
460 7.99975
465 7.43813
470 6.86369
475 6.30114
480 5.90095
485 5.56346
490 4.74337
495 4.38452
500 3.8546
505 3.44613
510 2.99694
515 2.71447
520 2.17895
525 1.92951
530 1.84494
535 1.59792
540 1.4714
545 1.31231
550 0.977879
555 0.780951
560 0.829789
565 0.642374
570 0.47836
575 0.401569
580 0.256769
585 0.174643
590 0.220421
595 0.22597
600 0.0257145
Ex : 383
200 0.044843
205 0.11801
210 0.0545064
215 0.0637775
220 0.0476995
225 0.0693731
230 0.0514435
235 0.0179516
240 0.127778
245 0.0613022
250 0.055008
255 0.108902
260 0.0656553
265 0.040752
270 0.0627123
275 0.0562771
280 0.0481423
285 0.0451517
290 0.0516173
295 0.0646927
300 0.0648632
305 0.0466508
310 0.0565628
315 0.0625891
320 0.109261
325 0.113617
330 0.0750996
335 0.0771462
340 0.109066
345 0.167889
350 0.171519
355 0.147397
360 0.254525
365 0.298339
370 12.7155
375 248.711
380 431.912
385 123.035
390 22.8956
395 11.7444
400 10.2262
405 11.0066
410 13.153
415 14.2325
420 14.3027
425 14.8254
430 14.7681
435 13.0748
440 12.7628
445 11.4182
450 10.1348
455 8.71308
460 8.43397
465 7.60752
470 7.13362
475 6.85894
480 5.93733
485 5.08268
490 5.01811
495 4.44695
500 4.06708
505 3.59823
510 3.0535
515 2.89796
520 2.45953
525 2.20658
530 1.86123
535 1.76694
540 1.49941
545 1.27497
550 1.10077
555 0.904195
560 0.868312
565 0.745842
570 0.478835
575 0.347599
580 0.340616
585 0.263633
590 0.204714
595 0.23827
600 0.0271142
Ex : 388
200 0.0633644
205 0.126664
210 0.0390887
215 0.0408102
220 0.045654
225 0.0479613
230 0.0323889
235 0.0520095
240 0.0592488
245 0.0651034
250 0.0606099
255 0.0508839
260 0.0403501
265 0.132511
270 0.091176
275 0.185298
280 0.0566564
285 0.0538534
290 0.108872
295 0.100508
300 0.111986
305 0.0733051
310 0.075409
315 0.105655
320 0.114222
325 0.0614478
330 0.0731793
335 0.0934897
340 0.0741685
345 0.0995691
350 0.0941345
355 0.129256
360 0.120449
365 0.176288
370 0.407684
375 14.1397
380 257.621
385 437.529
390 127.058
395 26.508
400 13.5637
405 13.105
410 16.1451
415 17.525
420 17.0243
425 14.9311
430 15.5097
435 16.2619
440 15.3103
445 13.7738
450 12.1283
455 9.83922
460 8.99383
465 8.34857
470 8.11562
475 7.03945
480 6.76494
485 6.11954
490 5.39571
495 4.94993
500 4.4893
505 3.83706
510 3.38899
515 2.84108
520 2.53083
525 2.31442
530 1.96629
535 1.79195
540 1.48105
545 1.36415
550 1.12826
555 1.03071
560 0.833481
565 0.690524
570 0.674714
575 0.447254
580 0.317087
585 0.287463
590 0.290288
595 0.169354
600 0.0192719
Ex : 393
200 0.0620122
205 0.0843132
210 0.0441021
215 0.0425255
220 0.0417835
225 0.0801975
230 0.0502522
235 0.0430684
240 0.0504121
245 0.0328763
250 0.0240295
255 0.0486751
260 0.0562185
265 0.0924976
270 0.0786837
275 0.0923207
280 0.0621308
285 0.120808
290 0.0470595
295 0.0375473
300 0.0610807
305 0.0532576
310 0.101784
315 0.0490418
320 0.0778707
325 0.0756549
330 0.064466
335 0.0990753
340 0.072313
345 0.0710411
350 0.0970491
355 0.108542
360 0.0654123
365 0.123181
370 0.169237
375 0.493426
380 13.0477
385 256.704
390 445.354
395 131.499
400 26.7513
405 13.4814
410 14.8928
415 18.2955
420 18.0975
425 15.4254
430 13.0752
435 14.1445
440 16.2666
445 14.889
450 12.8038
455 10.6214
460 8.71921
465 7.98322
470 7.63245
475 7.17205
480 6.52938
485 5.46748
490 5.13142
495 4.32755
500 4.27025
505 3.60119
510 3.05847
515 2.64976
520 2.63628
525 2.32101
530 2.02954
535 1.74637
540 1.42051
545 1.14286
550 0.986272
555 0.994785
560 0.904032
565 0.686619
570 0.557476
575 0.403136
580 0.376106
585 0.271549
590 0.228005
595 0.16062
600 0.0182779
Ex : 398
200 0.0448827
205 0.0621101
210 0.0674974
215 0.0859836
220 0.0406474
225 0.0549566
230 0.0818779
235 0.03276
240 0.0520796
245 0.0291282
250 0.0446192
255 0.067027
260 0.0589139
265 0.0520169
270 0.0795109
275 0.0769889
280 0.0994424
285 0.09241
290 0.0480547
295 0.0694496
300 0.0648279
305 0.061332
310 0.0548354
315 0.132965
320 0.0425637
325 0.0451223
330 0.050212
335 0.0369401
340 0.0822788
345 0.0653148
350 0.0910544
355 0.0733259
360 0.131137
365 0.0809037
370 0.187124
375 0.273167
380 0.580837
385 14.5461
390 268.412
395 460.457
400 129.294
405 21.3505
410 10.0837
415 11.1202
420 12.1123
425 9.81083
430 8.23364
435 7.72977
440 9.17906
445 11.2439
450 10.4506
455 8.30159
460 6.84344
465 5.94743
470 5.73426
475 5.09095
480 5.03892
485 4.6118
490 4.07789
495 3.84261
500 3.40393
505 2.93539
510 2.7887
515 2.57366
520 2.33129
525 1.81241
530 1.60093
535 1.46893
540 1.22728
545 1.25869
550 1.01781
555 0.925848
560 0.802049
565 0.642144
570 0.548101
575 0.374335
580 0.346835
585 0.301677
590 0.235933
595 0.163404
600 0.0185948
Ex : 403
200 0.0453806
205 0.0556104
210 0.0344096
215 0.0402791
220 0.113216
225 0.0747117
230 0.026128
235 0.0586028
240 0.0478145
245 0.0679501
250 0.0702726
255 0.0271729
260 0.0595638
265 0.108761
270 0.0823725
275 0.0972832
280 0.0795263
285 0.0958565
290 0.0581334
295 0.0626868
300 0.0554058
305 0.0430751
310 0.0602394
315 0.0663318
320 0.0647087
325 0.0511087
330 0.0606146
335 0.0862527
340 0.0689775
345 0.0880699
350 0.08892
355 0.0619952
360 0.0969184
365 0.110841
370 0.116048
375 0.119118
380 0.207809
385 0.586595
390 15.4933
395 270.753
400 455.879
405 126.724
410 18.4544
415 6.6901
420 5.77101
425 5.46509
430 4.82256
435 4.45391
440 4.86846
445 5.76889
450 7.38217
455 7.56405
460 6.04972
465 5.10446
470 4.50545
475 3.98109
480 3.97771
485 3.61425
490 3.61405
495 3.01316
500 2.90415
505 2.77602
510 2.59419
515 2.27832
520 2.06139
525 1.8477
530 1.80144
535 1.54168
540 1.30402
545 1.05713
550 1.03061
555 0.876541
560 0.782137
565 0.666076
570 0.496166
575 0.500476
580 0.392198
585 0.305751
590 0.198462
595 0.13032
600 0.01483
Ex : 408
200 0.0471836
205 0.0537748
210 0.0349101
215 0.0559831
220 0.0584788
225 0.052194
230 0.0516341
235 0.0920869
240 0.0528868
245 0.0696197
250 0.0714767
255 0.0590683
260 0.0590475
265 0.0610631
270 0.037515
275 0.0410857
280 0.0584308
285 0.0632893
290 0.0903564
295 0.0402714
300 0.0508797
305 0.0435406
310 0.0650462
315 0.0885527
320 0.0611803
325 0.0421272
330 0.0575967
335 0.0758071
340 0.0576149
345 0.0763546
350 0.0680971
355 0.106827
360 0.0735996
365 0.0738245
370 0.0629321
375 0.0835583
380 0.173524
385 0.220383
390 0.568555
395 14.326
400 282
405 469.125
410 125.449
415 18.0205
420 5.77916
425 4.32614
430 4.19274
435 4.1911
440 4.51106
445 4.74225
450 4.73271
455 6.36122
460 7.37611
465 5.86874
470 5.11857
475 4.45793
480 3.93963
485 3.68
490 3.36879
495 3.05545
500 3.07311
505 2.75713
510 2.41829
515 2.22201
520 1.95607
525 1.77942
530 1.51526
535 1.38286
540 1.23874
545 1.0925
550 1.11176
555 0.933465
560 0.700392
565 0.624791
570 0.526083
575 0.470968
580 0.319521
585 0.3059
590 0.162913
595 0.207165
600 0.0235746
Ex : 413
200 0.0509226
205 0.0370042
210 0.0357722
215 0.0332488
220 0.0229551
225 0.04688
230 0.11026
235 0.0631793
240 0.0260435
245 0.0426967
250 0.042283
255 0.0452317
260 0.0767704
265 0.0916375
270 0.0764024
275 0.0547327
280 0.0575707
285 0.0664837
290 0.0558845
295 0.0716066
300 0.0651822
305 0.0665451
310 0.120756
315 0.0728361
320 0.0542098
325 0.0545188
330 0.0524829
335 0.0562665
340 0.0327174
345 0.0904386
350 0.066008
355 0.0745383
360 0.0720261
365 0.118343
370 0.0869518
375 0.112729
380 0.131701
385 0.184294
390 0.310418
395 0.491666
400 16.3106
405 290.96
410 481.665
415 126.366
420 17.8707
425 5.14248
430 3.67456
435 4.11953
440 4.214
445 3.96217
450 3.79118
455 3.89784
460 4.65963
465 6.29064
470 5.59822
475 4.50809
480 3.88079
485 3.39967
490 3.24894
495 2.92144
500 2.70151
505 2.54617
510 2.28492
515 1.95701
520 1.86801
525 1.74769
530 1.54813
535 1.42452
540 1.29699
545 1.1534
550 1.0379
555 0.852346
560 0.751437
565 0.648332
570 0.529013
575 0.369896
580 0.284791
585 0.215027
590 0.168773
595 0.130043
600 0.097236
Ex : 418
200 0.0398718
205 0.050215
210 0.0326518
215 0.0624923
220 0.034514
225 0.047268
230 0.0471303
235 0.0639859
240 0.0675974
245 0.0511288
250 0.0416794
255 0.0687799
260 0.0398203
265 0.0407431
270 0.0454112
275 0.079204
280 0.0467926
285 0.055588
290 0.0492686
295 0.0399162
300 0.0371094
305 0.0264704
310 0.0350074
315 0.0954492
320 0.0722484
325 0.0788508
330 0.077234
335 0.0386602
340 0.0438391
345 0.123807
350 0.107893
355 0.0694681
360 0.11071
365 0.100525
370 0.0866631
375 0.0759401
380 0.126284
385 0.122669
390 0.157443
395 0.213225
400 0.512755
405 15.3876
410 292.292
415 490.825
420 131.879
425 17.2444
430 3.8378
435 2.50958
440 2.83309
445 2.99219
450 2.60711
455 2.34728
460 2.25506
465 3.0614
470 5.18334
475 5.19062
480 3.82967
485 3.22372
490 2.81186
495 2.44555
500 2.05245
505 2.18944
510 1.98507
515 1.86443
520 1.64721
525 1.60585
530 1.41911
535 1.18383
540 1.08074
545 0.933912
550 0.871681
555 0.740292
560 0.675371
565 0.618914
570 0.466276
575 0.371172
580 0.226255
585 0.183918
590 0.2292
595 0.141376
600 0.263875
Ex : 423
200 0.0510188
205 0.0554968
210 0.0502095
215 0.0348485
220 0.123075
225 0.0325589
230 0.0778621
235 0.0990147
240 0.0701124
245 0.0473484
250 0.0462375
255 0.0467862
260 0.0408055
265 0.0555476
270 0.0389579
275 0.0592221
280 0.0319801
285 0.0466104
290 0.0651949
295 0.0708728
300 0.130047
305 0.0553968
310 0.050185
315 0.0429622
320 0.0460137
325 0.113315
330 0.117756
335 0.0803775
340 0.0638292
345 0.0819358
350 0.0551212
355 0.0696571
360 0.0768506
365 0.0574295
370 0.0558538
375 0.0768146
380 0.0710004
385 0.08527
390 0.0771854
395 0.164345
400 0.330459
405 0.586889
410 16.5759
415 314.978
420 502.172
425 129.54
430 16.3029
435 3.16648
440 1.75089
445 1.85762
450 1.75909
455 1.53878
460 1.56886
465 1.71008
470 1.99131
475 3.79649
480 4.69651
485 3.20991
490 2.72238
495 2.34576
500 2.06931
505 1.72134
510 1.62632
515 1.42719
520 1.45755
525 1.34351
530 1.14034
535 1.07712
540 1.06379
545 0.931008
550 0.788381
555 0.688308
560 0.686412
565 0.609944
570 0.430143
575 0.355152
580 0.268
585 0.201394
590 0.154007
595 0.148106
600 0.0773752
Ex : 428
200 0.0680368
205 0.099504
210 0.0574685
215 0.0431228
220 0.0538827
225 0.0327425
230 0.0346624
235 0.0838139
240 0.0530566
245 0.0411111
250 0.0497479
255 0.0635894
260 0.0362839
265 0.0479927
270 0.0444882
275 0.0786473
280 0.0291552
285 0.0237545
290 0.0409876
295 0.0431825
300 0.0292537
305 0.0675507
310 0.0711494
315 0.0737386
320 0.058102
325 0.0840135
330 0.0780751
335 0.043818
340 0.112848
345 0.0471568
350 0.0552972
355 0.0714505
360 0.0921442
365 0.0613763
370 0.0546222
375 0.0615466
380 0.119457
385 0.0871843
390 0.118856
395 0.153025
400 0.173229
405 0.18365
410 0.476956
415 17.8285
420 319.218
425 510.34
430 134.2
435 16.6768
440 3.07017
445 1.47247
450 1.5434
455 1.58619
460 1.29626
465 1.26127
470 1.38372
475 1.55467
480 2.87888
485 4.36002
490 3.15371
495 2.4276
500 2.16808
505 1.70682
510 1.55
515 1.41159
520 1.37362
525 1.33124
530 1.17235
535 1.04575
540 0.893197
545 0.878252
550 0.770151
555 0.750399
560 0.559542
565 0.514575
570 0.509925
575 0.387842
580 0.267827
585 0.190696
590 0.157909
595 0.238208
600 0.0271071
Ex : 433
200 0.127842
205 0.0775218
210 0.0541769
215 0.0467801
220 0.0642138
225 0.035426
230 0.0332127
235 0.0738928
240 0.0432105
245 0.104063
250 0.0446828
255 0.0357958
260 0.0343448
265 0.104132
270 0.066736
275 0.0905328
280 0.0851395
285 0.0726596
290 0.0617672
295 0.0996173
300 0.0678962
305 0.0595958
310 0.0929326
315 0.0618722
320 0.0713512
325 0.0496414
330 0.112503
335 0.0513237
340 0.0572353
345 0.066246
350 0.0910686
355 0.0492673
360 0.0191363
365 0.0573113
370 0.0731456
375 0.0523445
380 0.121735
385 0.0808851
390 0.129782
395 0.13356
400 0.154355
405 0.195673
410 0.259881
415 0.409792
420 20.6287
425 347.474
430 526.26
435 133.149
440 16.5084
445 2.97515
450 1.42873
455 1.43998
460 1.37158
465 1.28853
470 1.17305
475 1.18709
480 1.46677
485 2.26624
490 4.01179
495 3.3573
500 2.48807
505 2.1479
510 1.69608
515 1.25294
520 1.05568
525 1.09435
530 1.14728
535 1.09389
540 0.949973
545 0.868825
550 0.774399
555 0.699146
560 0.631806
565 0.463152
570 0.497552
575 0.430375
580 0.244696
585 0.22875
590 0.143902
595 0.176577
600 1.42672
Ex : 438
200 0.0534087
205 0.0609878
210 0.0257608
215 0.0206371
220 0.0954391
225 0.0434142
230 0.048452
235 0.0772148
240 0.045429
245 0.0516046
250 0.044403
255 0.0416671
260 0.0722061
265 0.0586816
270 0.0484238
275 0.0332661
280 0.0679614
285 0.0508155
290 0.0315291
295 0.0364627
300 0.0815593
305 0.0790926
310 0.0615419
315 0.0687643
320 0.0507116
325 0.0476315
330 0.0475969
335 0.039539
340 0.0583174
345 0.0503523
350 0.0765527
355 0.0582804
360 0.0848452
365 0.0839641
370 0.0830425
375 0.0707916
380 0.0966124
385 0.079207
390 0.0859122
395 0.062488
400 0.10417
405 0.155809
410 0.183248
415 0.257526
420 0.524941
425 19.6587
430 350.871
435 570.166
440 143.287
445 17.7387
450 3.08499
455 1.32463
460 1.42628
465 1.58154
470 1.40346
475 1.11236
480 1.14263
485 1.25897
490 1.7556
495 3.24125
500 3.638
505 2.27684
510 1.90434
515 1.58649
520 1.364
525 1.2007
530 1.15558
535 0.998424
540 0.87641
545 0.828182
550 0.710338
555 0.621784
560 0.557402
565 0.539639
570 0.43833
575 0.311076
580 0.315565
585 0.267504
590 0.221284
595 0.114815
600 0.441397
Ex : 443
200 0.036822
205 0.06661
210 0.0487707
215 0.0357462
220 0.061991
225 0.0424483
230 0.0278915
235 0.0430201
240 0.0464119
245 0.0449857
250 0.0728823
255 0.0563636
260 0.034579
265 0.0387216
270 0.0452993
275 0.0427794
280 0.0566214
285 0.0554359
290 0.0445454
295 0.0617155
300 0.0537631
305 0.0528129
310 0.0643698
315 0.0644835
320 0.0926919
325 0.0548225
330 0.0514024
335 0.115756
340 0.121867
345 0.0389452
350 0.0260031
355 0.0696656
360 0.0478717
365 0.0649063
370 0.0751819
375 0.0867078
380 0.131528
385 0.0805123
390 0.0726504
395 0.0800502
400 0.124897
405 0.105728
410 0.162298
415 0.198639
420 0.255564
425 0.526525
430 22.8233
435 383.396
440 586.44
445 148.336
450 18.4064
455 3.1547
460 1.42656
465 1.48042
470 1.5871
475 1.32684
480 1.04053
485 1.07416
490 1.1761
495 1.43423
500 2.72133
505 3.43327
510 2.56956
515 1.85193
520 1.52479
525 1.31107
530 1.07798
535 1.0341
540 0.941804
545 0.868422
550 0.864165
555 0.637362
560 0.56259
565 0.497566
570 0.493223
575 0.323647
580 0.278625
585 0.292518
590 0.204282
595 0.115467
600 0.0896889
Ex : 448
200 0.0990525
205 0.0802934
210 0.0606531
215 0.0286214
220 0.0464795
225 0.0406376
230 0.0721577
235 0.0577586
240 0.10147
245 0.0730319
250 0.0547394
255 0.0621204
260 0.0461243
265 0.0623543
270 0.105523
275 0.0712827
280 0.0429388
285 0.129144
290 0.0741327
295 0.0323625
300 0.05034
305 0.113633
310 0.084591
315 0.0522001
320 0.0566778
325 0.0668533
330 0.0720471
335 0.0556217
340 0.0603603
345 0.0836839
350 0.11458
355 0.0908258
360 0.0613019
365 0.0947666
370 0.0827341
375 0.0422293
380 0.0492011
385 0.0861629
390 0.0762667
395 0.0792483
400 0.0995459
405 0.0912642
410 0.109143
415 0.142008
420 0.214147
425 0.28616
430 0.59385
435 23.6993
440 410.226
445 631.959
450 158.473
455 19.3292
460 3.42306
465 1.41694
470 1.27627
475 1.42135
480 1.32882
485 1.05428
490 0.991927
495 1.03911
500 1.20674
505 1.88899
510 3.41294
515 2.69075
520 1.83318
525 1.45816
530 1.2328
535 1.09702
540 0.945961
545 0.708928
550 0.663103
555 0.72647
560 0.499531
565 0.456112
570 0.443421
575 0.413644
580 0.293302
585 0.213109
590 0.193384
595 0.213489
600 0.170012
Ex : 453
200 0.0681033
205 0.0550266
210 0.0649116
215 0.0747574
220 0.0322768
225 0.0349912
230 0.0347528
235 0.0621568
240 0.0883007
245 0.0449746
250 0.0525571
255 0.0312393
260 0.0293654
265 0.0317953
270 0.0784089
275 0.100928
280 0.0936347
285 0.0920461
290 0.0689986
295 0.0453121
300 0.0472956
305 0.0315792
310 0.0615132
315 0.0722248
320 0.048443
325 0.0945229
330 0.0382392
335 0.044895
340 0.106558
345 0.116934
350 0.0885693
355 0.0816519
360 0.073771
365 0.046606
370 0.0804732
375 0.0562953
380 0.053716
385 0.070031
390 0.133212
395 0.102653
400 0.0669564
405 0.104219
410 0.0918089
415 0.160377
420 0.180602
425 0.23215
430 0.260585
435 0.494566
440 25.3138
445 451.261
450 661.362
455 156.732
460 19.3928
465 3.48209
470 1.35111
475 1.30286
480 1.55714
485 1.32556
490 1.0552
495 0.945132
500 1.04895
505 1.10651
510 1.5941
515 3.04884
520 2.88356
525 1.86195
530 1.5976
535 1.41009
540 1.07154
545 0.846516
550 0.79756
555 0.636957
560 0.673311
565 0.554769
570 0.499387
575 0.434763
580 0.299884
585 0.269918
590 0.208424
595 0.16743
600 0.375217
Ex : 458
200 0.11504
205 0.101621
210 0.050164
215 0.064364
220 0.034752
225 0.064439
230 0.0654791
235 0.0326781
240 0.0387686
245 0.040392
250 0.0354541
255 0.0969212
260 0.0620468
265 0.0895822
270 0.0599715
275 0.055359
280 0.0652553
285 0.0662652
290 0.0560012
295 0.0549831
300 0.058048
305 0.0719143
310 0.0503275
315 0.0729644
320 0.0597422
325 0.0517187
330 0.0944291
335 0.0595632
340 0.0764959
345 0.0757189
350 0.0883423
355 0.0505536
360 0.0845788
365 0.0375846
370 0.0754985
375 0.074838
380 0.0853866
385 0.0590237
390 0.0740873
395 0.0940001
400 0.081374
405 0.0856951
410 0.105882
415 0.137671
420 0.161673
425 0.206483
430 0.185728
435 0.304548
440 0.603376
445 28.7886
450 468.58
455 706.389
460 171.313
465 21.1257
470 3.65735
475 1.40866
480 1.25166
485 1.47243
490 1.49441
495 1.14648
500 0.964857
505 0.880089
510 0.934229
515 1.19814
520 2.34248
525 3.01773
530 2.0064
535 1.41504
540 1.29725
545 0.998098
550 0.752421
555 0.738077
560 0.55579
565 0.570592
570 0.38025
575 0.346064
580 0.342656
585 0.284304
590 0.284646
595 0.202006
600 0.269962
Ex : 463
200 0.0531761
205 0.0402629
210 0.0415367
215 0.0538012
220 0.0371889
225 0.0595954
230 0.0316494
235 0.0869564
240 0.0555378
245 0.0607473
250 0.0507368
255 0.0782081
260 0.0750325
265 0.0707429
270 0.0661748
275 0.0439729
280 0.0427821
285 0.0592459
290 0.0956879
295 0.0584464
300 0.0355038
305 0.0716809
310 0.064573
315 0.0574493
320 0.0628106
325 0.0925781
330 0.0932936
335 0.100439
340 0.0789486
345 0.0431611
350 0.0919164
355 0.0623104
360 0.0885494
365 0.0671565
370 0.0609116
375 0.0785302
380 0.054779
385 0.0716893
390 0.0472418
395 0.115459
400 0.108047
405 0.102748
410 0.0973811
415 0.064787
420 0.0903809
425 0.138703
430 0.194002
435 0.183565
440 0.388103
445 0.599105
450 27.8608
455 497.233
460 767.569
465 185.41
470 22.7098
475 3.7653
480 1.41685
485 1.09844
490 1.27282
495 1.26858
500 1.12655
505 0.968528
510 0.913562
515 0.950413
520 1.08721
525 1.79912
530 2.8713
535 2.39792
540 1.47939
545 1.28284
550 1.07224
555 0.931101
560 0.717215
565 0.641745
570 0.489544
575 0.348617
580 0.364195
585 0.260168
590 0.289127
595 0.234625
600 0.0701941
Ex : 468
200 0.10167
205 0.0352958
210 0.0365702
215 0.0415546
220 0.0386365
225 0.0951251
230 0.0659893
235 0.0556782
240 0.0202878
245 0.0481418
250 0.0482302
255 0.0530029
260 0.055993
265 0.0753013
270 0.0537646
275 0.0800072
280 0.0704428
285 0.0918964
290 0.0632986
295 0.06984
300 0.0582286
305 0.0696737
310 0.0660783
315 0.0895079
320 0.0392453
325 0.0321798
330 0.0485842
335 0.0329371
340 0.0555231
345 0.0722463
350 0.07652
355 0.0455482
360 0.0490237
365 0.0394241
370 0.0535108
375 0.0456215
380 0.0641597
385 0.0824041
390 0.0816707
395 0.0547774
400 0.0813148
405 0.0718287
410 0.0802845
415 0.128429
420 0.120128
425 0.124802
430 0.108508
435 0.177482
440 0.201706
445 0.35921
450 0.613732
455 32.3281
460 514.593
465 809.434
470 194.575
475 23.6688
480 3.9142
485 1.33278
490 1.11521
495 1.28144
500 1.32285
505 1.1002
510 0.863307
515 0.899002
520 1.03961
525 0.994461
530 1.39015
535 2.52017
540 2.66775
545 1.67349
550 1.23154
555 1.009
560 0.864293
565 0.593586
570 0.531159
575 0.456896
580 0.35465
585 0.284483
590 0.250554
595 0.226945
600 0.157916
Ex : 473
200 0.0521308
205 0.0970356
210 0.068565
215 0.0624238
220 0.0317838
225 0.0659136
230 0.053827
235 0.0590092
240 0.0496397
245 0.0431114
250 0.0468633
255 0.0457044
260 0.0533301
265 0.0344278
270 0.0364412
275 0.0410132
280 0.0555018
285 0.0361058
290 0.0373714
295 0.0489249
300 0.0361812
305 0.0706926
310 0.117962
315 0.0674286
320 0.0714181
325 0.0424956
330 0.0502696
335 0.075037
340 0.0613097
345 0.04701
350 0.0968417
355 0.0510325
360 0.0503145
365 0.0498261
370 0.0556952
375 0.0722342
380 0.0660761
385 0.0743065
390 0.0436207
395 0.057576
400 0.0594257
405 0.119669
410 0.0756227
415 0.084628
420 0.0866005
425 0.125332
430 0.111982
435 0.148233
440 0.183085
445 0.191878
450 0.39925
455 0.780284
460 37.5221
465 571.065
470 796.72
475 183.532
480 22.3613
485 3.66585
490 1.43015
495 1.05911
500 1.22243
505 1.27088
510 1.00608
515 0.921035
520 0.826845
525 0.859903
530 0.959204
535 1.25376
540 2.12112
545 2.69539
550 1.67679
555 1.08943
560 0.888246
565 0.726512
570 0.565701
575 0.402855
580 0.381423
585 0.329849
590 0.272763
595 0.262681
600 0.0720923
Ex : 478
200 0.0628456
205 0.0922874
210 0.0575235
215 0.0879837
220 0.0432514
225 0.0437408
230 0.0337831
235 0.113278
240 0.0660317
245 0.0686419
250 0.0897329
255 0.107856
260 0.0944259
265 0.0705454
270 0.0604881
275 0.0583714
280 0.0655743
285 0.0568864
290 0.0732115
295 0.0589991
300 0.0762783
305 0.0632319
310 0.0571435
315 0.0788625
320 0.063706
325 0.0565079
330 0.0507857
335 0.0464582
340 0.0571068
345 0.0960231
350 0.0816857
355 0.0964267
360 0.065165
365 0.0766654
370 0.0689386
375 0.0665864
380 0.0979516
385 0.061931
390 0.0820346
395 0.101485
400 0.119069
405 0.161572
410 0.0880351
415 0.102171
420 0.117683
425 0.136859
430 0.0844726
435 0.0847614
440 0.155996
445 0.209191
450 0.308277
455 0.430219
460 0.871207
465 40.1947
470 584.413
475 817.854
480 195.237
485 23.8261
490 3.89737
495 1.31346
500 0.978225
505 1.1789
510 1.02586
515 1.05346
520 0.990125
525 1.01439
530 0.939168
535 0.847585
540 0.814135
545 1.41143
550 2.27523
555 1.83877
560 1.23151
565 0.964712
570 0.748535
575 0.484308
580 0.366028
585 0.293972
590 0.280064
595 0.261362
600 0.0389733
Ex : 483
200 0.0414559
205 0.0948099
210 0.070538
215 0.0891132
220 0.0646537
225 0.0729829
230 0.0367527
235 0.0461965
240 0.0908763
245 0.110231
250 0.0670783
255 0.0391565
260 0.124301
265 0.0503799
270 0.0528078
275 0.101417
280 0.0982732
285 0.0980571
290 0.0892534
295 0.073172
300 0.0498455
305 0.0592271
310 0.127444
315 0.093497
320 0.0416417
325 0.0797019
330 0.0658912
335 0.0774889
340 0.0728462
345 0.0655092
350 0.0925374
355 0.0932922
360 0.0917591
365 0.0634657
370 0.0625085
375 0.10416
380 0.0676529
385 0.0621263
390 0.0986143
395 0.0902854
400 0.109729
405 0.0697541
410 0.0847152
415 0.0889612
420 0.12788
425 0.147224
430 0.129663
435 0.138943
440 0.160082
445 0.141928
450 0.276834
455 0.301752
460 0.407701
465 1.07217
470 32.7347
475 585.125
480 892.787
485 212.457
490 25.6391
495 3.90634
500 1.25615
505 0.874924
510 1.02146
515 1.13959
520 1.04444
525 0.934909
530 0.97517
535 0.836788
540 0.907024
545 0.750843
550 1.1482
555 1.9816
560 2.00669
565 1.31626
570 0.844997
575 0.676054
580 0.492622
585 0.277573
590 0.289744
595 0.270107
600 0.376573
Ex : 488
200 0.034905
205 0.0376686
210 0.119871
215 0.0803532
220 0.0671039
225 0.0589751
230 0.0543097
235 0.0612057
240 0.0738421
245 0.037508
250 0.049917
255 0.0701671
260 0.0966051
265 0.08697
270 0.0559882
275 0.0643548
280 0.0748888
285 0.085686
290 0.0684785
295 0.105672
300 0.131846
305 0.0713145
310 0.103599
315 0.100344
320 0.0710154
325 0.0824947
330 0.0712196
335 0.118143
340 0.0787478
345 0.113752
350 0.110387
355 0.0815783
360 0.0819256
365 0.0715226
370 0.0654553
375 0.0717685
380 0.0862078
385 0.123405
390 0.0790683
395 0.0998883
400 0.128778
405 0.116262
410 0.117576
415 0.109948
420 0.0851874
425 0.0834902
430 0.171618
435 0.130397
440 0.0722838
445 0.120953
450 0.215374
455 0.281301
460 0.331411
465 0.591397
470 1.01408
475 40.1766
480 640.173
485 902.383
490 211.634
495 25.5696
500 3.99006
505 1.33163
510 0.894016
515 1.0388
520 1.27324
525 1.14198
530 1.08929
535 0.942555
540 0.816141
545 0.85085
550 0.794456
555 0.839268
560 1.52605
565 1.97313
570 1.3296
575 0.730666
580 0.564958
585 0.398556
590 0.312356
595 0.229881
600 1.28925
Ex : 493
200 0.0856115
205 0.0572017
210 0.043217
215 0.0988081
220 0.0688158
225 0.0696142
230 0.0820425
235 0.0529569
240 0.0801373
245 0.0850498
250 0.140738
255 0.0982995
260 0.0928461
265 0.0883676
270 0.0495605
275 0.0707045
280 0.0603744
285 0.0687507
290 0.134756
295 0.0651822
300 0.0732894
305 0.0660087
310 0.0459863
315 0.0846658
320 0.0618068
325 0.0537224
330 0.109268
335 0.0699047
340 0.0853793
345 0.102422
350 0.119489
355 0.085419
360 0.101341
365 0.0681615
370 0.0801277
375 0.0626176
380 0.0830629
385 0.118784
390 0.0979252
395 0.0592665
400 0.0642544
405 0.107105
410 0.130504
415 0.12021
420 0.0909192
425 0.0699209
430 0.138214
435 0.157868
440 0.122148
445 0.130109
450 0.165729
455 0.20217
460 0.230041
465 0.394974
470 0.485416
475 0.935861
480 36.7104
485 635.818
490 952.437
495 217.356
500 26.0975
505 3.97087
510 1.2914
515 0.833239
520 1.0386
525 1.16192
530 1.1159
535 0.996261
540 0.801167
545 0.705912
550 0.642319
555 0.562806
560 0.663225
565 0.970151
570 1.59043
575 1.22156
580 0.63113
585 0.451862
590 0.409501
595 0.349143
600 0.0564519
Ex : 498
200 0.111232
205 0.0809297
210 0.0748903
215 0.0543069
220 0.0601312
225 0.129377
230 0.0532804
235 0.0594521
240 0.0639198
245 0.11347
250 0.16812
255 0.131253
260 0.114361
265 0.0867903
270 0.0843161
275 0.0830543
280 0.106476
285 0.119003
290 0.108955
295 0.0706119
300 0.0958773
305 0.0597257
310 0.0775081
315 0.199337
320 0.122789
325 0.0971376
330 0.0715803
335 0.0594797
340 0.0842625
345 0.0781482
350 0.105216
355 0.104613
360 0.130024
365 0.0962013
370 0.144615
375 0.0812208
380 0.0993007
385 0.0811447
390 0.0960957
395 0.0936774
400 0.104238
405 0.0791125
410 0.10621
415 0.0672128
420 0.107439
425 0.123336
430 0.125481
435 0.157794
440 0.14212
445 0.152355
450 0.148006
455 0.187841
460 0.188878
465 0.28179
470 0.268993
475 0.49894
480 1.0635
485 45.3844
490 677.333
495 928.383
500 215.764
505 25.929
510 3.99042
515 1.34677
520 1.03857
525 0.955594
530 1.19466
535 1.05554
540 0.935321
545 0.793206
550 0.619899
555 0.585872
560 0.524381
565 0.603675
570 0.513393
575 1.16175
580 1.09311
585 0.569578
590 0.397231
595 0.359213
600 0.048293
Ex : 503
200 0.0514286
205 0.0596754
210 0.102516
215 0.0892681
220 0.0765625
225 0.0960269
230 0.0622811
235 0.0695266
240 0.112426
245 0.0416385
250 0.0903151
255 0.0823404
260 0.0714919
265 0.077379
270 0.0969569
275 0.0850552
280 0.0782671
285 0.0892647
290 0.0588743
295 0.0983565
300 0.0508173
305 0.0910055
310 0.114383
315 0.0784751
320 0.150083
325 0.0914207
330 0.104578
335 0.133928
340 0.0662991
345 0.0686137
350 0.0657804
355 0.105285
360 0.0788113
365 0.191461
370 0.154058
375 0.107092
380 0.156686
385 0.157575
390 0.154668
395 0.113576
400 0.107321
405 0.135367
410 0.163324
415 0.126726
420 0.110584
425 0.110667
430 0.149729
435 0.116854
440 0.115454
445 0.132847
450 0.195283
455 0.113178
460 0.179124
465 0.269599
470 0.277113
475 0.372332
480 0.620777
485 0.98633
490 41.5221
495 679.747
500 959.987
505 219.534
510 26.4449
515 3.95011
520 1.48953
525 1.19491
530 1.05232
535 1.0998
540 0.89886
545 0.965835
550 0.680733
555 0.708233
560 0.590929
565 0.522125
570 0.431296
575 0.535761
580 0.68324
585 0.924633
590 0.543693
595 0.323044
600 0.0367612
Ex : 508
200 0.10433
205 0.0755616
210 0.0634124
215 0.0420451
220 0.0917781
225 0.105214
230 0.136289
235 0.0872717
240 0.0541151
245 0.0336237
250 0.0883334
255 0.0610879
260 0.102237
265 0.0678718
270 0.12176
275 0.132808
280 0.119498
285 0.0870295
290 0.0579193
295 0.0835174
300 0.0975027
305 0.0635623
310 0.09785
315 0.0588387
320 0.0910178
325 0.12991
330 0.088715
335 0.0905715
340 0.11456
345 0.109537
350 0.0606092
355 0.0971972
360 0.124127
365 0.152106
370 0.120988
375 0.128295
380 0.10038
385 0.0831908
390 0.0998051
395 0.1103
400 0.0872906
405 0.0867048
410 0.148621
415 0.105659
420 0.153502
425 0.109605
430 0.125938
435 0.106998
440 0.120379
445 0.141443
450 0.11319
455 0.159756
460 0.174614
465 0.195598
470 0.202679
475 0.233885
480 0.404449
485 0.616025
490 0.930868
495 45.2616
500 694.343
505 968.527
510 233.854
515 28.178
520 4.30217
525 1.49445
530 0.997433
535 0.911474
540 0.958231
545 0.873186
550 0.766515
555 0.782651
560 0.570192
565 0.49796
570 0.462044
575 0.325219
580 0.464751
585 0.521141
590 0.662763
595 0.5725
600 0.575634
Ex : 513
200 0.0806003
205 0.146794
210 0.106134
215 0.124244
220 0.0977744
225 0.0655398
230 0.0478675
235 0.0604803
240 0.092006
245 0.132092
250 0.137818
255 0.0941862
260 0.0877619
265 0.116639
270 0.0834931
275 0.0784723
280 0.0352655
285 0.0982139
290 0.0724766
295 0.117967
300 0.0941778
305 0.0437304
310 0.107292
315 0.143739
320 0.0683574
325 0.0806558
330 0.0863438
335 0.0849158
340 0.0609418
345 0.107341
350 0.126063
355 0.155457
360 0.109436
365 0.0779462
370 0.101463
375 0.14397
380 0.162287
385 0.0898091
390 0.11417
395 0.127174
400 0.111158
405 0.13394
410 0.0936732
415 0.122077
420 0.0795551
425 0.103896
430 0.14122
435 0.106723
440 0.163739
445 0.136083
450 0.122324
455 0.119869
460 0.204552
465 0.179649
470 0.170029
475 0.257785
480 0.24198
485 0.319981
490 0.643805
495 1.04403
500 41.3159
505 685.568
510 990.353
515 241.908
520 29.0142
525 4.38911
530 1.48462
535 0.923616
540 0.791079
545 0.758215
550 0.72629
555 0.843878
560 0.617962
565 0.604704
570 0.430328
575 0.408285
580 0.418725
585 0.383572
590 0.356701
595 0.413562
600 0.225967
Ex : 518
200 0.0653798
205 0.0774572
210 0.110092
215 0.0870762
220 0.0672419
225 0.034196
230 0.0838659
235 0.0526933
240 0.0762797
245 0.0479762
250 0.0684452
255 0.0990562
260 0.0800489
265 0.1282
270 0.093623
275 0.073522
280 0.0622587
285 0.106235
290 0.119839
295 0.0983044
300 0.0866452
305 0.134223
310 0.0457166
315 0.0666619
320 0.100364
325 0.0590169
330 0.122846
335 0.125061
340 0.139177
345 0.152335
350 0.141008
355 0.176598
360 0.102007
365 0.123881
370 0.0593806
375 0.0940303
380 0.148513
385 0.0901968
390 0.0870684
395 0.0802628
400 0.0762037
405 0.0838499
410 0.145873
415 0.143593
420 0.0640033
425 0.129557
430 0.0938888
435 0.119074
440 0.127318
445 0.187945
450 0.174792
455 0.174862
460 0.192737
465 0.245303
470 0.181388
475 0.232739
480 0.316853
485 0.231212
490 0.481389
495 0.564498
500 1.02986
505 43.017
510 671.979
515 990.302
520 242.427
525 29.2303
530 4.45539
535 1.45979
540 0.857024
545 0.778527
550 0.738374
555 0.727888
560 0.650976
565 0.525525
570 0.475313
575 0.38928
580 0.474221
585 0.381381
590 0.223681
595 0.244945
600 0.0278738
Ex : 523
200 0.0360052
205 0.0979962
210 0.0721236
215 0.0403927
220 0.0967423
225 0.0806061
230 0.134161
235 0.131198
240 0.0803331
245 0.0516878
250 0.143759
255 0.0812498
260 0.132978
265 0.114701
270 0.126628
275 0.0879715
280 0.101039
285 0.0969521
290 0.0884148
295 0.0580237
300 0.102076
305 0.143182
310 0.129399
315 0.0698742
320 0.0923216
325 0.0922706
330 0.0861646
335 0.098415
340 0.0989234
345 0.0876704
350 0.111672
355 0.101065
360 0.125155
365 0.0737932
370 0.0769243
375 0.0560799
380 0.0996829
385 0.147982
390 0.10394
395 0.085161
400 0.110089
405 0.137813
410 0.0961989
415 0.144801
420 0.177173
425 0.151428
430 0.158013
435 0.122035
440 0.151118
445 0.158136
450 0.137093
455 0.135369
460 0.148989
465 0.10349
470 0.267106
475 0.175263
480 0.192408
485 0.146705
490 0.259297
495 0.397518
500 0.520543
505 0.986017
510 38.3427
515 651.997
520 993.239
525 253.029
530 30.4679
535 4.33312
540 1.18909
545 0.787605
550 0.681895
555 0.665561
560 0.627259
565 0.648897
570 0.50768
575 0.33156
580 0.343994
585 0.2718
590 0.213266
595 0.250156
600 0.0284668
Ex : 528
200 0.0680405
205 0.176606
210 0.0855442
215 0.114199
220 0.0923683
225 0.0877806
230 0.0594831
235 0.120935
240 0.0551479
245 0.0828571
250 0.139798
255 0.0810929
260 0.122576
265 0.138183
270 0.0697959
275 0.0690937
280 0.0755625
285 0.0782633
290 0.146823
295 0.123445
300 0.0713518
305 0.0984973
310 0.108595
315 0.170577
320 0.119744
325 0.141397
330 0.0785253
335 0.173831
340 0.102323
345 0.0925963
350 0.152786
355 0.0665355
360 0.110361
365 0.136331
370 0.104102
375 0.126668
380 0.127795
385 0.0858263
390 0.0784385
395 0.111514
400 0.162805
405 0.108207
410 0.131451
415 0.116837
420 0.128152
425 0.139158
430 0.135132
435 0.195274
440 0.224944
445 0.10804
450 0.102402
455 0.208866
460 0.165901
465 0.105633
470 0.155145
475 0.170778
480 0.184999
485 0.250455
490 0.237834
495 0.251955
500 0.331615
505 0.478884
510 0.900806
515 36.3662
520 650.843
525 993.216
530 249.56
535 30.1226
540 4.34483
545 1.17191
550 0.735802
555 0.476475
560 0.499828
565 0.569669
570 0.478701
575 0.472454
580 0.306112
585 0.269245
590 0.208054
595 0.374589
600 0.181376
Ex : 533
200 0.0931043
205 0.123198
210 0.114211
215 0.158505
220 0.0809934
225 0.103314
230 0.103263
235 0.0601505
240 0.0666245
245 0.0516006
250 0.0841126
255 0.109831
260 0.194431
265 0.104681
270 0.0905217
275 0.215069
280 0.108906
285 0.0668062
290 0.149147
295 0.102918
300 0.0764332
305 0.138883
310 0.129803
315 0.0987343
320 0.0678828
325 0.0835384
330 0.103648
335 0.106098
340 0.0956078
345 0.0916788
350 0.11593
355 0.136367
360 0.12403
365 0.0713428
370 0.139841
375 0.121382
380 0.122698
385 0.0828782
390 0.11021
395 0.129524
400 0.117067
405 0.116452
410 0.147984
415 0.100472
420 0.0801121
425 0.165031
430 0.148373
435 0.215243
440 0.144036
445 0.152773
450 0.152474
455 0.240939
460 0.198316
465 0.135219
470 0.129964
475 0.11713
480 0.139754
485 0.102299
490 0.146798
495 0.249414
500 0.323335
505 0.300169
510 0.611192
515 0.775885
520 36.3437
525 627.559
530 1001.93
535 258.612
540 30.996
545 4.38423
550 1.18054
555 0.687266
560 0.514971
565 0.3902
570 0.418209
575 0.391864
580 0.321685
585 0.275721
590 0.329136
595 0.196836
600 0.0223992
Ex : 538
200 0.0925782
205 0.106288
210 0.106436
215 0.11
220 0.0939625
225 0.0664991
230 0.108073
235 0.0970386
240 0.105689
245 0.0817167
250 0.121002
255 0.119013
260 0.096567
265 0.161844
270 0.076667
275 0.0975527
280 0.073425
285 0.0420804
290 0.154758
295 0.0950071
300 0.101704
305 0.077433
310 0.174931
315 0.191631
320 0.120979
325 0.104123
330 0.186096
335 0.136524
340 0.149353
345 0.1554
350 0.1813
355 0.169588
360 0.115595
365 0.10402
370 0.100411
375 0.122159
380 0.0738864
385 0.137873
390 0.102101
395 0.0915005
400 0.135414
405 0.120196
410 0.0859831
415 0.14872
420 0.23119
425 0.179262
430 0.17238
435 0.221274
440 0.0659649
445 0.0948788
450 0.172912
455 0.107029
460 0.215138
465 0.209926
470 0.243563
475 0.147984
480 0.121548
485 0.145442
490 0.186672
495 0.143277
500 0.163543
505 0.25133
510 0.364563
515 0.513458
520 0.95247
525 31.1198
530 607.218
535 988.048
540 264.822
545 31.5991
550 4.28333
555 1.09191
560 0.551331
565 0.458818
570 0.371794
575 0.46854
580 0.412471
585 0.366904
590 0.306194
595 0.244758
600 0.662239
Ex : 543
200 0.129254
205 0.132094
210 0.100805
215 0.089171
220 0.0687844
225 0.0776574
230 0.0677896
235 0.108754
240 0.0713693
245 0.095254
250 0.104937
255 0.11121
260 0.124101
265 0.067292
270 0.147951
275 0.0931021
280 0.0826254
285 0.114764
290 0.117647
295 0.0721534
300 0.0875439
305 0.162416
310 0.223345
315 0.0921359
320 0.0986671
325 0.0847733
330 0.127265
335 0.0729484
340 0.0785448
345 0.160683
350 0.0864364
355 0.152355
360 0.0787645
365 0.114743
370 0.0891126
375 0.0559215
380 0.0715903
385 0.0877353
390 0.125591
395 0.179756
400 0.126596
405 0.11157
410 0.100676
415 0.13158
420 0.126105
425 0.157593
430 0.113089
435 0.183143
440 0.110113
445 0.189297
450 0.141749
455 0.118581
460 0.162119
465 0.129904
470 0.162918
475 0.166932
480 0.188677
485 0.195375
490 0.143855
495 0.104577
500 0.157844
505 0.20293
510 0.237215
515 0.270759
520 0.539231
525 0.709073
530 27.8146
535 587.352
540 1003.13
545 276.551
550 33.0415
555 4.40841
560 1.0182
565 0.594542
570 0.353838
575 0.392891
580 0.331506
585 0.247387
590 0.28019
595 0.29162
600 0.341863
Ex : 548
200 0.167576
205 0.125316
210 0.108675
215 0.163348
220 0.242187
225 0.155324
230 0.0879934
235 0.177429
240 0.0937864
245 0.0572253
250 0.107043
255 0.0906407
260 0.126236
265 0.0752512
270 0.087861
275 0.116309
280 0.0988673
285 0.116039
290 0.0720166
295 0.0713301
300 0.116911
305 0.16307
310 0.101308
315 0.0994658
320 0.190189
325 0.0817533
330 0.195146
335 0.137645
340 0.162576
345 0.100038
350 0.10211
355 0.0623017
360 0.0778013
365 0.107985
370 0.145505
375 0.163344
380 0.0774565
385 0.0887917
390 0.155
395 0.112227
400 0.172526
405 0.199289
410 0.118084
415 0.123422
420 0.132214
425 0.133328
430 0.210984
435 0.0980825
440 0.10134
445 0.0856888
450 0.107728
455 0.178277
460 0.10858
465 0.131906
470 0.100977
475 0.199588
480 0.209939
485 0.153528
490 0.166326
495 0.165771
500 0.174478
505 0.205495
510 0.295725
515 0.381682
520 0.361831
525 0.514722
530 0.746666
535 32.4529
540 591.709
545 983.479
550 271.36
555 32.2088
560 4.21212
565 0.913545
570 0.621796
575 0.408441
580 0.268975
585 0.299598
590 0.338414
595 0.268407
600 0.348143
Ex : 553
200 0.177281
205 0.173488
210 0.125936
215 0.136198
220 0.137029
225 0.128768
230 0.151876
235 0.0716835
240 0.143061
245 0.137234
250 0.136708
255 0.103676
260 0.0988627
265 0.0682384
270 0.125608
275 0.0753078
280 0.217612
285 0.140072
290 0.066891
295 0.0564145
300 0.10345
305 0.12878
310 0.140507
315 0.0801832
320 0.138059
325 0.0875107
330 0.193036
335 0.095463
340 0.133847
345 0.132334
350 0.0759816
355 0.0486653
360 0.0740374
365 0.071224
370 0.0834604
375 0.0842979
380 0.194439
385 0.12841
390 0.116178
395 0.0818525
400 0.0853176
405 0.11552
410 0.127889
415 0.0872197
420 0.0962836
425 0.130111
430 0.181049
435 0.121008
440 0.116183
445 0.095862
450 0.112598
455 0.0862763
460 0.155196
465 0.16052
470 0.139714
475 0.0944249
480 0.126124
485 0.145423
490 0.139009
495 0.212015
500 0.154259
505 0.133853
510 0.0955345
515 0.144354
520 0.28866
525 0.38738
530 0.563051
535 0.826141
540 28.1874
545 573.921
550 983.978
555 274.74
560 32.7873
565 4.37153
570 0.997049
575 0.590512
580 0.381187
585 0.257393
590 0.297098
595 0.275455
600 0.0678365
Ex : 558
200 0.198087
205 0.109779
210 0.0710908
215 0.137854
220 0.12907
225 0.169387
230 0.0925745
235 0.116396
240 0.081455
245 0.096218
250 0.0975951
255 0.109587
260 0.123617
265 0.122245
270 0.0539029
275 0.123941
280 0.110557
285 0.130958
290 0.181972
295 0.124837
300 0.0785534
305 0.0741771
310 0.107985
315 0.118194
320 0.118871
325 0.118619
330 0.179171
335 0.127659
340 0.152249
345 0.104557
350 0.171665
355 0.118074
360 0.10666
365 0.148109
370 0.0875116
375 0.135415
380 0.105609
385 0.135274
390 0.168904
395 0.13281
400 0.254164
405 0.136149
410 0.142315
415 0.109766
420 0.127796
425 0.101774
430 0.108786
435 0.0934725
440 0.126566
445 0.0704866
450 0.164463
455 0.113389
460 0.145344
465 0.229559
470 0.112813
475 0.149415
480 0.170912
485 0.151467
490 0.133733
495 0.153064
500 0.191178
505 0.153356
510 0.116901
515 0.196673
520 0.28389
525 0.218385
530 0.317031
535 0.540261
540 0.7847
545 25.4412
550 545.178
555 971.08
560 275.147
565 32.8985
570 4.29705
575 0.931767
580 0.569107
585 0.346125
590 0.27047
595 0.236347
600 0.2933
Ex : 563
200 0.0655492
205 0.121247
210 0.135557
215 0.137007
220 0.1262
225 0.131736
230 0.139116
235 0.06984
240 0.0598725
245 0.106838
250 0.138188
255 0.100406
260 0.126483
265 0.0943987
270 0.0721122
275 0.110609
280 0.0986638
285 0.116257
290 0.175441
295 0.0829014
300 0.145885
305 0.0990542
310 0.0738449
315 0.161105
320 0.154538
325 0.0844464
330 0.12131
335 0.148005
340 0.132809
345 0.215194
350 0.10515
355 0.136561
360 0.130272
365 0.166186
370 0.161077
375 0.0836728
380 0.143316
385 0.183951
390 0.243751
395 0.128156
400 0.171012
405 0.10607
410 0.132455
415 0.0737981
420 0.108693
425 0.111938
430 0.147965
435 0.0758471
440 0.13506
445 0.14949
450 0.141973
455 0.209879
460 0.220625
465 0.149483
470 0.111466
475 0.159607
480 0.111313
485 0.134547
490 0.219655
495 0.263286
500 0.107549
505 0.183401
510 0.116269
515 0.256052
520 0.234572
525 0.205428
530 0.23035
535 0.361551
540 0.545213
545 0.607051
550 26.2436
555 529.993
560 943.774
565 272.412
570 32.4351
575 4.27971
580 0.851685
585 0.478155
590 0.292698
595 0.276689
600 0.647976
Ex : 568
200 0.152537
205 0.0631465
210 0.102126
215 0.158218
220 0.149146
225 0.0884803
230 0.0851894
235 0.109323
240 0.189517
245 0.144394
250 0.121369
255 0.231338
260 0.123907
265 0.0998883
270 0.138889
275 0.105742
280 0.136025
285 0.121642
290 0.0578237
295 0.116667
300 0.0990201
305 0.117481
310 0.0913934
315 0.0989371
320 0.189106
325 0.146457
330 0.0860225
335 0.106486
340 0.0992581
345 0.089522
350 0.119831
355 0.0774275
360 0.106452
365 0.0733119
370 0.14272
375 0.0832079
380 0.158889
385 0.165121
390 0.0767931
395 0.155981
400 0.110905
405 0.0610041
410 0.0948618
415 0.141082
420 0.092972
425 0.175164
430 0.156609
435 0.156882
440 0.156198
445 0.121701
450 0.121335
455 0.124325
460 0.128196
465 0.13127
470 0.208347
475 0.220888
480 0.184403
485 0.138282
490 0.233272
495 0.172247
500 0.248981
505 0.175419
510 0.235148
515 0.215419
520 0.292625
525 0.187979
530 0.291266
535 0.268772
540 0.380211
545 0.381988
550 0.760878
555 20.4323
560 490.726
565 912.544
570 275.573
575 33.089
580 4.18307
585 0.896
590 0.413982
595 0.352362
600 0.457135
Ex : 573
200 0.0730934
205 0.0807649
210 0.274228
215 0.219907
220 0.0985209
225 0.165143
230 0.083856
235 0.144075
240 0.154019
245 0.0857072
250 0.0958172
255 0.147112
260 0.12925
265 0.164199
270 0.163826
275 0.255549
280 0.20652
285 0.152816
290 0.120778
295 0.194262
300 0.163371
305 0.109899
310 0.132993
315 0.0847563
320 0.103168
325 0.113049
330 0.0883348
335 0.0630379
340 0.0630627
345 0.163732
350 0.0796611
355 0.0736709
360 0.108727
365 0.078175
370 0.114325
375 0.197618
380 0.23274
385 0.159104
390 0.150048
395 0.106833
400 0.0801962
405 0.227524
410 0.151741
415 0.218735
420 0.0981618
425 0.0825149
430 0.104457
435 0.132585
440 0.20203
445 0.151594
450 0.156595
455 0.194862
460 0.122548
465 0.117496
470 0.0768227
475 0.234568
480 0.182855
485 0.184183
490 0.172352
495 0.175434
500 0.152344
505 0.180111
510 0.184839
515 0.142515
520 0.207299
525 0.202584
530 0.199725
535 0.277084
540 0.291797
545 0.312798
550 0.473803
555 0.670468
560 17.7245
565 432.55
570 872.5
575 269.285
580 32.1064
585 4.05549
590 0.717032
595 0.327293
600 0.338554
Ex : 578
200 0.0772845
205 0.167703
210 0.170401
215 0.137348
220 0.278257
225 0.1515
230 0.108906
235 0.181505
240 0.0976526
245 0.102252
250 0.0794009
255 0.100586
260 0.0761454
265 0.126223
270 0.150759
275 0.148832
280 0.116905
285 0.153093
290 0.0975088
295 0.113558
300 0.0866516
305 0.0997316
310 0.118007
315 0.0869762
320 0.0964563
325 0.122407
330 0.109522
335 0.164467
340 0.117507
345 0.0883403
350 0.0798441
355 0.157704
360 0.117905
365 0.156921
370 0.124815
375 0.0945153
380 0.161697
385 0.143603
390 0.109957
395 0.0842647
400 0.120874
405 0.129062
410 0.148091
415 0.127372
420 0.122554
425 0.141706
430 0.120901
435 0.131163
440 0.147784
445 0.10151
450 0.163135
455 0.17333
460 0.189053
465 0.199837
470 0.156328
475 0.160956
480 0.187068
485 0.159675
490 0.132243
495 0.122754
500 0.131847
505 0.166679
510 0.0950402
515 0.203278
520 0.194576
525 0.166262
530 0.134823
535 0.209675
540 0.265552
545 0.220888
550 0.26937
555 0.371087
560 0.600499
565 15.4964
570 386.049
575 761.364
580 232.284
585 27.6461
590 3.41308
595 0.626888
600 0.0713374
Ex : 583
200 0.147034
205 0.098289
210 0.129993
215 0.190597
220 0.175234
225 0.132703
230 0.0728081
235 0.0287868
240 0.0364899
245 0.0661195
250 0.117421
255 0.146278
260 0.0676924
265 0.0603312
270 0.0562815
275 0.100659
280 0.245501
285 0.10043
290 0.148458
295 0.0826663
300 0.0586407
305 0.0933181
310 0.0845565
315 0.0630975
320 0.0740466
325 0.0617216
330 0.125434
335 0.0570778
340 0.185928
345 0.144669
350 0.0863313
355 0.073423
360 0.159974
365 0.14313
370 0.093774
375 0.183275
380 0.0949678
385 0.140881
390 0.136633
395 0.125835
400 0.128915
405 0.171724
410 0.130599
415 0.124473
420 0.0844034
425 0.11213
430 0.104597
435 0.175457
440 0.110575
445 0.123884
450 0.252938
455 0.164456
460 0.112557
465 0.149056
470 0.0887717
475 0.0883007
480 0.202825
485 0.105933
490 0.12624
495 0.11063
500 0.115511
505 0.185039
510 0.174113
515 0.0977576
520 0.14336
525 0.270221
530 0.110629
535 0.172031
540 0.176504
545 0.278226
550 0.267134
555 0.335394
560 0.390787
565 0.498398
570 12.9954
575 348.796
580 662.785
585 194.921
590 23.0874
595 3.057
600 0.347875
Ex : 588
200 0.157303
205 0.126993
210 0.161792
215 0.134219
220 0.087295
225 0.155552
230 0.179028
235 0.0603378
240 0.0746438
245 0.118673
250 0.101476
255 0.0899235
260 0.0424389
265 0.192653
270 0.114204
275 0.131435
280 0.122296
285 0.19648
290 0.0923911
295 0.146853
300 0.121762
305 0.153913
310 0.144491
315 0.074161
320 0.0725876
325 0.148527
330 0.0813303
335 0.0988834
340 0.0683228
345 0.169113
350 0.109131
355 0.132689
360 0.137442
365 0.0761961
370 0.16276
375 0.200514
380 0.138732
385 0.0942451
390 0.0947786
395 0.153239
400 0.191107
405 0.120421
410 0.108429
415 0.244473
420 0.156009
425 0.141276
430 0.150364
435 0.111102
440 0.18564
445 0.109638
450 0.159384
455 0.10702
460 0.183822
465 0.132693
470 0.128423
475 0.12772
480 0.0600635
485 0.116563
490 0.178792
495 0.101889
500 0.12561
505 0.183937
510 0.140447
515 0.234522
520 0.20782
525 0.210389
530 0.130664
535 0.177138
540 0.175667
545 0.116866
550 0.114389
555 0.200939
560 0.272242
565 0.349128
570 0.451649
575 12.1705
580 292.731
585 566.872
590 173.764
595 20.673
600 2.88552
Ex : 593
200 0.111853
205 0.110232
210 0.117585
215 0.129408
220 0.0569187
225 0.131853
230 0.161944
235 0.0916726
240 0.120241
245 0.200286
250 0.203581
255 0.100501
260 0.113132
265 0.242106
270 0.148895
275 0.176419
280 0.0920517
285 0.0751427
290 0.219307
295 0.101303
300 0.108881
305 0.173911
310 0.157877
315 0.137924
320 0.0813879
325 0.146926
330 0.218189
335 0.153846
340 0.0637605
345 0.0947143
350 0.0928968
355 0.0628428
360 0.155417
365 0.119897
370 0.195743
375 0.247455
380 0.168213
385 0.0556849
390 0.121292
395 0.0844805
400 0.228147
405 0.139831
410 0.186021
415 0.136621
420 0.10945
425 0.169328
430 0.103128
435 0.177443
440 0.168615
445 0.168419
450 0.119405
455 0.116724
460 0.0998836
465 0.120428
470 0.161244
475 0.129387
480 0.0910845
485 0.182274
490 0.187361
495 0.0508718
500 0.10263
505 0.075597
510 0.141687
515 0.113709
520 0.138388
525 0.132924
530 0.24385
535 0.253949
540 0.132205
545 0.146764
550 0.135911
555 0.266778
560 0.158159
565 0.24907
570 0.2459
575 0.430568
580 10.0401
585 266.083
590 494.317
595 149.875
600 22.7283
Ex : 598
200 0.084797
205 0.0665571
210 0.106834
215 0.0917424
220 0.148204
225 0.111239
230 0.109149
235 0.114447
240 0.151583
245 0.182832
250 0.0837104
255 0.0859431
260 0.0634379
265 0.0850841
270 0.126696
275 0.186496
280 0.0952139
285 0.149039
290 0.113287
295 0.132681
300 0.119824
305 0.142112
310 0.135158
315 0.106299
320 0.0811207
325 0.0464454
330 0.106191
335 0.0519667
340 0.0737822
345 0.169983
350 0.13711
355 0.155467
360 0.118217
365 0.158135
370 0.167078
375 0.0909449
380 0.0933991
385 0.168619
390 0.0962126
395 0.0876426
400 0.122057
405 0.165106
410 0.164965
415 0.141636
420 0.120794
425 0.174582
430 0.195479
435 0.145244
440 0.1629
445 0.0972697
450 0.0783713
455 0.144116
460 0.106832
465 0.145544
470 0.283457
475 0.0968242
480 0.217522
485 0.268967
490 0.257856
495 0.150197
500 0.177298
505 0.119055
510 0.18007
515 0.110045
520 0.19166
525 0.0774197
530 0.0773985
535 0.159608
540 0.235196
545 0.0802742
550 0.0934705
555 0.145023
560 0.149679
565 0.195152
570 0.240392
575 0.276838
580 0.317408
585 9.68496
590 243.127
595 440.431
600 295.563
Ex : 603
200 0.107354
205 0.132117
210 0.146789
215 0.134486
220 0.130022
225 0.10442
230 0.102232
235 0.12335
240 0.0820171
245 0.147344
250 0.126173
255 0.0419421
260 0.127524
265 0.113566
270 0.119402
275 0.110386
280 0.0442179
285 0.101526
290 0.189041
295 0.134461
300 0.240864
305 0.103355
310 0.097574
315 0.0794088
320 0.143619
325 0.189826
330 0.104661
335 0.0787966
340 0.0899771
345 0.0693661
350 0.0924109
355 0.101068
360 0.0615642
365 0.113547
370 0.119378
375 0.101063
380 0.0747254
385 0.105617
390 0.165635
395 0.265924
400 0.13308
405 0.168393
410 0.208937
415 0.119111
420 0.146652
425 0.115586
430 0.26765
435 0.18468
440 0.100987
445 0.107018
450 0.104466
455 0.282653
460 0.149669
465 0.167476
470 0.181049
475 0.0786855
480 0.122071
485 0.172129
490 0.193877
495 0.148361
500 0.146336
505 0.137748
510 0.198912
515 0.110305
520 0.175425
525 0.176403
530 0.188196
535 0.148698
540 0.135199
545 0.0641396
550 0.139324
555 0.188579
560 0.25369
565 0.141627
570 0.311752
575 0.252405
580 0.293897
585 0.481262
590 9.14587
595 213.232
600 429.366
