File format V 1.0
jeu. 5. janv. 17:51:24 2017
Operator : 
Comments : 

=============================================
SpectroFluorometer parameters
Mode : 3D measurement
Data : Fluorescence
Phospho. : Ordinary
Spectrum : Fluorescence

Scan speed : 2400 nm/mn
Response : 100 ms
PM Voltage : 700 V
Shutter : On

Lambda Ex. Start : 203
Lambda Ex. End : 603
Lambda Ex. Step : 5
Ex. Slit : 5 nm

Lambda Em. Start : 200
Lambda Em. End : 600
Lambda Em. Step : 5
Em. Slit : 5 nm

Repetition : 1
Decal lambda em : 10
=============================================
DATA
Ex : 203
200 8.36842
205 4.25495
210 3.97978
215 4.01343
220 5.31757
225 4.22423
230 3.57223
235 3.56097
240 4.56561
245 6.10412
250 7.10256
255 4.60772
260 5.67901
265 5.2481
270 5.88405
275 3.02435
280 5.60894
285 4.50296
290 4.71621
295 4.9882
300 4.01971
305 6.20049
310 5.57473
315 4.43545
320 4.03868
325 5.97098
330 4.97958
335 5.8436
340 4.07461
345 4.51336
350 4.01066
355 4.63801
360 7.00716
365 4.6668
370 8.90767
375 5.51853
380 7.21122
385 6.89057
390 5.85403
395 4.51157
400 5.88633
405 6.4134
410 3.9896
415 5.44897
420 5.28028
425 5.01092
430 5.0823
435 3.55239
440 7.86939
445 4.7481
450 5.46367
455 3.7668
460 3.78427
465 5.78414
470 7.01672
475 3.89203
480 5.31193
485 4.26643
490 3.04899
495 4.12134
500 6.91939
505 4.64412
510 5.64877
515 4.54598
520 5.63881
525 4.79095
530 4.14276
535 5.32528
540 5.73665
545 4.84675
550 8.61298
555 4.12071
560 4.51418
565 4.14175
570 7.15234
575 4.99795
580 5.53149
585 4.81107
590 5.49889
595 4.57197
600 0.874754
Ex : 208
200 3.44578
205 4.38501
210 5.69587
215 5.24206
220 5.08489
225 4.21435
230 4.06154
235 4.55889
240 2.24196
245 3.2006
250 3.70925
255 5.75583
260 5.57082
265 4.80463
270 2.96367
275 2.58723
280 4.62461
285 4.57261
290 4.42486
295 4.22559
300 3.03175
305 4.53569
310 3.99028
315 4.17613
320 4.80497
325 2.80977
330 2.2559
335 4.86912
340 3.71832
345 8.14862
350 7.15168
355 4.28397
360 3.53828
365 6.20184
370 4.85138
375 3.81808
380 6.47268
385 4.86869
390 4.18177
395 6.33134
400 8.67618
405 7.15684
410 4.61024
415 4.51004
420 4.4417
425 5.41522
430 5.54477
435 4.4061
440 3.9266
445 3.33813
450 4.13164
455 3.26769
460 4.96871
465 5.02396
470 7.69885
475 5.29184
480 8.75626
485 5.91921
490 6.43647
495 10.8407
500 4.73339
505 4.29634
510 4.32552
515 4.98984
520 4.37112
525 4.69924
530 7.08969
535 3.78717
540 3.63411
545 3.80658
550 4.00945
555 3.44474
560 3.88325
565 5.1437
570 5.24677
575 5.33633
580 5.00771
585 5.09387
590 7.18686
595 5.3389
600 0.607546
Ex : 213
200 5.85632
205 4.54054
210 6.16563
215 2.33961
220 3.90273
225 5.09669
230 3.71704
235 4.41349
240 4.14327
245 6.2154
250 4.45376
255 5.29335
260 2.96201
265 4.68267
270 5.12594
275 4.2362
280 3.80018
285 4.03634
290 5.40284
295 5.58461
300 3.18268
305 3.92713
310 6.34164
315 3.27079
320 4.69784
325 4.86316
330 4.5089
335 4.44421
340 4.3318
345 5.74433
350 4.10182
355 3.13063
360 4.84395
365 5.88297
370 6.35867
375 4.10947
380 4.77281
385 4.58581
390 4.13212
395 5.2547
400 4.53607
405 3.21441
410 7.15646
415 5.21466
420 5.23543
425 5.89012
430 5.27332
435 3.4203
440 4.00334
445 5.169
450 5.511
455 5.59302
460 4.46632
465 4.3086
470 7.36893
475 6.22315
480 5.35807
485 7.35851
490 5.40701
495 4.1402
500 5.78335
505 5.47401
510 5.63213
515 3.9296
520 6.44609
525 3.40228
530 8.31784
535 5.64509
540 4.38056
545 4.04861
550 5.73288
555 5.48717
560 4.89191
565 3.28001
570 5.09304
575 5.72825
580 4.05648
585 2.96815
590 7.3365
595 6.4164
600 2.35487
Ex : 218
200 5
205 5.84703
210 4.26495
215 5.2468
220 3.30603
225 2.87227
230 3.18524
235 5.25153
240 5.37886
245 4.14145
250 2.71464
255 4.049
260 3.68907
265 4.12326
270 3.82299
275 4.16019
280 4.09597
285 4.68521
290 3.41937
295 2.35105
300 2.33535
305 2.57714
310 3.80643
315 3.37515
320 4.40442
325 5.89677
330 5.6741
335 4.87693
340 4.63644
345 7.88673
350 3.48716
355 3.92054
360 4.16914
365 3.83047
370 5.67209
375 4.60645
380 6.48261
385 4.13213
390 5.63566
395 4.5463
400 4.52944
405 5.28998
410 3.48333
415 6.7648
420 2.82309
425 4.63308
430 7.41876
435 6.66112
440 6.37231
445 6.27377
450 4.06128
455 6.90398
460 4.49722
465 5.55709
470 3.18794
475 3.90272
480 3.51976
485 5.03183
490 5.22154
495 4.70075
500 4.1594
505 4.38045
510 5.98035
515 5.63019
520 3.53753
525 3.44169
530 4.82754
535 2.37254
540 4.57294
545 3.97007
550 3.2487
555 3.30401
560 2.69416
565 4.87591
570 7.1457
575 5.61804
580 2.99057
585 4.13979
590 3.85386
595 3.73246
600 6.45092
Ex : 223
200 3.93373
205 2.83055
210 3.2519
215 3.85917
220 4.73776
225 3.81859
230 3.71986
235 1.4451
240 2.37524
245 4.55443
250 5.30063
255 3.515
260 5.05505
265 3.58148
270 5.13398
275 4.63898
280 4.07805
285 5.14342
290 7.13842
295 6.49504
300 4.26971
305 4.42676
310 2.52429
315 1.95392
320 4.77464
325 5.22406
330 6.09373
335 4.95707
340 3.63753
345 4.70218
350 4.6097
355 2.89959
360 3.90849
365 4.15071
370 5.77437
375 3.84838
380 5.96339
385 2.97068
390 2.97629
395 5.48513
400 4.49704
405 6.20745
410 6.95437
415 4.59966
420 3.60253
425 5.48727
430 5.43594
435 7.35072
440 5.119
445 3.86347
450 4.94411
455 4.14661
460 5.04824
465 6.68577
470 4.85244
475 3.24397
480 4.25105
485 4.77028
490 4.57767
495 4.02741
500 2.877
505 4.7534
510 4.16761
515 3.15193
520 3.81337
525 1.81466
530 6.60686
535 4.6264
540 4.17886
545 3.82172
550 4.14227
555 4.16241
560 6.40106
565 5.04866
570 3.22317
575 4.46166
580 5.32702
585 4.89841
590 6.84454
595 5.05812
600 7.36982
Ex : 228
200 5.28125
205 5.19222
210 4.60234
215 3.71048
220 3.80774
225 3.82004
230 4.5553
235 5.33114
240 3.49972
245 3.88009
250 4.81315
255 4.25698
260 4.44121
265 4.02067
270 3.05928
275 5.94139
280 5.82239
285 4.63142
290 3.29126
295 3.85741
300 6.53567
305 3.20049
310 5.96319
315 4.28008
320 4.8819
325 4.29197
330 5.72815
335 2.97285
340 4.35139
345 4.42043
350 5.59049
355 4.43813
360 3.4868
365 3.7939
370 5.07352
375 6.58384
380 3.96802
385 6.68029
390 4.79146
395 4.31288
400 5.61957
405 3.07655
410 2.83446
415 7.31811
420 6.02826
425 5.06723
430 4.69725
435 4.91238
440 6.25603
445 3.70711
450 2.77301
455 2.6106
460 5.83468
465 6.45543
470 5.77579
475 4.1933
480 4.56248
485 4.74032
490 4.0157
495 4.14377
500 3.69848
505 6.85077
510 5.28827
515 6.38646
520 5.92521
525 3.71008
530 2.96942
535 4.47047
540 2.97809
545 2.54517
550 3.65444
555 5.35588
560 3.03391
565 5.34193
570 4.26218
575 5.28154
580 6.19405
585 2.96191
590 2.78396
595 5.45495
600 5.49487
Ex : 233
200 3.91444
205 3.38891
210 3.30126
215 5.52645
220 6.55429
225 4.15571
230 3.68897
235 3.95628
240 3.76479
245 4.06314
250 3.30802
255 3.6397
260 4.58327
265 4.35575
270 4.98288
275 5.10158
280 3.63863
285 1.4149
290 2.27946
295 1.97836
300 6.78043
305 3.9014
310 5.67758
315 3.99205
320 4.74764
325 4.31786
330 3.33303
335 3.88918
340 5.10286
345 6.08719
350 5.92897
355 9.65603
360 3.91174
365 4.64674
370 4.21539
375 4.20949
380 2.86193
385 3.72418
390 4.46046
395 4.35077
400 4.56815
405 6.27798
410 2.94878
415 5.28637
420 6.32883
425 4.45522
430 4.85166
435 4.43513
440 6.05006
445 4.26385
450 3.98802
455 3.98592
460 3.15289
465 3.92073
470 3.96466
475 3.92284
480 3.95114
485 4.63854
490 4.96323
495 3.85582
500 4.11209
505 5.45935
510 4.89962
515 6.63184
520 4.01031
525 3.81971
530 2.91182
535 3.58653
540 5.33296
545 3.71972
550 2.84061
555 5.84667
560 6.52178
565 4.61764
570 3.06945
575 3.03892
580 3.08075
585 2.93794
590 1.96043
595 2.21929
600 14.5795
Ex : 238
200 2.26522
205 3.48324
210 3.70168
215 4.09322
220 4.52895
225 5.0422
230 4.97086
235 3.14334
240 3.66118
245 3.67911
250 4.37314
255 2.61766
260 5.18221
265 4.39842
270 2.7366
275 3.50724
280 3.51219
285 4.36554
290 3.27383
295 3.02727
300 3.94074
305 2.81165
310 3.16847
315 3.0115
320 2.89561
325 3.94429
330 3.42474
335 4.64424
340 2.70775
345 5.05938
350 3.77295
355 3.18597
360 2.91374
365 3.79471
370 6.02521
375 5.39917
380 4.87755
385 4.47851
390 3.28565
395 3.8378
400 6.052
405 6.81986
410 6.76478
415 4.1274
420 6.00649
425 2.8199
430 3.40228
435 5.23903
440 3.8245
445 6.5933
450 3.87005
455 4.97032
460 3.49478
465 5.13713
470 5.73613
475 5.29405
480 3.34488
485 4.98889
490 3.34027
495 5.85232
500 5.1812
505 3.02023
510 2.35915
515 4.87757
520 4.11956
525 6.04785
530 4.19821
535 3.53989
540 4.12795
545 3.59729
550 3.28036
555 3.89759
560 5.72793
565 4.05792
570 3.64144
575 3.86029
580 5.18125
585 2.72508
590 2.79798
595 3.80465
600 0.432955
Ex : 243
200 4.18072
205 3.14467
210 2.44163
215 1.97702
220 3.81183
225 2.29445
230 2.48849
235 3.6211
240 1.7773
245 4.33901
250 2.77412
255 2.89568
260 3.09219
265 4.40726
270 2.28114
275 3.75699
280 4.73297
285 3.20085
290 3.42342
295 3.16154
300 2.62832
305 3.84051
310 3.48203
315 2.54197
320 3.86488
325 4.75703
330 3.83295
335 3.14087
340 4.93792
345 5.73504
350 4.56965
355 3.63219
360 4.22021
365 5.15684
370 3.12522
375 2.46863
380 2.32125
385 2.30784
390 3.30623
395 3.23936
400 2.8591
405 4.47392
410 3.73476
415 3.02319
420 3.78852
425 3.90947
430 3.08959
435 2.26267
440 3.71027
445 3.16263
450 3.79564
455 3.1735
460 3.43133
465 2.70445
470 2.89872
475 4.30755
480 2.63906
485 3.60836
490 2.88135
495 3.16105
500 2.51554
505 4.56362
510 4.06751
515 4.45782
520 5.6021
525 3.85305
530 2.91649
535 1.8862
540 4.43257
545 4.26385
550 2.44419
555 3.49908
560 4.43419
565 3.9889
570 5.53106
575 1.79088
580 4.13482
585 2.67549
590 3.38706
595 3.00916
600 0.34243
Ex : 248
200 2.58199
205 1.61289
210 3.16307
215 2.37489
220 2.81234
225 1.84373
230 1.98222
235 2.5374
240 2.51903
245 2.04202
250 2.40194
255 1.86908
260 2.07871
265 2.68488
270 2.48399
275 3.11336
280 2.46709
285 2.74657
290 1.72186
295 2.00265
300 2.58914
305 3.14357
310 3.16603
315 2.43117
320 1.9778
325 1.73307
330 2.16266
335 4.07046
340 3.25179
345 3.72643
350 2.69904
355 3.21192
360 2.73863
365 3.07007
370 2.38675
375 2.21884
380 3.09978
385 3.34441
390 3.73914
395 3.35608
400 2.90642
405 2.78305
410 1.94532
415 2.83123
420 3.28222
425 2.61055
430 2.53606
435 3.30399
440 4.18394
445 3.02731
450 4.25602
455 4.44529
460 3.05152
465 3.39055
470 3.29078
475 2.12922
480 2.82658
485 2.71016
490 2.82078
495 2.60723
500 2.40071
505 3.13428
510 2.93834
515 3.09707
520 3.61378
525 3.36124
530 3.22646
535 3.1901
540 3.02163
545 2.51853
550 1.75543
555 2.50507
560 2.91598
565 3.66777
570 2.55274
575 2.30668
580 3.58438
585 4.83891
590 2.98843
595 1.85425
600 0.211006
Ex : 253
200 2.50398
205 2.23507
210 3.36979
215 1.68685
220 1.29105
225 1.86995
230 1.52749
235 2.6212
240 2.58621
245 2.22094
250 1.49788
255 1.66301
260 2.70856
265 1.40046
270 1.36154
275 1.963
280 1.7972
285 2.00196
290 2.08079
295 2.50799
300 2.33978
305 1.14036
310 1.00383
315 2.15818
320 2.47612
325 1.59413
330 2.29873
335 2.76542
340 1.22518
345 2.2278
350 2.60829
355 2.78471
360 1.80744
365 2.19352
370 2.02962
375 2.28139
380 2.74352
385 2.83788
390 2.39571
395 2.71766
400 4.78625
405 3.4236
410 2.51838
415 2.11376
420 2.56317
425 2.32185
430 2.35576
435 1.23574
440 2.36487
445 2.86264
450 2.69402
455 2.59509
460 2.3599
465 3.78598
470 2.764
475 2.78448
480 1.64743
485 2.77374
490 3.06929
495 2.52182
500 2.50975
505 2.54979
510 3.00785
515 2.2072
520 2.38669
525 2.2643
530 2.01763
535 2.60862
540 1.66758
545 1.01946
550 2.8545
555 2.60769
560 2.73442
565 1.6257
570 2.30494
575 4.19482
580 2.1217
585 3.7207
590 1.71487
595 2.05593
600 0.233957
Ex : 258
200 1.1128
205 0.845928
210 2.37452
215 2.86594
220 1.68044
225 1.73135
230 1.81479
235 1.7026
240 1.25484
245 2.55612
250 1.72367
255 2.56459
260 1.7078
265 1.72201
270 1.78128
275 1.92941
280 1.46659
285 1.39486
290 1.43751
295 1.91571
300 1.08612
305 1.31425
310 1.76784
315 2.0373
320 1.59187
325 2.06991
330 1.73998
335 2.04714
340 1.83562
345 1.72008
350 2.31544
355 1.78962
360 2.882
365 2.01798
370 1.62681
375 2.05206
380 2.89808
385 2.23523
390 1.67384
395 1.34826
400 1.20767
405 3.32776
410 2.40598
415 2.19228
420 1.65558
425 2.22038
430 2.24463
435 1.99309
440 3.12029
445 2.15303
450 3.10467
455 2.75206
460 2.73611
465 1.38341
470 3.19074
475 2.16646
480 1.72094
485 1.70219
490 1.63378
495 2.23253
500 2.11316
505 1.38548
510 1.94756
515 2.48263
520 1.45133
525 1.85645
530 2.45849
535 1.77242
540 2.62825
545 1.98095
550 1.65505
555 1.58322
560 1.24402
565 1.4699
570 2.93541
575 1.61854
580 2.18302
585 1.68551
590 1.94421
595 1.27337
600 0.144904
Ex : 263
200 0.926746
205 1.78346
210 0.77611
215 1.76921
220 1.53841
225 1.43993
230 1.03404
235 1.07606
240 0.99327
245 0.960229
250 1.0476
255 1.15312
260 1.48596
265 1.48914
270 1.18313
275 1.53301
280 1.41544
285 1.00775
290 0.958904
295 0.956793
300 1.23235
305 1.16604
310 1.39782
315 1.0207
320 1.58308
325 1.56109
330 1.07166
335 0.893757
340 1.45182
345 1.12286
350 1.39509
355 1.50139
360 1.1564
365 1.84564
370 1.68755
375 2.24186
380 1.2721
385 2.4193
390 1.93774
395 1.42321
400 1.59992
405 1.48976
410 1.67094
415 1.54626
420 1.46938
425 1.13356
430 1.29175
435 1.69518
440 1.66784
445 2.49641
450 1.62103
455 1.85582
460 2.16609
465 1.75752
470 1.28227
475 2.23605
480 1.48982
485 1.49501
490 1.35742
495 1.16749
500 1.51893
505 1.63149
510 1.77434
515 1.67636
520 1.93889
525 2.14281
530 1.87007
535 1.26498
540 1.47404
545 1.67832
550 1.13576
555 1.77703
560 1.39782
565 1.62732
570 2.00899
575 1.7051
580 1.61946
585 1.5374
590 1.18285
595 1.41165
600 0.16064
Ex : 268
200 1.66391
205 0.719307
210 0.755418
215 0.770138
220 1.17119
225 1.04854
230 0.876801
235 1.21679
240 1.97773
245 1.33436
250 1.10997
255 1.09668
260 1.19821
265 2.00296
270 1.16276
275 1.24698
280 0.771868
285 0.820611
290 0.962258
295 1.22492
300 0.871579
305 0.832005
310 0.994384
315 1.05263
320 0.669256
325 1.16782
330 1.31409
335 1.23848
340 1.87079
345 1.27486
350 0.947464
355 0.899771
360 0.716297
365 1.08341
370 1.13207
375 2.1741
380 1.07075
385 1.00195
390 1.52276
395 0.999675
400 1.73333
405 1.47308
410 1.63346
415 1.31977
420 1.21613
425 1.9059
430 1.1927
435 1.53519
440 1.2764
445 1.89195
450 1.31239
455 1.54177
460 1.32776
465 1.19326
470 0.854067
475 1.15622
480 1.10664
485 1.51766
490 1.01659
495 0.956661
500 1.58995
505 1.39824
510 0.908415
515 1.90692
520 1.11518
525 1.4009
530 1.79453
535 1.6187
540 1.11472
545 1.47403
550 1.24279
555 0.796758
560 0.986815
565 1.153
570 1.03343
575 1.16034
580 1.04977
585 1.14868
590 1.58053
595 0.693185
600 3.51944
Ex : 273
200 0.438538
205 0.775249
210 1.01596
215 0.904008
220 0.91606
225 0.792635
230 0.989584
235 1.07733
240 0.536553
245 0.568717
250 0.802724
255 1.14433
260 0.58538
265 0.996269
270 0.932017
275 0.901674
280 0.513629
285 0.66195
290 0.936326
295 0.794261
300 0.895401
305 0.435336
310 0.529441
315 0.698395
320 0.897743
325 1.53102
330 1.09524
335 1.03476
340 0.920749
345 1.46513
350 1.29462
355 1.12795
360 1.47173
365 0.885885
370 1.01835
375 0.668127
380 1.03667
385 1.16293
390 0.997653
395 0.890049
400 0.81864
405 1.25911
410 1.89466
415 1.33079
420 1.49299
425 1.15002
430 1.26123
435 1.14948
440 1.20591
445 1.33633
450 1.28649
455 0.731551
460 0.929756
465 0.97717
470 0.810148
475 1.26368
480 0.997853
485 0.902935
490 1.07969
495 0.911267
500 1.17626
505 1.13987
510 1.05575
515 1.45337
520 0.979899
525 0.908397
530 1.07931
535 0.879995
540 1.1029
545 0.852033
550 0.962157
555 1.25965
560 0.888069
565 0.543154
570 0.840503
575 0.720266
580 0.966182
585 1.69053
590 0.982774
595 0.661342
600 3.69713
Ex : 278
200 0.961538
205 0.805956
210 0.500544
215 0.906172
220 0.686019
225 0.629915
230 0.633164
235 1.04776
240 0.912533
245 0.583635
250 0.928712
255 0.410597
260 0.746874
265 0.471117
270 0.607792
275 0.707231
280 1.47792
285 0.794832
290 1.08482
295 0.498196
300 0.509034
305 0.665818
310 0.549428
315 0.749007
320 0.799367
325 0.609698
330 0.671054
335 0.904495
340 0.900992
345 0.961879
350 0.963081
355 1.25214
360 0.825235
365 1.31028
370 1.18111
375 1.03964
380 0.995625
385 0.974275
390 1.00359
395 0.900844
400 1.00841
405 0.989616
410 0.884286
415 1.15458
420 1.16502
425 1.45782
430 0.903572
435 0.787507
440 0.982329
445 0.885688
450 1.15704
455 0.94665
460 0.711013
465 0.77018
470 0.817602
475 1.1784
480 1.24287
485 1.07122
490 1.21534
495 0.682533
500 1.24117
505 0.830419
510 0.845288
515 0.656361
520 0.612079
525 0.808291
530 1.20305
535 0.924189
540 0.690096
545 1.28854
550 1.50125
555 1.22193
560 0.868819
565 0.615554
570 0.888328
575 1.20844
580 0.967672
585 0.830005
590 1.17109
595 1.09487
600 0.124592
Ex : 283
200 0.333832
205 0.762758
210 0.367939
215 0.685028
220 0.791652
225 0.479561
230 0.695292
235 0.522893
240 0.746667
245 0.572915
250 0.684389
255 0.806985
260 0.4567
265 0.347596
270 0.57628
275 0.630329
280 0.823497
285 0.617102
290 0.480118
295 0.437932
300 0.460301
305 0.512641
310 0.41739
315 0.376067
320 0.67811
325 0.472476
330 0.477544
335 0.596766
340 0.826366
345 1.18702
350 0.692885
355 0.533258
360 0.723309
365 0.783467
370 0.913752
375 0.829548
380 0.965698
385 1.00348
390 1.24038
395 1.01185
400 1.14381
405 0.875057
410 0.877973
415 0.94773
420 1.26688
425 0.777839
430 0.521845
435 0.826085
440 0.808533
445 0.69305
450 0.806987
455 0.900594
460 1.14034
465 0.867936
470 1.16434
475 0.69956
480 0.727627
485 0.828936
490 0.564286
495 0.808195
500 0.911037
505 0.746842
510 0.631737
515 0.882326
520 0.913259
525 0.873364
530 0.841276
535 0.551228
540 0.917329
545 0.741118
550 0.611068
555 0.590913
560 0.893116
565 0.627859
570 0.880386
575 0.721135
580 0.587798
585 0.610436
590 0.470319
595 0.597282
600 0.0679684
Ex : 288
200 0.702074
205 0.573354
210 0.323162
215 0.318568
220 0.298035
225 0.509248
230 0.708438
235 0.413155
240 0.56851
245 0.473236
250 0.794119
255 0.580274
260 1.00639
265 0.601067
270 0.408083
275 0.48898
280 0.345767
285 0.663324
290 0.310232
295 0.489377
300 0.459636
305 0.456202
310 0.434682
315 0.358319
320 0.700821
325 0.470872
330 0.41545
335 0.447408
340 0.585905
345 0.659161
350 0.813236
355 0.599025
360 0.635516
365 1.02665
370 0.908422
375 0.841972
380 1.10261
385 1.05326
390 0.961946
395 0.773278
400 0.982624
405 0.916895
410 0.738716
415 0.767496
420 0.743273
425 0.682727
430 0.627945
435 0.60949
440 0.894832
445 0.892045
450 0.796661
455 0.522979
460 0.78291
465 1.06802
470 0.816686
475 0.974069
480 0.529768
485 0.659593
490 0.627404
495 0.548974
500 0.614816
505 0.498286
510 0.629266
515 0.471103
520 0.542006
525 0.627643
530 0.364578
535 1.04697
540 0.483178
545 0.698269
550 0.744253
555 0.461065
560 0.821404
565 0.600121
570 0.896504
575 0.596161
580 0.523507
585 0.475888
590 0.728525
595 0.540081
600 0.0614592
Ex : 293
200 0.5824
205 0.380657
210 0.424552
215 0.505985
220 0.682596
225 0.449939
230 0.424035
235 0.304036
240 0.551232
245 0.488201
250 0.554494
255 0.398471
260 0.306972
265 0.491447
270 0.483236
275 0.22819
280 0.437162
285 0.453129
290 0.54209
295 0.324107
300 0.415938
305 0.312049
310 0.477184
315 0.361525
320 0.263768
325 0.340639
330 0.572783
335 0.604336
340 0.613024
345 0.49295
350 0.547101
355 0.84846
360 0.563126
365 0.672869
370 0.394901
375 0.672746
380 0.380603
385 0.772729
390 0.708276
395 0.472775
400 0.775999
405 0.899538
410 0.862445
415 0.794853
420 0.771595
425 0.74816
430 0.528969
435 0.56694
440 0.736577
445 0.664781
450 0.753167
455 0.491388
460 0.768046
465 0.895607
470 0.621873
475 0.667343
480 0.618573
485 0.941857
490 0.639576
495 0.57166
500 0.458231
505 0.462336
510 0.664035
515 0.567582
520 0.474673
525 0.59188
530 0.630377
535 0.636031
540 0.530776
545 0.443675
550 0.454563
555 0.448991
560 0.331701
565 0.355243
570 0.431369
575 0.697718
580 0.577227
585 0.63423
590 0.31638
595 0.342876
600 0.039018
Ex : 298
200 0.255319
205 0.271686
210 0.423414
215 0.697321
220 0.492003
225 0.283262
230 0.287878
235 0.511185
240 0.358586
245 0.286677
250 0.37127
255 0.202287
260 0.275571
265 0.461967
270 0.187607
275 0.409114
280 0.402937
285 0.264386
290 0.484985
295 0.58766
300 0.371506
305 0.358718
310 0.4718
315 0.260179
320 0.239202
325 0.58412
330 0.599695
335 0.577374
340 0.47791
345 0.584203
350 0.482696
355 0.56493
360 0.344316
365 0.396309
370 0.582958
375 0.511925
380 0.585344
385 0.61583
390 0.609345
395 0.611923
400 0.49628
405 0.496896
410 0.691561
415 0.729386
420 0.684473
425 0.685432
430 0.661104
435 0.565084
440 0.43764
445 0.643356
450 0.66029
455 0.407881
460 0.246925
465 0.683373
470 0.521487
475 0.828439
480 0.504246
485 0.559178
490 0.445445
495 0.61385
500 0.490614
505 0.462284
510 0.554497
515 0.537183
520 0.422023
525 0.539263
530 0.416762
535 0.531036
540 0.311809
545 0.341429
550 0.530312
555 0.667826
560 0.381267
565 0.351938
570 0.328437
575 0.461103
580 0.345521
585 0.641472
590 0.46035
595 0.503567
600 1.0628
Ex : 303
200 0.315936
205 0.249581
210 0.33493
215 0.329444
220 0.40787
225 0.229122
230 0.252384
235 0.299614
240 0.344159
245 0.388231
250 0.287903
255 0.32888
260 0.373596
265 0.192193
270 0.36696
275 0.322402
280 0.264589
285 0.297649
290 0.412854
295 0.401534
300 0.458022
305 0.206135
310 0.47977
315 0.252293
320 0.283494
325 0.452922
330 0.321536
335 0.284598
340 0.3683
345 0.478384
350 0.509699
355 0.420068
360 0.391622
365 0.647027
370 0.42804
375 0.599902
380 0.650917
385 0.607154
390 0.587268
395 0.58163
400 0.748457
405 0.977109
410 0.701278
415 0.625048
420 0.665747
425 0.600585
430 0.821421
435 0.5929
440 0.407852
445 0.547868
450 0.725028
455 0.710459
460 0.451559
465 0.484166
470 0.499451
475 0.463682
480 0.366808
485 0.445568
490 0.515551
495 0.380891
500 0.436101
505 0.343726
510 0.247528
515 0.402666
520 0.347188
525 0.310796
530 0.24945
535 0.314753
540 0.326575
545 0.315328
550 0.292001
555 0.38407
560 0.318882
565 0.493993
570 0.255151
575 0.283368
580 0.41894
585 0.47968
590 0.358193
595 0.309883
600 0.878238
Ex : 308
200 0.365896
205 0.295601
210 0.216312
215 0.225493
220 0.179837
225 0.254355
230 0.237259
235 0.346521
240 0.497857
245 0.415611
250 0.170135
255 0.233379
260 0.168575
265 0.325097
270 0.362104
275 0.246265
280 0.330872
285 0.470456
290 0.29202
295 0.160101
300 0.465052
305 0.430847
310 0.263819
315 0.394782
320 0.377487
325 0.409846
330 0.334441
335 0.393845
340 0.447184
345 0.376426
350 0.427183
355 0.777874
360 0.544773
365 0.579049
370 0.563246
375 0.5565
380 0.460581
385 0.65419
390 0.714377
395 0.793321
400 0.552154
405 0.652491
410 0.773001
415 0.595757
420 0.474322
425 0.476363
430 0.604611
435 0.648579
440 0.475094
445 0.635381
450 0.504004
455 0.513534
460 0.509204
465 0.506079
470 0.576047
475 0.466923
480 0.466155
485 0.453719
490 0.542186
495 0.292992
500 0.460518
505 0.423556
510 0.34287
515 0.267604
520 0.406047
525 0.434641
530 0.297534
535 0.248838
540 0.442811
545 0.228949
550 0.321455
555 0.314887
560 0.461436
565 0.306651
570 0.223269
575 0.319352
580 0.231749
585 0.428565
590 0.247617
595 0.274311
600 0.216392
Ex : 313
200 0.232115
205 0.223196
210 0.243164
215 0.232599
220 0.2206
225 0.267465
230 0.194764
235 0.170414
240 0.206092
245 0.20833
250 0.136016
255 0.158202
260 0.336431
265 0.277821
270 0.284302
275 0.208879
280 0.281002
285 0.201862
290 0.221041
295 0.136717
300 0.306571
305 0.479498
310 0.329867
315 0.329814
320 0.461344
325 0.376494
330 0.573796
335 0.543215
340 0.679938
345 0.479474
350 0.433545
355 0.645788
360 0.487068
365 0.642778
370 0.720185
375 0.816956
380 0.637604
385 0.930778
390 0.782031
395 0.789366
400 0.752822
405 0.750321
410 0.833867
415 0.9107
420 0.901437
425 0.911351
430 0.79798
435 0.701683
440 0.721668
445 0.704069
450 0.747315
455 0.576161
460 0.822911
465 0.727429
470 0.646903
475 0.482042
480 0.474808
485 0.495629
490 0.619722
495 0.40388
500 0.490295
505 0.344726
510 0.261947
515 0.352591
520 0.527972
525 0.356311
530 0.363656
535 0.231674
540 0.272745
545 0.353268
550 0.30557
555 0.397286
560 0.196446
565 0.284873
570 0.345309
575 0.276409
580 0.316991
585 0.345832
590 0.259254
595 0.331573
600 0.708065
Ex : 318
200 0.147411
205 0.379778
210 0.330733
215 0.235809
220 0.250087
225 0.262656
230 0.327427
235 0.278534
240 0.280956
245 0.246454
250 0.281456
255 0.149345
260 0.182011
265 0.282286
270 0.180148
275 0.272174
280 0.120126
285 0.195313
290 0.272106
295 0.226447
300 0.264512
305 0.203642
310 0.334569
315 0.783206
320 0.614078
325 0.574587
330 0.879735
335 0.949582
340 1.13953
345 1.22009
350 1.76302
355 1.99353
360 2.69007
365 3.5774
370 3.88811
375 4.42782
380 5.42065
385 6.03584
390 6.3331
395 7.06384
400 7.08551
405 7.37813
410 8.347
415 7.36511
420 6.91287
425 6.97569
430 6.40619
435 6.39837
440 6.65959
445 6.05448
450 5.38715
455 5.1693
460 4.7224
465 4.68053
470 4.39106
475 3.79238
480 3.70323
485 3.23783
490 2.84924
495 2.27359
500 2.1333
505 1.64604
510 1.54088
515 1.16577
520 1.03247
525 1.03528
530 0.86081
535 0.785416
540 0.65505
545 0.493541
550 0.592492
555 0.580934
560 0.43308
565 0.321549
570 0.473404
575 0.426742
580 0.337172
585 0.331189
590 0.207526
595 0.313819
600 0.0659229
Ex : 323
200 0.204857
205 0.182572
210 0.216019
215 0.233971
220 0.239098
225 0.208374
230 0.298246
235 0.275729
240 0.157488
245 0.118617
250 0.171996
255 0.159195
260 0.081722
265 0.165739
270 0.227519
275 0.168917
280 0.248595
285 0.10668
290 0.213451
295 0.224031
300 0.145205
305 0.210092
310 0.228898
315 8.74293
320 41.9746
325 18.2246
330 3.6371
335 3.14925
340 3.97274
345 5.07428
350 7.64779
355 11.0812
360 13.5436
365 15.6782
370 18.5099
375 21.4844
380 25.3166
385 27.4877
390 29.0682
395 31.8429
400 32.4167
405 34.2569
410 34.5893
415 34.7541
420 32.3552
425 31.128
430 30.6017
435 29.9287
440 28.5917
445 26.3082
450 24.9631
455 24.7292
460 22.1405
465 20.5334
470 18.8685
475 17.4884
480 16.3011
485 14.3003
490 12.977
495 11.6967
500 9.63609
505 8.56198
510 7.94094
515 6.61851
520 5.67721
525 4.66233
530 3.96202
535 3.49246
540 2.85815
545 2.2494
550 1.92355
555 1.54185
560 1.41467
565 1.23387
570 1.04899
575 0.634136
580 0.747117
585 0.637059
590 0.375022
595 0.331193
600 0.0376884
Ex : 328
200 0.132059
205 0.165142
210 0.134712
215 0.232086
220 0.232523
225 0.130333
230 0.208621
235 0.2175
240 0.130315
245 0.126189
250 0.233247
255 0.149889
260 0.182601
265 0.203576
270 0.201534
275 0.192731
280 0.157839
285 0.187483
290 0.149267
295 0.161436
300 0.290171
305 0.257771
310 0.26944
315 2.47702
320 103.734
325 258.851
330 77.711
335 12.5827
340 6.78083
345 7.28588
350 8.95062
355 12.4491
360 17.5949
365 19.835
370 23.0835
375 25.366
380 28.869
385 32.375
390 34.4004
395 37.1755
400 38.0956
405 39.4585
410 40.231
415 40.302
420 37.6304
425 36.7243
430 35.6094
435 33.8671
440 32.4291
445 31.1404
450 29.3384
455 27.7148
460 25.2252
465 23.5883
470 22.0259
475 20.3255
480 17.5532
485 15.964
490 14.0891
495 12.9921
500 11.1151
505 9.93446
510 8.2404
515 7.15703
520 6.80721
525 5.29551
530 4.67642
535 4.12792
540 3.76972
545 3.37471
550 2.67737
555 2.24058
560 2.07638
565 1.369
570 1.2649
575 0.884904
580 0.740337
585 0.646382
590 0.499027
595 0.594375
600 0.279026
Ex : 333
200 0.244721
205 0.126784
210 0.170507
215 0.165666
220 0.23197
225 0.159857
230 0.263255
235 0.273541
240 0.115088
245 0.366663
250 0.253632
255 0.168243
260 0.154587
265 0.202297
270 0.146501
275 0.205598
280 0.26245
285 0.130267
290 0.24193
295 0.2132
300 0.188779
305 0.25642
310 0.338706
315 0.330035
320 14.2617
325 302.7
330 520.885
335 137.747
340 19.669
345 7.48994
350 6.48888
355 6.73143
360 10.2963
365 15.1088
370 16.1298
375 15.6886
380 16.7124
385 19.863
390 21.7579
395 23.4834
400 23.7829
405 24.2818
410 24.875
415 24.3854
420 24.3191
425 22.14
430 20.6791
435 20.7629
440 19.8974
445 17.8839
450 17.5805
455 15.8081
460 15.0499
465 13.9681
470 12.6459
475 11.3389
480 10.6646
485 9.06037
490 8.33228
495 7.6635
500 6.74116
505 6.23821
510 4.96748
515 4.14019
520 3.84135
525 3.12492
530 2.82635
535 2.30115
540 2.36191
545 2.08776
550 1.82083
555 1.43966
560 1.1942
565 1.18163
570 0.98138
575 0.870153
580 0.579851
585 0.47901
590 0.422695
595 0.403286
600 1.26624
Ex : 338
200 0.176743
205 0.15661
210 0.107191
215 0.120439
220 0.157229
225 0.215821
230 0.218131
235 0.205266
240 0.166865
245 0.137234
250 0.128929
255 0.187152
260 0.246708
265 0.120653
270 0.188266
275 0.220565
280 0.234635
285 0.291305
290 0.113684
295 0.189418
300 0.280044
305 0.289615
310 0.299976
315 0.29732
320 0.449915
325 27.8209
330 459.773
335 695.731
340 174.799
345 23.3545
350 6.66013
355 4.89505
360 4.4454
365 6.35589
370 10.5407
375 10.6573
380 9.9428
385 10.8888
390 13.1961
395 14.0435
400 13.9326
405 14.1264
410 15.3959
415 15.8422
420 15.2108
425 13.6227
430 12.9155
435 11.8777
440 11.7802
445 11.242
450 10.2003
455 8.817
460 8.53876
465 7.95684
470 7.21823
475 6.52822
480 5.84552
485 5.45777
490 5.04734
495 4.49649
500 3.98128
505 3.78471
510 3.15925
515 2.98953
520 2.63842
525 1.89218
530 1.87923
535 1.69993
540 1.48218
545 1.22552
550 1.26133
555 1.2005
560 0.923464
565 0.746843
570 0.659939
575 0.613269
580 0.599953
585 0.436538
590 0.42585
595 0.505429
600 0.344033
Ex : 343
200 0.14316
205 0.151918
210 0.228227
215 0.187838
220 0.217778
225 0.135068
230 0.247259
235 0.204914
240 0.216617
245 0.176847
250 0.104456
255 0.138694
260 0.180927
265 0.21628
270 0.181128
275 0.150705
280 0.20189
285 0.134241
290 0.134464
295 0.220155
300 0.187908
305 0.169374
310 0.21182
315 0.281413
320 0.428788
325 0.588311
330 32.6682
335 528.769
340 782.235
345 190
350 24.9465
355 6.2072
360 3.58742
365 2.70326
370 3.63345
375 7.44988
380 9.49891
385 9.87959
390 10.8708
395 11.1796
400 10.7144
405 11.2568
410 12.7512
415 13.2654
420 12.796
425 11.1338
430 10.3336
435 10.0476
440 10.0066
445 9.459
450 8.18657
455 7.34171
460 7.41391
465 6.40101
470 5.91484
475 5.15864
480 4.84483
485 4.55148
490 4.153
495 3.52682
500 3.01789
505 2.8704
510 2.5941
515 2.51412
520 2.14032
525 2.1168
530 1.75197
535 1.75106
540 1.40047
545 1.26745
550 1.10091
555 1.06409
560 1.1269
565 0.804241
570 0.721381
575 0.609358
580 0.494773
585 0.41974
590 0.499655
595 0.380364
600 0.0854841
Ex : 348
200 0.145097
205 0.121299
210 0.12481
215 0.119508
220 0.128392
225 0.141476
230 0.110133
235 0.178191
240 0.125536
245 0.139614
250 0.114679
255 0.142716
260 0.10799
265 0.112669
270 0.146413
275 0.144169
280 0.118757
285 0.106623
290 0.114941
295 0.159504
300 0.168095
305 0.217501
310 0.163498
315 0.207777
320 0.306487
325 0.352438
330 0.776643
335 34.4715
340 550.312
345 838.36
350 215.625
355 27.5012
360 6.0024
365 2.8824
370 2.30277
375 3.07829
380 7.69811
385 12.4736
390 14.3409
395 13.397
400 12.5898
405 13.2007
410 14.5013
415 14.8162
420 14.6971
425 12.8784
430 11.7486
435 11.4229
440 11.0842
445 10.438
450 9.50618
455 8.50501
460 7.40897
465 6.93393
470 6.69297
475 6.05539
480 5.31286
485 5.09748
490 4.30334
495 3.87301
500 3.51538
505 3.06198
510 2.56945
515 2.37628
520 2.14311
525 1.93496
530 1.87952
535 1.67405
540 1.40522
545 1.38151
550 1.22999
555 1.07279
560 0.788285
565 0.835101
570 0.664011
575 0.61487
580 0.48309
585 0.480644
590 0.422269
595 0.352212
600 0.061962
Ex : 353
200 0.136749
205 0.14097
210 0.120417
215 0.186363
220 0.091327
225 0.153698
230 0.132937
235 0.17582
240 0.165218
245 0.149332
250 0.211058
255 0.141589
260 0.134521
265 0.147721
270 0.0972955
275 0.145999
280 0.162493
285 0.109156
290 0.13948
295 0.233071
300 0.14053
305 0.249049
310 0.194303
315 0.219876
320 0.217899
325 0.303631
330 0.515024
335 0.890627
340 35.7332
345 571.409
350 850.222
355 209.648
360 26.5169
365 5.70958
370 2.92324
375 2.33276
380 3.57066
385 8.97587
390 16.2446
395 17.1113
400 15.1819
405 13.508
410 14.9966
415 17.3258
420 16.6465
425 14.6072
430 12.8369
435 12.2172
440 12.1532
445 11.72
450 10.4584
455 8.91428
460 7.99283
465 7.51097
470 7.19064
475 6.58162
480 5.8746
485 5.2073
490 4.45639
495 4.13262
500 3.85463
505 3.50649
510 2.89912
515 2.70997
520 2.5353
525 2.21552
530 1.86686
535 1.61459
540 1.38904
545 1.23628
550 1.13182
555 1.03295
560 0.948361
565 0.809293
570 0.629125
575 0.637723
580 0.464631
585 0.409399
590 0.341579
595 0.410136
600 0.0466719
Ex : 358
200 0.115933
205 0.154697
210 0.156417
215 0.121749
220 0.168592
225 0.168741
230 0.114735
235 0.137438
240 0.131456
245 0.157383
250 0.149423
255 0.141401
260 0.112689
265 0.15362
270 0.151886
275 0.183156
280 0.134026
285 0.176077
290 0.148559
295 0.160129
300 0.120358
305 0.141216
310 0.137225
315 0.145262
320 0.165768
325 0.233093
330 0.327928
335 0.494227
340 0.996604
345 33.6118
350 554.011
355 862.705
360 215.355
365 27.3206
370 5.36384
375 3.07144
380 3.68104
385 6.44058
390 11.6508
395 16.9317
400 15.9961
405 13.7775
410 14.6741
415 15.9228
420 15.4445
425 13.4909
430 12.3978
435 11.86
440 11.9643
445 11.9693
450 10.4277
455 9.23779
460 8.3233
465 7.71059
470 7.13688
475 6.48392
480 6.38505
485 5.22856
490 5.22727
495 4.43124
500 4.13159
505 3.58788
510 3.40119
515 3.06637
520 2.57745
525 2.14039
530 2.02059
535 1.76748
540 1.61584
545 1.31952
550 1.33615
555 1.00529
560 1.01243
565 0.862963
570 0.742256
575 0.541953
580 0.430331
585 0.502122
590 0.336018
595 0.389899
600 0.0775424
Ex : 363
200 0.142499
205 0.11704
210 0.107614
215 0.069906
220 0.150929
225 0.13704
230 0.0982653
235 0.138713
240 0.23475
245 0.125828
250 0.17776
255 0.119408
260 0.14312
265 0.137741
270 0.100984
275 0.0769872
280 0.124641
285 0.118179
290 0.134328
295 0.132612
300 0.153401
305 0.114255
310 0.145585
315 0.169372
320 0.230908
325 0.158846
330 0.280643
335 0.262845
340 0.654369
345 1.02722
350 31.5412
355 546.271
360 874.451
365 226.704
370 28.4664
375 5.77031
380 5.16387
385 8.63706
390 11.9277
395 13.7587
400 16.2458
405 17.7575
410 18.4578
415 18.5172
420 16.7055
425 13.7496
430 13.3966
435 13.1442
440 12.9755
445 12.1008
450 10.9494
455 9.80417
460 8.93588
465 8.44837
470 7.67113
475 7.09711
480 6.39834
485 5.84212
490 5.20372
495 4.60339
500 4.25813
505 3.66019
510 3.34481
515 3.04929
520 2.53373
525 2.26794
530 2.2001
535 1.89417
540 1.59401
545 1.41124
550 1.31518
555 1.08033
560 1.0589
565 0.848941
570 0.679002
575 0.635752
580 0.501472
585 0.420493
590 0.356058
595 0.278481
600 0.143022
Ex : 368
200 0.159565
205 0.102761
210 0.151312
215 0.105481
220 0.100117
225 0.165184
230 0.124519
235 0.104296
240 0.115847
245 0.130776
250 0.0784022
255 0.0844551
260 0.104511
265 0.129483
270 0.120026
275 0.204781
280 0.131771
285 0.130107
290 0.0920655
295 0.163864
300 0.118123
305 0.144254
310 0.173619
315 0.133564
320 0.174361
325 0.195234
330 0.164876
335 0.274572
340 0.361016
345 0.54354
350 1.00514
355 27.3197
360 539.2
365 899.51
370 240.266
375 30.3779
380 7.95068
385 10.3035
390 14.6213
395 16.8262
400 15.8894
405 18.921
410 23.2013
415 23.9729
420 21.8085
425 18.6806
430 16.4672
435 15.8247
440 15.9231
445 14.7907
450 12.8715
455 11.4288
460 10.4482
465 9.82033
470 8.80656
475 8.30051
480 7.44115
485 6.72089
490 6.01978
495 5.28141
500 4.87535
505 4.34933
510 3.94959
515 3.18338
520 2.77571
525 2.80351
530 2.30091
535 2.02373
540 1.69754
545 1.56677
550 1.32465
555 1.11574
560 1.03205
565 0.981219
570 0.787075
575 0.683659
580 0.494935
585 0.428348
590 0.434775
595 0.306835
600 0.598112
Ex : 373
200 0.0932114
205 0.126126
210 0.163871
215 0.134366
220 0.158794
225 0.11945
230 0.106768
235 0.119089
240 0.0867556
245 0.112529
250 0.101473
255 0.109275
260 0.0823053
265 0.100184
270 0.189825
275 0.153539
280 0.113326
285 0.0927057
290 0.0858516
295 0.124636
300 0.153668
305 0.121729
310 0.135494
315 0.119468
320 0.126561
325 0.211045
330 0.272006
335 0.225179
340 0.220772
345 0.391984
350 0.5209
355 0.964906
360 31.6591
365 544.671
370 895.255
375 238.375
380 31.1694
385 10.345
390 15.2366
395 18.4965
400 16.2247
405 15.0727
410 19.7691
415 24.8935
420 24.2889
425 19.5337
430 16.1292
435 15.0457
440 15.1233
445 14.6088
450 13.2427
455 11.5107
460 9.93432
465 9.39615
470 8.62022
475 8.20583
480 7.12885
485 6.35322
490 5.55972
495 5.48728
500 4.73122
505 4.35526
510 3.98845
515 3.32407
520 3.05865
525 2.53682
530 2.19937
535 2.05168
540 1.66157
545 1.51068
550 1.5532
555 1.14962
560 1.11001
565 0.890325
570 0.814505
575 0.640065
580 0.447425
585 0.398963
590 0.384535
595 0.299367
600 0.0379708
Ex : 378
200 0.0884956
205 0.120281
210 0.0844703
215 0.0827253
220 0.106782
225 0.095846
230 0.152511
235 0.106152
240 0.0874356
245 0.108702
250 0.0967194
255 0.137759
260 0.0635913
265 0.112668
270 0.0941938
275 0.0760443
280 0.0582951
285 0.143334
290 0.117462
295 0.128266
300 0.113407
305 0.0989393
310 0.145586
315 0.128178
320 0.111343
325 0.150989
330 0.14434
335 0.17353
340 0.205367
345 0.27642
350 0.358598
355 0.592705
360 0.912426
365 29.5983
370 556.965
375 924.933
380 249.075
385 34.6435
390 14.1769
395 13.7694
400 12.5694
405 11.5993
410 13.6495
415 16.4509
420 18.8862
425 16.4631
430 13.5236
435 12.6045
440 12.02
445 11.1888
450 10.425
455 9.38428
460 8.30045
465 7.68106
470 7.43502
475 6.79238
480 6.57797
485 5.35585
490 5.16494
495 4.61388
500 4.25885
505 4.00393
510 3.55695
515 3.02569
520 2.93705
525 2.51318
530 2.15838
535 1.90962
540 1.64451
545 1.61852
550 1.29225
555 1.07395
560 0.957381
565 0.91605
570 0.692441
575 0.557744
580 0.553496
585 0.405294
590 0.253944
595 0.250559
600 0.322068
Ex : 383
200 0.120185
205 0.0710232
210 0.0603957
215 0.151998
220 0.112464
225 0.112524
230 0.0950177
235 0.0881228
240 0.0756635
245 0.096205
250 0.0797456
255 0.074511
260 0.100586
265 0.0825308
270 0.102986
275 0.133752
280 0.1174
285 0.0861511
290 0.114221
295 0.107774
300 0.117705
305 0.106802
310 0.106547
315 0.146951
320 0.118339
325 0.132851
330 0.129078
335 0.213596
340 0.231326
345 0.215187
350 0.296717
355 0.346178
360 0.511166
365 0.954426
370 28.6029
375 558.276
380 963.66
385 265.225
390 40.9198
395 15.1105
400 11.6732
405 11.8615
410 13.7653
415 14.941
420 14.1397
425 15.3356
430 14.5567
435 12.7309
440 12.1895
445 11.1288
450 9.64295
455 8.74375
460 8.21564
465 7.59856
470 7.4693
475 6.68734
480 6.09629
485 5.54365
490 5.15283
495 4.83048
500 4.07142
505 3.86784
510 3.44581
515 2.8877
520 2.75008
525 2.19797
530 2.13979
535 1.95653
540 1.73221
545 1.4875
550 1.35102
555 1.15844
560 0.986587
565 0.769925
570 0.658545
575 0.597319
580 0.473306
585 0.431629
590 0.407548
595 0.309515
600 0.609678
Ex : 388
200 0.0832501
205 0.0965867
210 0.0918851
215 0.12032
220 0.106192
225 0.0984327
230 0.102346
235 0.0642345
240 0.0912206
245 0.0650995
250 0.101576
255 0.0894412
260 0.0643861
265 0.10978
270 0.148051
275 0.0715033
280 0.0753409
285 0.0883731
290 0.136703
295 0.110763
300 0.0965862
305 0.0929296
310 0.135976
315 0.147362
320 0.106599
325 0.149735
330 0.127835
335 0.173624
340 0.190898
345 0.188912
350 0.224586
355 0.245955
360 0.377772
365 0.531951
370 1.08116
375 31.3797
380 578.031
385 972.349
390 270.011
395 44.5847
400 17.0833
405 14.6609
410 16.8095
415 18.2815
420 16.9246
425 15.136
430 15.6073
435 16.2943
440 14.849
445 13.5508
450 11.7431
455 10.2255
460 8.71875
465 8.60131
470 7.80459
475 7.39718
480 6.60866
485 6.00247
490 5.52939
495 4.91043
500 4.43358
505 4.24628
510 3.63628
515 3.24833
520 2.95984
525 2.54323
530 2.43277
535 1.9159
540 1.74866
545 1.40344
550 1.31724
555 1.2147
560 1.08576
565 0.816972
570 0.76001
575 0.62184
580 0.45363
585 0.419783
590 0.387131
595 0.332367
600 0.205664
Ex : 393
200 0.07614
205 0.089089
210 0.118635
215 0.105113
220 0.0946474
225 0.0595007
230 0.114336
235 0.0864787
240 0.147972
245 0.0911807
250 0.0792954
255 0.0903259
260 0.0702861
265 0.0937279
270 0.0998111
275 0.125937
280 0.109837
285 0.119308
290 0.12659
295 0.0915998
300 0.120338
305 0.0876663
310 0.118607
315 0.122738
320 0.115966
325 0.113775
330 0.089626
335 0.14548
340 0.179548
345 0.159914
350 0.19402
355 0.279725
360 0.229088
365 0.447262
370 0.581013
375 1.20019
380 27.6
385 575.886
390 1000.98
395 282.009
400 46.242
405 17.0047
410 15.9173
415 19.6944
420 18.9722
425 16.1399
430 13.7534
435 14.0439
440 16.4396
445 15.247
450 12.7867
455 10.5387
460 8.80597
465 8.03109
470 7.69454
475 7.29731
480 6.81245
485 5.994
490 5.17271
495 4.93203
500 4.31
505 3.81109
510 3.62437
515 3.43003
520 2.84943
525 2.61092
530 2.28638
535 1.99517
540 1.69034
545 1.52174
550 1.43548
555 1.28024
560 1.07281
565 0.971797
570 0.749784
575 0.70575
580 0.493338
585 0.430811
590 0.307312
595 0.272639
600 0.104609
Ex : 398
200 0.136085
205 0.0935333
210 0.0725258
215 0.0545113
220 0.106138
225 0.0901894
230 0.0872482
235 0.0867482
240 0.0895555
245 0.0783329
250 0.0897021
255 0.0934027
260 0.0748875
265 0.0789824
270 0.0877648
275 0.137074
280 0.105798
285 0.110097
290 0.0750868
295 0.0762477
300 0.0887606
305 0.108729
310 0.0645325
315 0.103558
320 0.0877366
325 0.125629
330 0.15174
335 0.15108
340 0.163834
345 0.184816
350 0.208243
355 0.236488
360 0.181914
365 0.227124
370 0.40921
375 0.599164
380 1.19437
385 29.9123
390 584.235
395 1017.78
400 279.897
405 39.8287
410 13.3573
415 12.1385
420 12.3037
425 10.4742
430 8.45961
435 7.96396
440 9.29129
445 11.7375
450 10.4967
455 8.50761
460 7.22538
465 6.13676
470 5.56231
475 5.45268
480 5.24741
485 4.65795
490 4.44004
495 4.19174
500 3.6407
505 3.44402
510 3.07184
515 2.92061
520 2.57462
525 2.40076
530 2.04735
535 1.89681
540 1.64166
545 1.46566
550 1.32531
555 1.19383
560 1.06021
565 0.921171
570 0.687075
575 0.565747
580 0.427256
585 0.368391
590 0.306672
595 0.266063
600 0.217163
Ex : 403
200 0.121128
205 0.092002
210 0.0647209
215 0.0937546
220 0.0832572
225 0.0721912
230 0.0715049
235 0.109283
240 0.0771521
245 0.0655312
250 0.0821447
255 0.0942064
260 0.12259
265 0.0617764
270 0.0955701
275 0.112357
280 0.100268
285 0.0831587
290 0.0784425
295 0.118399
300 0.101154
305 0.0895003
310 0.0832917
315 0.109044
320 0.100928
325 0.157508
330 0.136842
335 0.122799
340 0.145537
345 0.14146
350 0.177841
355 0.197377
360 0.19056
365 0.212483
370 0.290654
375 0.340411
380 0.533231
385 1.3806
390 32.815
395 607.354
400 1023.3
405 281.273
410 37.1679
415 9.08379
420 6.07216
425 5.59239
430 4.60266
435 4.25761
440 4.56597
445 5.15234
450 7.33098
455 7.31708
460 6.03076
465 5.33637
470 4.54061
475 4.20219
480 4.20339
485 3.86058
490 3.69869
495 3.2588
500 3.12354
505 3.02929
510 2.66208
515 2.58483
520 2.33148
525 2.12566
530 1.91397
535 1.58554
540 1.50492
545 1.33348
550 1.18301
555 1.18539
560 0.930398
565 0.814663
570 0.716711
575 0.573652
580 0.474547
585 0.346717
590 0.258733
595 0.31081
600 0.311549
Ex : 408
200 0.0708706
205 0.0834036
210 0.122685
215 0.114113
220 0.116617
225 0.0652042
230 0.103546
235 0.0869515
240 0.0928496
245 0.0670079
250 0.106971
255 0.106035
260 0.0823147
265 0.0795391
270 0.0766388
275 0.0634565
280 0.0755858
285 0.0933793
290 0.168106
295 0.0894933
300 0.0897207
305 0.0833086
310 0.111425
315 0.101162
320 0.119483
325 0.181804
330 0.123926
335 0.110845
340 0.140944
345 0.145548
350 0.126445
355 0.130306
360 0.143364
365 0.161782
370 0.209017
375 0.327362
380 0.376889
385 0.629315
390 1.41352
395 31.8875
400 628.436
405 1059.8
410 279.927
415 36.2217
420 7.7382
425 4.45716
430 4.03834
435 4.02946
440 4.10312
445 3.83305
450 4.10673
455 5.60206
460 6.95105
465 5.66632
470 4.90803
475 4.13623
480 3.72163
485 3.53133
490 3.35337
495 3.33046
500 3.077
505 2.87148
510 2.7141
515 2.51909
520 2.21375
525 2.07265
530 1.84433
535 1.71132
540 1.48461
545 1.39166
550 1.21848
555 0.983546
560 0.918255
565 0.770923
570 0.628353
575 0.48022
580 0.422877
585 0.328135
590 0.283532
595 0.248859
600 0.0852039
Ex : 413
200 0.0971834
205 0.106043
210 0.0890295
215 0.0589508
220 0.0881992
225 0.0833414
230 0.0889194
235 0.0908765
240 0.117139
245 0.100503
250 0.0710142
255 0.0907783
260 0.0813689
265 0.0708869
270 0.0928106
275 0.132052
280 0.0839737
285 0.106655
290 0.0865928
295 0.0900231
300 0.0702573
305 0.102171
310 0.0906963
315 0.0971799
320 0.0953778
325 0.101281
330 0.158668
335 0.0955241
340 0.130467
345 0.133547
350 0.120949
355 0.107134
360 0.171405
365 0.18988
370 0.187811
375 0.210163
380 0.303263
385 0.408671
390 0.645653
395 1.19493
400 36.027
405 651.745
410 1059.31
415 274.066
420 34.9912
425 7.17463
430 3.77633
435 3.67981
440 3.70247
445 3.60536
450 3.70964
455 3.55907
460 4.40341
465 6.46343
470 5.57603
475 4.41544
480 4.14083
485 3.60727
490 3.19731
495 2.9971
500 2.88545
505 2.73697
510 2.48659
515 2.22181
520 2.24873
525 1.85284
530 1.7617
535 1.5043
540 1.42626
545 1.26448
550 1.04429
555 1.10367
560 0.916643
565 0.83841
570 0.68784
575 0.540585
580 0.411677
585 0.410943
590 0.414844
595 0.262613
600 0.178079
Ex : 418
200 0.0672136
205 0.0679754
210 0.0953171
215 0.0751306
220 0.103782
225 0.0969383
230 0.065799
235 0.0688646
240 0.0910412
245 0.0520705
250 0.118614
255 0.0815868
260 0.0675623
265 0.117964
270 0.0999774
275 0.0748732
280 0.0529391
285 0.0795647
290 0.114872
295 0.0728421
300 0.0959434
305 0.124519
310 0.12337
315 0.0897601
320 0.131926
325 0.0667613
330 0.110898
335 0.104313
340 0.126176
345 0.0946993
350 0.0923029
355 0.138231
360 0.129945
365 0.135889
370 0.158574
375 0.213224
380 0.271019
385 0.253906
390 0.455363
395 0.685202
400 1.10027
405 33.8819
410 659.61
415 1094.07
420 294.098
425 36.7009
430 6.52932
435 3.0044
440 3.01211
445 2.80329
450 2.5063
455 2.41633
460 2.59133
465 3.31136
470 5.43696
475 5.32193
480 3.96427
485 3.56454
490 3.12047
495 2.64972
500 2.40269
505 2.60521
510 2.29262
515 2.16413
520 1.88989
525 1.79703
530 1.65425
535 1.49212
540 1.32077
545 1.19042
550 1.05523
555 0.981975
560 0.921645
565 0.783942
570 0.639007
575 0.464694
580 0.451142
585 0.342616
590 0.271402
595 0.253349
600 0.202538
Ex : 423
200 0.063647
205 0.0594296
210 0.0828476
215 0.0647938
220 0.050981
225 0.0558577
230 0.119665
235 0.0683812
240 0.0700889
245 0.0788167
250 0.0877954
255 0.0681527
260 0.0867902
265 0.114613
270 0.123601
275 0.0837071
280 0.0879636
285 0.0706157
290 0.0862323
295 0.0679394
300 0.0623397
305 0.127949
310 0.116314
315 0.127053
320 0.106142
325 0.0736282
330 0.0938237
335 0.0883714
340 0.0833325
345 0.106559
350 0.117431
355 0.110555
360 0.161523
365 0.139208
370 0.156124
375 0.1551
380 0.187736
385 0.216817
390 0.350994
395 0.494843
400 0.696108
405 1.30889
410 35.3605
415 701.212
420 1123.01
425 286.002
430 35.3756
435 6.03865
440 2.46626
445 2.37324
450 2.30185
455 1.95901
460 1.77194
465 2.01341
470 2.27216
475 4.16029
480 4.86431
485 3.62548
490 3.03248
495 2.77084
500 2.18599
505 2.15344
510 1.9905
515 1.84164
520 1.73995
525 1.61
530 1.51795
535 1.37451
540 1.31188
545 1.19647
550 1.01295
555 0.927404
560 0.860255
565 0.764342
570 0.583894
575 0.506687
580 0.443887
585 0.359257
590 0.271583
595 0.232934
600 0.31416
Ex : 428
200 0.0784002
205 0.0932544
210 0.0644999
215 0.0767962
220 0.0653791
225 0.0784788
230 0.0817282
235 0.0884307
240 0.0576887
245 0.0514394
250 0.0734022
255 0.10109
260 0.0813947
265 0.0853435
270 0.0940782
275 0.132411
280 0.132191
285 0.165394
290 0.11739
295 0.0718541
300 0.139524
305 0.0830097
310 0.120177
315 0.0983988
320 0.116743
325 0.068468
330 0.137582
335 0.129875
340 0.0778465
345 0.0796099
350 0.134535
355 0.152619
360 0.135273
365 0.168398
370 0.156941
375 0.200989
380 0.167499
385 0.203978
390 0.28248
395 0.330461
400 0.419001
405 0.733792
410 1.25001
415 40.2382
420 708.035
425 1136.01
430 299.823
435 36.8536
440 6.0126
445 2.23248
450 1.97737
455 2.12854
460 1.73879
465 1.49737
470 1.71299
475 1.8415
480 3.45627
485 4.74226
490 3.61742
495 2.79872
500 2.49889
505 2.19689
510 1.83834
515 1.87469
520 1.60806
525 1.54296
530 1.37574
535 1.35702
540 1.25244
545 1.0413
550 1.02332
555 0.899327
560 0.871132
565 0.720264
570 0.594555
575 0.521515
580 0.440613
585 0.299422
590 0.322315
595 0.207075
600 0.691171
Ex : 433
200 0.107711
205 0.0710326
210 0.0723578
215 0.0775928
220 0.0816851
225 0.0845831
230 0.0771332
235 0.0976041
240 0.110915
245 0.118433
250 0.0909055
255 0.063764
260 0.10656
265 0.0801751
270 0.0774304
275 0.0955949
280 0.0851927
285 0.0983008
290 0.0588347
295 0.0659472
300 0.0992374
305 0.0858867
310 0.091093
315 0.0905603
320 0.122297
325 0.123386
330 0.068062
335 0.157144
340 0.143868
345 0.0990469
350 0.128121
355 0.0948327
360 0.129837
365 0.158715
370 0.166036
375 0.176102
380 0.192042
385 0.211363
390 0.279831
395 0.339729
400 0.329931
405 0.447008
410 0.785845
415 1.26724
420 44.6641
425 771.977
430 1175.1
435 297.112
440 36.5572
445 5.93084
450 2.22553
455 1.82381
460 1.9191
465 1.81219
470 1.43925
475 1.54046
480 1.82354
485 2.63473
490 4.4706
495 3.69163
500 2.73572
505 2.31717
510 2.00206
515 1.69588
520 1.62419
525 1.4862
530 1.50944
535 1.32493
540 1.19251
545 1.05797
550 1.06633
555 0.901425
560 0.823138
565 0.762743
570 0.636532
575 0.45438
580 0.451491
585 0.332744
590 0.235181
595 0.186317
600 0.343458
Ex : 438
200 0.0865961
205 0.0817315
210 0.0777951
215 0.0853734
220 0.0708424
225 0.0928728
230 0.09053
235 0.130567
240 0.106905
245 0.077265
250 0.0766145
255 0.0894957
260 0.0904972
265 0.0836039
270 0.126768
275 0.0960301
280 0.132187
285 0.0907585
290 0.0724669
295 0.119623
300 0.108997
305 0.0985838
310 0.0987701
315 0.081767
320 0.109502
325 0.0912753
330 0.123663
335 0.104203
340 0.117138
345 0.17156
350 0.145337
355 0.158857
360 0.141534
365 0.149075
370 0.148871
375 0.136817
380 0.151903
385 0.166667
390 0.292676
395 0.234574
400 0.237951
405 0.33544
410 0.456933
415 0.670613
420 1.51106
425 43.6811
430 790.131
435 1282.98
440 324.108
445 39.5264
450 6.38027
455 2.32899
460 2.18014
465 2.03157
470 1.68856
475 1.47011
480 1.46485
485 1.52987
490 2.03881
495 3.56346
500 3.95145
505 2.68629
510 2.08022
515 1.92814
520 1.60867
525 1.46076
530 1.33203
535 1.33034
540 1.07857
545 0.979556
550 1.03598
555 0.945305
560 0.8092
565 0.653506
570 0.558407
575 0.557738
580 0.473507
585 0.385955
590 0.267062
595 0.224904
600 0.178185
Ex : 443
200 0.0746173
205 0.0661403
210 0.0779731
215 0.0873487
220 0.0952011
225 0.0795387
230 0.0768235
235 0.0800843
240 0.0837117
245 0.094383
250 0.0609485
255 0.0801769
260 0.0867522
265 0.123108
270 0.100412
275 0.0955142
280 0.0865905
285 0.0896713
290 0.0950951
295 0.102725
300 0.0964093
305 0.0872917
310 0.0778781
315 0.0990426
320 0.125274
325 0.144046
330 0.0750034
335 0.116312
340 0.126031
345 0.0939431
350 0.101386
355 0.132604
360 0.126195
365 0.109899
370 0.141327
375 0.150814
380 0.154453
385 0.188355
390 0.23025
395 0.199097
400 0.322003
405 0.274166
410 0.356279
415 0.481369
420 0.734668
425 1.39763
430 49.5094
435 856.986
440 1311.77
445 327.103
450 40.0714
455 6.48071
460 2.27855
465 2.10422
470 1.99067
475 1.55701
480 1.52581
485 1.49794
490 1.41656
495 1.74648
500 3.14052
505 3.98515
510 2.79289
515 2.14742
520 2.05221
525 1.45181
530 1.47995
535 1.32027
540 1.26512
545 1.03867
550 0.930011
555 0.946456
560 0.770023
565 0.7116
570 0.63
575 0.600037
580 0.453551
585 0.401343
590 0.320301
595 0.211591
600 0.363096
Ex : 448
200 0.0722756
205 0.0926284
210 0.0781758
215 0.082622
220 0.065499
225 0.10385
230 0.0993264
235 0.0651563
240 0.0890011
245 0.0771772
250 0.0642817
255 0.127357
260 0.0872584
265 0.126802
270 0.132467
275 0.111664
280 0.0989238
285 0.0781845
290 0.0664419
295 0.105902
300 0.105785
305 0.116687
310 0.143965
315 0.109184
320 0.0812596
325 0.0992538
330 0.116446
335 0.115734
340 0.128426
345 0.114513
350 0.127143
355 0.104057
360 0.138432
365 0.13184
370 0.127115
375 0.132385
380 0.16386
385 0.127007
390 0.167232
395 0.187116
400 0.215787
405 0.242262
410 0.26428
415 0.4074
420 0.428703
425 0.74999
430 1.60434
435 52.6514
440 922.483
445 1405.03
450 352.944
455 42.911
460 6.72249
465 2.47222
470 1.94726
475 1.8751
480 1.67884
485 1.52487
490 1.40139
495 1.49853
500 1.63995
505 2.39872
510 3.76515
515 3.05902
520 2.10927
525 1.77153
530 1.63458
535 1.3453
540 1.12398
545 1.14408
550 0.971798
555 1.02065
560 0.772937
565 0.737992
570 0.659921
575 0.47692
580 0.514427
585 0.369369
590 0.307972
595 0.3022
600 0.173692
Ex : 453
200 0.0942781
205 0.0819216
210 0.080525
215 0.103522
220 0.0692332
225 0.0647346
230 0.0883137
235 0.119085
240 0.0758107
245 0.0567661
250 0.0746757
255 0.101631
260 0.122953
265 0.079907
270 0.080434
275 0.0772606
280 0.105039
285 0.0848246
290 0.0742585
295 0.107843
300 0.117441
305 0.128833
310 0.130479
315 0.0925781
320 0.0854916
325 0.128229
330 0.121111
335 0.0866839
340 0.131055
345 0.107281
350 0.106515
355 0.139436
360 0.109632
365 0.115315
370 0.113599
375 0.124173
380 0.168363
385 0.164015
390 0.15673
395 0.171128
400 0.184778
405 0.211115
410 0.24754
415 0.315189
420 0.353658
425 0.618823
430 0.846769
435 1.40628
440 55.6906
445 999.844
450 1475.34
455 349.059
460 42.6731
465 7.13648
470 2.46078
475 1.88098
480 2.02223
485 1.7435
490 1.42941
495 1.3849
500 1.32056
505 1.40132
510 1.98348
515 3.43632
520 3.45769
525 2.31645
530 1.90316
535 1.74981
540 1.28132
545 1.09147
550 1.11765
555 0.939616
560 0.840724
565 0.82752
570 0.629355
575 0.565751
580 0.427539
585 0.351216
590 0.394489
595 0.302092
600 0.0636383
Ex : 458
200 0.0872151
205 0.0918778
210 0.0810792
215 0.0762445
220 0.120052
225 0.0857935
230 0.0728301
235 0.081314
240 0.103705
245 0.136375
250 0.126355
255 0.109907
260 0.0896952
265 0.0944519
270 0.110097
275 0.10379
280 0.0835288
285 0.0642418
290 0.105878
295 0.098949
300 0.0877803
305 0.0927751
310 0.115877
315 0.0969826
320 0.153612
325 0.100488
330 0.102744
335 0.116995
340 0.176587
345 0.145533
350 0.121557
355 0.135824
360 0.112285
365 0.156646
370 0.0916179
375 0.130684
380 0.179344
385 0.147128
390 0.146487
395 0.139699
400 0.194593
405 0.199426
410 0.200898
415 0.284303
420 0.276837
425 0.381223
430 0.615521
435 0.9921
440 1.58784
445 61.5559
450 1035
455 1537.14
460 376.623
465 46.0934
470 7.49557
475 2.49526
480 2.01209
485 2.02693
490 1.83016
495 1.4836
500 1.34514
505 1.34435
510 1.41402
515 1.68386
520 2.59541
525 3.56373
530 2.31464
535 1.74199
540 1.61669
545 1.34275
550 1.12409
555 0.927729
560 0.849644
565 0.787687
570 0.670431
575 0.469096
580 0.420548
585 0.449373
590 0.352706
595 0.254644
600 0.060939
Ex : 463
200 0.0818812
205 0.106396
210 0.0614129
215 0.0700571
220 0.0750293
225 0.0781206
230 0.079005
235 0.0861758
240 0.111183
245 0.0864213
250 0.0996037
255 0.110808
260 0.0725968
265 0.0737737
270 0.0705952
275 0.0855083
280 0.0881631
285 0.0681401
290 0.109829
295 0.118382
300 0.103031
305 0.0903916
310 0.113669
315 0.0577545
320 0.0893131
325 0.0664933
330 0.104773
335 0.175207
340 0.0957162
345 0.119488
350 0.0987706
355 0.117551
360 0.143949
365 0.148928
370 0.112522
375 0.105616
380 0.100568
385 0.170372
390 0.158586
395 0.147578
400 0.164764
405 0.156687
410 0.223208
415 0.222514
420 0.274867
425 0.311915
430 0.459136
435 0.574129
440 0.898059
445 1.62015
450 60.6356
455 1089.97
460 1668.88
465 402.534
470 48.9341
475 7.46603
480 2.34682
485 1.65898
490 1.84518
495 1.68942
500 1.47682
505 1.26527
510 1.28032
515 1.26969
520 1.36417
525 1.97559
530 3.18759
535 2.71763
540 1.80725
545 1.633
550 1.46842
555 1.20301
560 0.906479
565 0.83434
570 0.792914
575 0.558204
580 0.52861
585 0.397246
590 0.334294
595 0.31618
600 0.181436
Ex : 468
200 0.109929
205 0.0843326
210 0.0789568
215 0.0748133
220 0.0944023
225 0.0860319
230 0.106646
235 0.106018
240 0.0910526
245 0.0882809
250 0.0685179
255 0.115595
260 0.0958249
265 0.1051
270 0.11129
275 0.0852534
280 0.115358
285 0.0914153
290 0.0845756
295 0.103013
300 0.0852475
305 0.115823
310 0.0962021
315 0.0793078
320 0.136114
325 0.100389
330 0.0974535
335 0.13464
340 0.115159
345 0.140502
350 0.125789
355 0.114484
360 0.143522
365 0.153664
370 0.10716
375 0.10728
380 0.150156
385 0.146984
390 0.170162
395 0.188884
400 0.169243
405 0.149003
410 0.190114
415 0.205389
420 0.256529
425 0.296978
430 0.301064
435 0.409739
440 0.527821
445 0.979493
450 1.66403
455 66.6455
460 1118.38
465 1771.48
470 426.971
475 51.2888
480 7.75862
485 2.33627
490 1.70342
495 1.68237
500 1.64174
505 1.49439
510 1.35608
515 1.2743
520 1.29189
525 1.39322
530 1.77056
535 2.85894
540 3.01555
545 1.89895
550 1.36464
555 1.42295
560 1.17454
565 0.820205
570 0.765149
575 0.641282
580 0.595481
585 0.37993
590 0.29368
595 0.318091
600 0.301817
Ex : 473
200 0.0886032
205 0.0743707
210 0.101242
215 0.094991
220 0.0958048
225 0.0952468
230 0.0773476
235 0.104953
240 0.0597321
245 0.109546
250 0.124709
255 0.0858842
260 0.0719663
265 0.0915505
270 0.0916238
275 0.0927396
280 0.082456
285 0.103664
290 0.118755
295 0.0972853
300 0.103906
305 0.113414
310 0.0908344
315 0.0988589
320 0.0970927
325 0.0762938
330 0.084561
335 0.12019
340 0.101228
345 0.132949
350 0.0932567
355 0.144914
360 0.132152
365 0.102931
370 0.0914945
375 0.14717
380 0.122131
385 0.128897
390 0.132357
395 0.175229
400 0.187005
405 0.156195
410 0.161899
415 0.177327
420 0.167031
425 0.227007
430 0.336081
435 0.314265
440 0.431838
445 0.566944
450 1.07258
455 1.7335
460 80.974
465 1268.85
470 1809.91
475 419.76
480 50.6372
485 7.80754
490 2.35924
495 1.58525
500 1.56263
505 1.6943
510 1.56472
515 1.35554
520 1.35479
525 1.41965
530 1.35256
535 1.48165
540 2.42709
545 2.94878
550 2.02058
555 1.45566
560 1.37652
565 0.989438
570 0.826303
575 0.707911
580 0.536087
585 0.450836
590 0.428804
595 0.361524
600 0.13027
Ex : 478
200 0.138378
205 0.111499
210 0.102556
215 0.086873
220 0.105536
225 0.120693
230 0.0918673
235 0.107717
240 0.13956
245 0.100228
250 0.0983219
255 0.103804
260 0.135243
265 0.116702
270 0.117531
275 0.108556
280 0.0941031
285 0.136351
290 0.137178
295 0.130201
300 0.149932
305 0.109573
310 0.114809
315 0.0872073
320 0.0872411
325 0.0900167
330 0.136844
335 0.160332
340 0.105072
345 0.126546
350 0.120992
355 0.153068
360 0.157244
365 0.128874
370 0.116882
375 0.117551
380 0.154802
385 0.18014
390 0.184755
395 0.165319
400 0.139421
405 0.167686
410 0.190884
415 0.161293
420 0.174497
425 0.250989
430 0.285653
435 0.258535
440 0.375385
445 0.599247
450 0.72267
455 1.10377
460 2.36891
465 88.806
470 1295.35
475 1811.51
480 440.588
485 53.2714
490 8.1277
495 2.67595
500 1.62211
505 1.67533
510 1.4963
515 1.47849
520 1.33679
525 1.28002
530 1.34329
535 1.302
540 1.31159
545 1.76169
550 2.76487
555 2.09637
560 1.47351
565 1.2122
570 1.03247
575 0.720163
580 0.499191
585 0.50155
590 0.419589
595 0.329147
600 0.305163
Ex : 483
200 0.175505
205 0.0843908
210 0.107104
215 0.1074
220 0.0811927
225 0.0921994
230 0.138364
235 0.147886
240 0.0861166
245 0.1447
250 0.118976
255 0.0787801
260 0.11909
265 0.094223
270 0.110643
275 0.0829863
280 0.12692
285 0.0946458
290 0.0968923
295 0.0882507
300 0.136202
305 0.115615
310 0.162422
315 0.130431
320 0.0991377
325 0.12731
330 0.108619
335 0.14394
340 0.107235
345 0.103443
350 0.14365
355 0.0829809
360 0.144329
365 0.147465
370 0.125626
375 0.123822
380 0.18789
385 0.162315
390 0.145166
395 0.164183
400 0.159009
405 0.216083
410 0.164711
415 0.227201
420 0.256315
425 0.274536
430 0.234428
435 0.297157
440 0.327694
445 0.353171
450 0.480682
455 0.720461
460 1.20647
465 2.2937
470 69.5794
475 1289.63
480 1991.18
485 483.615
490 58.0791
495 8.59521
500 2.66876
505 1.6856
510 1.48377
515 1.65887
520 1.80584
525 1.45983
530 1.31792
535 1.28217
540 1.27541
545 1.18096
550 1.39788
555 2.34711
560 2.46136
565 1.41515
570 1.04354
575 0.889459
580 0.670541
585 0.538165
590 0.432556
595 0.441361
600 0.0779191
Ex : 488
200 0.118003
205 0.134914
210 0.118434
215 0.0879585
220 0.13093
225 0.0796616
230 0.092276
235 0.107082
240 0.0964963
245 0.0963106
250 0.142119
255 0.0847581
260 0.128568
265 0.0998957
270 0.100419
275 0.0804504
280 0.104537
285 0.111776
290 0.158813
295 0.142576
300 0.170258
305 0.140198
310 0.116127
315 0.17924
320 0.140198
325 0.199451
330 0.115259
335 0.0993214
340 0.112993
345 0.111999
350 0.116605
355 0.175447
360 0.218066
365 0.155216
370 0.245239
375 0.16801
380 0.228512
385 0.193452
390 0.236072
395 0.168287
400 0.149674
405 0.236906
410 0.197537
415 0.205029
420 0.207316
425 0.190088
430 0.247696
435 0.282491
440 0.343006
445 0.380698
450 0.424942
455 0.63965
460 0.877695
465 1.46247
470 2.29763
475 85.3258
480 1399.86
485 1980.97
490 467.656
495 56.2489
500 8.49328
505 2.41708
510 1.64402
515 1.4972
520 1.74474
525 1.5941
530 1.46112
535 1.26393
540 1.29017
545 1.30883
550 1.23265
555 1.21425
560 1.75665
565 2.22864
570 1.46302
575 0.835376
580 0.681374
585 0.563431
590 0.478027
595 0.373503
600 0.306335
Ex : 493
200 0.11073
205 0.121859
210 0.124078
215 0.127412
220 0.107326
225 0.113688
230 0.118011
235 0.115566
240 0.0997949
245 0.130096
250 0.0867979
255 0.0978851
260 0.128925
265 0.105237
270 0.0906666
275 0.113055
280 0.112837
285 0.100691
290 0.105095
295 0.1248
300 0.106267
305 0.106445
310 0.0945525
315 0.134703
320 0.129404
325 0.107294
330 0.14788
335 0.165765
340 0.122886
345 0.136316
350 0.119738
355 0.119999
360 0.130182
365 0.12414
370 0.143538
375 0.131055
380 0.136862
385 0.146037
390 0.179611
395 0.162962
400 0.204863
405 0.195024
410 0.162531
415 0.185097
420 0.205917
425 0.204294
430 0.241192
435 0.200036
440 0.319263
445 0.342736
450 0.394387
455 0.447257
460 0.615203
465 0.988719
470 1.33019
475 2.27802
480 79.3976
485 1393.06
490 2081.36
495 480.097
500 57.3873
505 8.53106
510 2.69026
515 1.6912
520 1.58028
525 1.81568
530 1.65717
535 1.54183
540 1.34721
545 1.24197
550 1.14531
555 0.961158
560 1.12882
565 1.35775
570 1.81966
575 1.52719
580 0.750584
585 0.615086
590 0.510002
595 0.427676
600 0.189123
Ex : 498
200 0.14744
205 0.113392
210 0.114255
215 0.111865
220 0.123207
225 0.123925
230 0.164186
235 0.127456
240 0.135483
245 0.11647
250 0.131545
255 0.117172
260 0.124612
265 0.129322
270 0.113193
275 0.131326
280 0.101536
285 0.107596
290 0.126429
295 0.111449
300 0.143239
305 0.117076
310 0.133213
315 0.123018
320 0.168253
325 0.136455
330 0.138711
335 0.151947
340 0.14649
345 0.17494
350 0.146163
355 0.219618
360 0.189476
365 0.161376
370 0.168067
375 0.182503
380 0.130084
385 0.162043
390 0.161024
395 0.154197
400 0.195394
405 0.115089
410 0.168507
415 0.190955
420 0.218003
425 0.229933
430 0.269405
435 0.240697
440 0.300914
445 0.279141
450 0.424782
455 0.326822
460 0.490651
465 0.592548
470 0.899023
475 1.30882
480 2.3043
485 97.6656
490 1496.14
495 2051.33
500 479.807
505 57.7071
510 8.57958
515 2.80595
520 1.75677
525 1.60027
530 1.71281
535 1.74163
540 1.42712
545 1.28902
550 1.17844
555 1.03609
560 1.03655
565 0.977033
570 0.96906
575 1.46548
580 1.48635
585 0.904977
590 0.568077
595 0.486769
600 0.279701
Ex : 503
200 0.130764
205 0.230477
210 0.139961
215 0.130811
220 0.142251
225 0.130639
230 0.138882
235 0.117805
240 0.128054
245 0.134136
250 0.0994135
255 0.210142
260 0.125937
265 0.102989
270 0.181793
275 0.176833
280 0.131132
285 0.126827
290 0.114404
295 0.0815546
300 0.0865466
305 0.1431
310 0.111856
315 0.125968
320 0.144698
325 0.168247
330 0.14823
335 0.229591
340 0.136185
345 0.112138
350 0.176645
355 0.114878
360 0.180131
365 0.167006
370 0.16983
375 0.122535
380 0.156508
385 0.201889
390 0.147835
395 0.189352
400 0.188756
405 0.155169
410 0.166408
415 0.155667
420 0.217169
425 0.236049
430 0.239952
435 0.258567
440 0.230651
445 0.267478
450 0.322362
455 0.335993
460 0.448111
465 0.55192
470 0.526941
475 0.825305
480 1.50029
485 2.45184
490 88.2065
495 1494.18
500 2129.95
505 494.423
510 59.2334
515 8.84889
520 2.8875
525 1.83335
530 1.53241
535 1.60471
540 1.60935
545 1.42639
550 1.22327
555 1.19181
560 0.928873
565 0.859424
570 0.772782
575 0.789866
580 0.935438
585 1.19322
590 0.812892
595 0.485828
600 0.121947
Ex : 508
200 0.111445
205 0.132277
210 0.117483
215 0.138808
220 0.154713
225 0.158652
230 0.134486
235 0.105625
240 0.142207
245 0.104317
250 0.0989321
255 0.105626
260 0.0924163
265 0.107124
270 0.127457
275 0.144188
280 0.0894719
285 0.109494
290 0.114026
295 0.139715
300 0.170682
305 0.127965
310 0.102969
315 0.163194
320 0.132832
325 0.172433
330 0.161186
335 0.117447
340 0.149242
345 0.154406
350 0.108107
355 0.154285
360 0.141542
365 0.0996746
370 0.254622
375 0.221755
380 0.104635
385 0.108942
390 0.197891
395 0.11694
400 0.149452
405 0.176942
410 0.196136
415 0.211421
420 0.225257
425 0.200545
430 0.201386
435 0.276312
440 0.209128
445 0.291307
450 0.276533
455 0.294703
460 0.4038
465 0.463164
470 0.478561
475 0.539617
480 0.947416
485 1.53509
490 2.44146
495 98.4591
500 1526.61
505 2169.02
510 528.139
515 63.5054
520 9.28006
525 2.86028
530 1.81764
535 1.65967
540 1.71078
545 1.52787
550 1.15796
555 1.09189
560 0.967585
565 0.984597
570 0.785996
575 0.698496
580 0.626097
585 0.665896
590 0.766847
595 0.773044
600 0.136863
Ex : 513
200 0.14632
205 0.133125
210 0.124326
215 0.132573
220 0.103617
225 0.0881093
230 0.155067
235 0.133905
240 0.119456
245 0.111101
250 0.114503
255 0.11719
260 0.142088
265 0.12127
270 0.123746
275 0.154677
280 0.169813
285 0.102309
290 0.105156
295 0.0943739
300 0.164455
305 0.142875
310 0.149856
315 0.148988
320 0.132152
325 0.140645
330 0.132151
335 0.110476
340 0.154823
345 0.171233
350 0.138065
355 0.184218
360 0.204374
365 0.115681
370 0.137997
375 0.185058
380 0.0955994
385 0.162422
390 0.253221
395 0.219383
400 0.155108
405 0.241296
410 0.197304
415 0.185133
420 0.177538
425 0.193179
430 0.175495
435 0.188221
440 0.244165
445 0.296986
450 0.338742
455 0.293299
460 0.322403
465 0.377153
470 0.469517
475 0.467516
480 0.76813
485 1.07911
490 1.60004
495 2.23735
500 88.9765
505 1498.18
510 2190.54
515 545.122
520 65.6813
525 9.45089
530 2.81983
535 1.99522
540 1.51395
545 1.47095
550 1.52339
555 1.23007
560 0.924293
565 0.903715
570 0.78074
575 0.641324
580 0.564154
585 0.549389
590 0.47085
595 0.661204
600 0.214738
Ex : 518
200 0.127237
205 0.117829
210 0.0920963
215 0.164523
220 0.165742
225 0.198979
230 0.131122
235 0.124357
240 0.11418
245 0.19721
250 0.11385
255 0.13582
260 0.15255
265 0.126833
270 0.106976
275 0.150871
280 0.228732
285 0.15781
290 0.156631
295 0.113536
300 0.132305
305 0.163213
310 0.222555
315 0.223182
320 0.145254
325 0.132324
330 0.235866
335 0.184872
340 0.137372
345 0.0917273
350 0.145703
355 0.182947
360 0.198776
365 0.116716
370 0.118466
375 0.158144
380 0.16665
385 0.145055
390 0.209663
395 0.256356
400 0.372914
405 0.187259
410 0.189896
415 0.231198
420 0.16301
425 0.167353
430 0.210481
435 0.256258
440 0.205356
445 0.276599
450 0.306543
455 0.333926
460 0.286075
465 0.30468
470 0.423205
475 0.383584
480 0.475388
485 0.724577
490 0.87817
495 1.37366
500 2.3003
505 92.8518
510 1483.41
515 2223
520 552.424
525 66.3933
530 9.73081
535 2.87253
540 1.78314
545 1.40756
550 1.45753
555 1.39561
560 1.12771
565 1.0009
570 0.858456
575 0.834055
580 0.566432
585 0.481495
590 0.457094
595 0.420851
600 0.258892
Ex : 523
200 0.130353
205 0.201403
210 0.168363
215 0.0917816
220 0.137944
225 0.0925536
230 0.127347
235 0.145897
240 0.112826
245 0.18154
250 0.160812
255 0.146111
260 0.182521
265 0.150469
270 0.147431
275 0.15011
280 0.159384
285 0.149142
290 0.168457
295 0.17947
300 0.195117
305 0.122433
310 0.127602
315 0.16587
320 0.122703
325 0.0943167
330 0.194774
335 0.133778
340 0.177628
345 0.125582
350 0.149435
355 0.23761
360 0.104068
365 0.200558
370 0.163014
375 0.116125
380 0.134704
385 0.184634
390 0.153499
395 0.172459
400 0.127969
405 0.181719
410 0.152673
415 0.149594
420 0.236755
425 0.134523
430 0.18982
435 0.247752
440 0.221437
445 0.276059
450 0.267897
455 0.332984
460 0.367048
465 0.357462
470 0.262386
475 0.378093
480 0.488335
485 0.569142
490 0.705769
495 0.922996
500 1.40282
505 2.31857
510 85.2589
515 1449.5
520 2210.24
525 566.261
530 67.7618
535 9.68933
540 2.91451
545 1.82408
550 1.27874
555 1.25018
560 1.27248
565 1.09255
570 0.907658
575 0.71413
580 0.624422
585 0.490089
590 0.483318
595 0.380465
600 0.0519837
Ex : 528
200 0.175145
205 0.188701
210 0.120705
215 0.132754
220 0.123234
225 0.133901
230 0.149055
235 0.140946
240 0.0921795
245 0.144076
250 0.153568
255 0.211576
260 0.193704
265 0.202006
270 0.11614
275 0.105746
280 0.1414
285 0.144632
290 0.108072
295 0.211678
300 0.174266
305 0.182818
310 0.105558
315 0.122464
320 0.123447
325 0.114958
330 0.13066
335 0.168215
340 0.173538
345 0.161021
350 0.153667
355 0.17318
360 0.233128
365 0.169312
370 0.234671
375 0.182723
380 0.203475
385 0.20033
390 0.177972
395 0.216501
400 0.175367
405 0.138832
410 0.173235
415 0.193132
420 0.152097
425 0.202732
430 0.252103
435 0.248296
440 0.252865
445 0.272109
450 0.202019
455 0.353394
460 0.245894
465 0.324214
470 0.43722
475 0.313
480 0.340482
485 0.479401
490 0.574034
495 0.648976
500 0.897498
505 1.33169
510 2.12122
515 79.1978
520 1425.29
525 2201.39
530 565.7
535 67.7578
540 9.59818
545 2.75651
550 1.6188
555 1.31154
560 1.2006
565 1.09559
570 0.924942
575 0.758349
580 0.596169
585 0.42421
590 0.411327
595 0.489044
600 0.758186
Ex : 533
200 0.105963
205 0.12076
210 0.150287
215 0.137613
220 0.130956
225 0.162157
230 0.2046
235 0.147758
240 0.187658
245 0.157908
250 0.119154
255 0.160535
260 0.17469
265 0.178245
270 0.18713
275 0.197734
280 0.143509
285 0.133678
290 0.141543
295 0.166854
300 0.187309
305 0.148091
310 0.136634
315 0.159861
320 0.123299
325 0.178541
330 0.215747
335 0.202416
340 0.22188
345 0.1675
350 0.170378
355 0.171079
360 0.16663
365 0.163967
370 0.123645
375 0.127014
380 0.094977
385 0.232583
390 0.125825
395 0.127418
400 0.198414
405 0.140665
410 0.170071
415 0.243964
420 0.183283
425 0.201254
430 0.25827
435 0.176071
440 0.34111
445 0.180987
450 0.256828
455 0.325036
460 0.376938
465 0.373496
470 0.36863
475 0.319248
480 0.377604
485 0.425022
490 0.486229
495 0.635319
500 0.680652
505 0.858573
510 1.48687
515 2.28099
520 81.2495
525 1397.48
530 2188.27
535 567.623
540 68.0498
545 9.78278
550 2.44943
555 1.52367
560 1.06004
565 0.813129
570 0.943469
575 0.770206
580 0.614256
585 0.465626
590 0.469656
595 0.430408
600 1.0419
Ex : 538
200 0.0910714
205 0.156044
210 0.190266
215 0.172957
220 0.118251
225 0.137886
230 0.133376
235 0.139021
240 0.181754
245 0.15174
250 0.148982
255 0.117166
260 0.112524
265 0.202557
270 0.138124
275 0.14862
280 0.145084
285 0.140677
290 0.134253
295 0.152472
300 0.128944
305 0.157473
310 0.175962
315 0.166749
320 0.167194
325 0.13925
330 0.158961
335 0.132302
340 0.134108
345 0.146168
350 0.14687
355 0.14485
360 0.141474
365 0.157998
370 0.155443
375 0.153214
380 0.205362
385 0.219577
390 0.204663
395 0.2087
400 0.21252
405 0.169084
410 0.190116
415 0.193236
420 0.154531
425 0.210661
430 0.187956
435 0.160682
440 0.212626
445 0.165045
450 0.267171
455 0.23263
460 0.266937
465 0.332264
470 0.311824
475 0.268345
480 0.322461
485 0.351177
490 0.43555
495 0.427335
500 0.498859
505 0.623778
510 0.778138
515 1.36791
520 2.25149
525 69.5456
530 1334.66
535 2209.35
540 606.818
545 72.7658
550 10.1269
555 2.44247
560 1.33955
565 0.973414
570 0.883957
575 0.718179
580 0.647505
585 0.438821
590 0.447252
595 0.34576
600 0.276299
Ex : 543
200 0.137378
205 0.130782
210 0.133828
215 0.14612
220 0.109304
225 0.163434
230 0.0998395
235 0.165989
240 0.161684
245 0.213012
250 0.156055
255 0.160063
260 0.135921
265 0.153441
270 0.181699
275 0.170104
280 0.150367
285 0.132815
290 0.129334
295 0.125611
300 0.133966
305 0.12821
310 0.106299
315 0.113642
320 0.129587
325 0.134581
330 0.210448
335 0.168568
340 0.178817
345 0.306327
350 0.18557
355 0.121089
360 0.116681
365 0.13629
370 0.170707
375 0.128495
380 0.153489
385 0.196678
390 0.236547
395 0.209029
400 0.160162
405 0.173008
410 0.253469
415 0.167944
420 0.193624
425 0.246498
430 0.161804
435 0.268202
440 0.193125
445 0.212861
450 0.227687
455 0.291913
460 0.247061
465 0.255412
470 0.281642
475 0.234107
480 0.424545
485 0.37428
490 0.330541
495 0.360255
500 0.377195
505 0.627074
510 0.723922
515 0.862422
520 1.15683
525 2.08018
530 62.7877
535 1284.26
540 2181.57
545 606.239
550 72.8766
555 9.97208
560 2.42458
565 1.28228
570 0.708874
575 0.736301
580 0.693149
585 0.572269
590 0.394905
595 0.355481
600 0.262003
Ex : 548
200 0.156879
205 0.143521
210 0.149305
215 0.202762
220 0.16243
225 0.143874
230 0.212496
235 0.169865
240 0.146624
245 0.141508
250 0.130627
255 0.237469
260 0.106567
265 0.0792379
270 0.170737
275 0.183321
280 0.101996
285 0.122427
290 0.139585
295 0.157831
300 0.144095
305 0.169558
310 0.178518
315 0.180342
320 0.142645
325 0.153745
330 0.140671
335 0.172461
340 0.153406
345 0.213665
350 0.230712
355 0.131395
360 0.170198
365 0.172062
370 0.168947
375 0.209902
380 0.151697
385 0.236419
390 0.215684
395 0.149904
400 0.205612
405 0.249593
410 0.225607
415 0.147544
420 0.21832
425 0.258958
430 0.221638
435 0.225066
440 0.197037
445 0.202811
450 0.253791
455 0.247543
460 0.266884
465 0.293574
470 0.285584
475 0.272698
480 0.240926
485 0.264987
490 0.262913
495 0.347094
500 0.336796
505 0.407486
510 0.573332
515 0.561036
520 0.951138
525 1.29786
530 2.11638
535 71.5158
540 1325.26
545 2173.16
550 604.788
555 72.093
560 9.77792
565 2.16221
570 1.12379
575 0.819108
580 0.761668
585 0.454164
590 0.503935
595 0.525051
600 0.404102
Ex : 553
200 0.173343
205 0.114236
210 0.173561
215 0.132318
220 0.108251
225 0.127192
230 0.142093
235 0.169041
240 0.156899
245 0.123846
250 0.133011
255 0.0907241
260 0.144823
265 0.229856
270 0.324631
275 0.153973
280 0.131927
285 0.137295
290 0.142313
295 0.180859
300 0.184721
305 0.144156
310 0.164894
315 0.110917
320 0.202354
325 0.137184
330 0.233435
335 0.153342
340 0.170505
345 0.190129
350 0.180565
355 0.161794
360 0.150744
365 0.161785
370 0.209491
375 0.193535
380 0.171607
385 0.206973
390 0.203479
395 0.213065
400 0.155998
405 0.182477
410 0.193656
415 0.181099
420 0.17387
425 0.134785
430 0.129654
435 0.278482
440 0.217416
445 0.198113
450 0.252236
455 0.267877
460 0.239303
465 0.229082
470 0.29102
475 0.24619
480 0.219157
485 0.313662
490 0.322795
495 0.387271
500 0.315711
505 0.376554
510 0.398949
515 0.605579
520 0.524169
525 0.984269
530 1.12241
535 2.14587
540 60.2312
545 1244.65
550 2137.57
555 608.731
560 72.9055
565 9.80191
570 2.09868
575 1.0475
580 0.706676
585 0.473815
590 0.471998
595 0.647722
600 0.412551
Ex : 558
200 0.222302
205 0.194305
210 0.147105
215 0.146363
220 0.19917
225 0.18274
230 0.0886162
235 0.218889
240 0.110423
245 0.109121
250 0.138816
255 0.185534
260 0.131359
265 0.152953
270 0.181707
275 0.157551
280 0.156213
285 0.125678
290 0.14147
295 0.130889
300 0.122641
305 0.167872
310 0.157484
315 0.212667
320 0.189055
325 0.201598
330 0.177798
335 0.172533
340 0.138444
345 0.171788
350 0.205126
355 0.155543
360 0.139572
365 0.17209
370 0.135868
375 0.217449
380 0.194051
385 0.255408
390 0.207308
395 0.18589
400 0.155563
405 0.23056
410 0.188049
415 0.212199
420 0.22911
425 0.214475
430 0.21711
435 0.216086
440 0.216028
445 0.24894
450 0.274496
455 0.226332
460 0.210936
465 0.379204
470 0.194882
475 0.281419
480 0.322602
485 0.32938
490 0.333652
495 0.272198
500 0.271312
505 0.318494
510 0.355112
515 0.44252
520 0.518129
525 0.572608
530 0.908274
535 1.16415
540 2.01871
545 57.1606
550 1177.05
555 2089.69
560 598.41
565 71.5985
570 9.6007
575 1.9249
580 0.828441
585 0.59876
590 0.482885
595 0.374266
600 0.160039
Ex : 563
200 0.155321
205 0.15372
210 0.204639
215 0.201667
220 0.149455
225 0.138094
230 0.146412
235 0.171548
240 0.175303
245 0.190744
250 0.137927
255 0.154103
260 0.160905
265 0.197713
270 0.149118
275 0.135316
280 0.126784
285 0.129181
290 0.166886
295 0.18874
300 0.149069
305 0.164201
310 0.232264
315 0.203141
320 0.126062
325 0.173053
330 0.23902
335 0.154781
340 0.18286
345 0.171299
350 0.178046
355 0.176393
360 0.169293
365 0.206619
370 0.137591
375 0.304634
380 0.231483
385 0.233718
390 0.145101
395 0.176045
400 0.171984
405 0.127223
410 0.223385
415 0.164901
420 0.287637
425 0.22705
430 0.173141
435 0.210876
440 0.276858
445 0.215764
450 0.300705
455 0.286527
460 0.243928
465 0.231313
470 0.269454
475 0.220469
480 0.302534
485 0.296751
490 0.330361
495 0.295898
500 0.339794
505 0.332304
510 0.323923
515 0.339904
520 0.421145
525 0.524452
530 0.668904
535 0.798952
540 1.12992
545 1.91645
550 55.5643
555 1151.81
560 2045.26
565 597.571
570 71.2918
575 9.51803
580 1.91016
585 0.851869
590 0.466102
595 0.488859
600 0.40791
Ex : 568
200 0.19044
205 0.245569
210 0.181384
215 0.338233
220 0.208903
225 0.145028
230 0.162022
235 0.109014
240 0.189701
245 0.169538
250 0.223539
255 0.14694
260 0.221008
265 0.13753
270 0.118196
275 0.239007
280 0.116747
285 0.163151
290 0.129871
295 0.190331
300 0.144962
305 0.159983
310 0.178122
315 0.164261
320 0.171425
325 0.24099
330 0.242493
335 0.212898
340 0.222054
345 0.175898
350 0.182984
355 0.144273
360 0.175037
365 0.207492
370 0.157711
375 0.183676
380 0.158674
385 0.192057
390 0.195299
395 0.176887
400 0.143814
405 0.199209
410 0.331306
415 0.206989
420 0.165358
425 0.198482
430 0.160077
435 0.147961
440 0.195684
445 0.136868
450 0.21139
455 0.213003
460 0.262285
465 0.24959
470 0.296693
475 0.349244
480 0.282402
485 0.25331
490 0.298825
495 0.325091
500 0.296394
505 0.311152
510 0.327636
515 0.382746
520 0.409357
525 0.358439
530 0.403574
535 0.629191
540 0.84522
545 1.13985
550 1.7747
555 42.5753
560 1060.08
565 1993.6
570 603.437
575 72.5667
580 9.25316
585 1.75694
590 0.722117
595 0.464738
600 0.168092
Ex : 573
200 0.0990068
205 0.173416
210 0.102558
215 0.138793
220 0.114371
225 0.164393
230 0.220117
235 0.237389
240 0.171345
245 0.129428
250 0.157308
255 0.183625
260 0.200238
265 0.141557
270 0.167063
275 0.32036
280 0.231762
285 0.220712
290 0.211337
295 0.244999
300 0.246298
305 0.143374
310 0.11748
315 0.131967
320 0.221897
325 0.275963
330 0.150665
335 0.14594
340 0.18021
345 0.188338
350 0.163988
355 0.172212
360 0.168964
365 0.20128
370 0.259254
375 0.181728
380 0.201672
385 0.204591
390 0.186906
395 0.185512
400 0.169586
405 0.175554
410 0.232299
415 0.140979
420 0.218088
425 0.255169
430 0.222195
435 0.202075
440 0.180121
445 0.241101
450 0.236326
455 0.225614
460 0.382264
465 0.274518
470 0.330844
475 0.232717
480 0.234202
485 0.274265
490 0.238925
495 0.302333
500 0.437747
505 0.313329
510 0.334959
515 0.260515
520 0.343247
525 0.320196
530 0.318874
535 0.534273
540 0.584458
545 0.754023
550 0.827065
555 1.66387
560 36.7333
565 922.797
570 1863.77
575 577.052
580 69.1633
585 8.7769
590 1.65796
595 0.675517
600 0.0768713
Ex : 578
200 0.14318
205 0.182122
210 0.14664
215 0.142461
220 0.168598
225 0.140425
230 0.168713
235 0.173668
240 0.170791
245 0.152763
250 0.152766
255 0.175723
260 0.117867
265 0.194315
270 0.175765
275 0.150696
280 0.175694
285 0.124253
290 0.162081
295 0.236197
300 0.186847
305 0.196796
310 0.156443
315 0.177314
320 0.142263
325 0.207035
330 0.181182
335 0.165688
340 0.205082
345 0.142857
350 0.28328
355 0.26848
360 0.161852
365 0.195861
370 0.196775
375 0.18256
380 0.240516
385 0.175311
390 0.164383
395 0.238412
400 0.230982
405 0.209102
410 0.231583
415 0.186054
420 0.177203
425 0.265769
430 0.252995
435 0.147942
440 0.160829
445 0.177185
450 0.24787
455 0.270043
460 0.205832
465 0.247731
470 0.284418
475 0.213615
480 0.248043
485 0.290043
490 0.347623
495 0.292265
500 0.261115
505 0.250649
510 0.320255
515 0.28981
520 0.316339
525 0.38288
530 0.407227
535 0.28373
540 0.403037
545 0.543884
550 0.517048
555 1.00894
560 1.38706
565 31.9485
570 847.493
575 1679.41
580 505.722
585 60.5166
590 7.64333
595 1.38962
600 0.592192
Ex : 583
200 0.142238
205 0.160549
210 0.156495
215 0.138984
220 0.164385
225 0.171248
230 0.228457
235 0.148284
240 0.191631
245 0.220657
250 0.124224
255 0.189802
260 0.200976
265 0.140151
270 0.142379
275 0.163259
280 0.144946
285 0.204909
290 0.139658
295 0.123616
300 0.166605
305 0.162268
310 0.139762
315 0.150433
320 0.313163
325 0.219164
330 0.218994
335 0.21555
340 0.13388
345 0.147883
350 0.203523
355 0.1878
360 0.242885
365 0.226052
370 0.243159
375 0.117273
380 0.176438
385 0.123387
390 0.244176
395 0.197214
400 0.269114
405 0.244985
410 0.304659
415 0.231636
420 0.231576
425 0.213539
430 0.226445
435 0.202263
440 0.253856
445 0.217467
450 0.172917
455 0.244963
460 0.195166
465 0.214002
470 0.304996
475 0.315948
480 0.344737
485 0.227334
490 0.301215
495 0.176592
500 0.150411
505 0.20054
510 0.230243
515 0.182344
520 0.163939
525 0.280495
530 0.438691
535 0.439391
540 0.377712
545 0.447951
550 0.50128
555 0.839462
560 1.02096
565 1.47351
570 28.7888
575 757.904
580 1427.62
585 414.489
590 49.5776
595 6.31961
600 1.90282
Ex : 588
200 0.12618
205 0.190003
210 0.1477
215 0.100663
220 0.107922
225 0.125559
230 0.111714
235 0.177555
240 0.138763
245 0.121982
250 0.173779
255 0.116335
260 0.212492
265 0.196609
270 0.257817
275 0.178447
280 0.114358
285 0.0861737
290 0.180709
295 0.154735
300 0.189241
305 0.172793
310 0.0865263
315 0.162958
320 0.111008
325 0.138572
330 0.120867
335 0.126468
340 0.172964
345 0.197354
350 0.157389
355 0.144379
360 0.213979
365 0.254851
370 0.275812
375 0.145601
380 0.286814
385 0.202507
390 0.191405
395 0.161918
400 0.213286
405 0.25928
410 0.198759
415 0.214092
420 0.289916
425 0.258568
430 0.184545
435 0.209039
440 0.143533
445 0.25126
450 0.223407
455 0.245169
460 0.183162
465 0.356118
470 0.233078
475 0.191152
480 0.228523
485 0.200056
490 0.230221
495 0.199964
500 0.258379
505 0.194395
510 0.267456
515 0.269241
520 0.298486
525 0.340505
530 0.504522
535 0.421746
540 0.290455
545 0.339438
550 0.448222
555 0.47389
560 0.654436
565 0.827676
570 1.17814
575 25.0995
580 632.821
585 1240.47
590 372.985
595 44.3321
600 5.40307
Ex : 593
200 0.217212
205 0.163172
210 0.213546
215 0.135972
220 0.142484
225 0.268864
230 0.230121
235 0.15187
240 0.237075
245 0.157882
250 0.13709
255 0.171885
260 0.0979382
265 0.181341
270 0.162959
275 0.148096
280 0.0824141
285 0.23029
290 0.172631
295 0.135473
300 0.172793
305 0.168163
310 0.19965
315 0.245273
320 0.142976
325 0.19523
330 0.186866
335 0.232105
340 0.155179
345 0.139072
350 0.143115
355 0.179964
360 0.158512
365 0.25023
370 0.21726
375 0.229047
380 0.160343
385 0.238798
390 0.23994
395 0.207533
400 0.128743
405 0.128538
410 0.170762
415 0.18691
420 0.225356
425 0.153757
430 0.120879
435 0.180249
440 0.219811
445 0.167025
450 0.202564
455 0.298549
460 0.157142
465 0.228609
470 0.234816
475 0.241549
480 0.267955
485 0.254927
490 0.221538
495 0.292156
500 0.379105
505 0.258604
510 0.189815
515 0.352694
520 0.255345
525 0.323926
530 0.262769
535 0.304196
540 0.25285
545 0.351814
550 0.457015
555 0.370246
560 0.480765
565 0.645192
570 0.6848
575 1.2512
580 21.2024
585 558.915
590 1077.53
595 323.574
600 46.7376
Ex : 598
200 0.154438
205 0.274849
210 0.189408
215 0.181333
220 0.138628
225 0.158835
230 0.241607
235 0.296857
240 0.129451
245 0.156577
250 0.119122
255 0.183014
260 0.121769
265 0.131097
270 0.250295
275 0.131212
280 0.0908869
285 0.195635
290 0.147881
295 0.225713
300 0.181051
305 0.260059
310 0.213847
315 0.123509
320 0.189654
325 0.202245
330 0.280795
335 0.287692
340 0.333777
345 0.233944
350 0.198837
355 0.1498
360 0.170129
365 0.261312
370 0.1531
375 0.168308
380 0.2415
385 0.153581
390 0.166607
395 0.184534
400 0.150614
405 0.236843
410 0.170281
415 0.197051
420 0.204123
425 0.238284
430 0.1721
435 0.234721
440 0.124509
445 0.181203
450 0.188448
455 0.184649
460 0.285486
465 0.196117
470 0.142942
475 0.236934
480 0.179617
485 0.276384
490 0.237479
495 0.22832
500 0.240286
505 0.272914
510 0.194291
515 0.268862
520 0.339124
525 0.368559
530 0.387149
535 0.261202
540 0.285831
545 0.32243
550 0.335837
555 0.248899
560 0.436125
565 0.415396
570 0.52713
575 0.682484
580 0.993903
585 21.3666
590 509.675
595 958.745
600 603.858
Ex : 603
200 0.247274
205 0.25879
210 0.116851
215 0.167267
220 0.205788
225 0.184182
230 0.127052
235 0.264026
240 0.216164
245 0.178168
250 0.207946
255 0.241846
260 0.17147
265 0.107418
270 0.234341
275 0.179888
280 0.148827
285 0.117896
290 0.208192
295 0.212944
300 0.249878
305 0.146526
310 0.121594
315 0.103441
320 0.146887
325 0.188577
330 0.149626
335 0.20587
340 0.191097
345 0.25958
350 0.146117
355 0.179008
360 0.174144
365 0.146915
370 0.216005
375 0.221166
380 0.168678
385 0.230771
390 0.254891
395 0.174116
400 0.218113
405 0.15885
410 0.147115
415 0.193494
420 0.204087
425 0.193823
430 0.25393
435 0.246435
440 0.22078
445 0.205747
450 0.215678
455 0.22249
460 0.168367
465 0.2054
470 0.224823
475 0.290746
480 0.239481
485 0.210971
490 0.282324
495 0.258823
500 0.263964
505 0.203828
510 0.21381
515 0.271179
520 0.304181
525 0.304846
530 0.305283
535 0.237052
540 0.323018
545 0.294292
550 0.268176
555 0.405962
560 0.494806
565 0.472767
570 0.426249
575 0.574096
580 0.596562
585 0.89494
590 18.8557
595 445.057
600 900.372
