File format V 1.0
ven. 6. janv. 00:40:26 2017
Operator : 
Comments : 

=============================================
SpectroFluorometer parameters
Mode : 3D measurement
Data : Fluorescence
Phospho. : Ordinary
Spectrum : Fluorescence

Scan speed : 2400 nm/mn
Response : 100 ms
PM Voltage : 700 V
Shutter : On

Lambda Ex. Start : 203
Lambda Ex. End : 603
Lambda Ex. Step : 5
Ex. Slit : 5 nm

Lambda Em. Start : 200
Lambda Em. End : 600
Lambda Em. Step : 5
Em. Slit : 5 nm

Repetition : 1
Decal lambda em : 10
=============================================
DATA
Ex : 203
200 2.89222
205 2.24539
210 3.25548
215 2.28489
220 3.58177
225 5.82875
230 6.1406
235 4.04974
240 3.50285
245 2.1767
250 1.84763
255 5.09965
260 6.13017
265 3.69983
270 4.70763
275 5.31136
280 2.62021
285 1.60747
290 1.87853
295 1.98618
300 2.28498
305 6.38174
310 4.30097
315 6.10968
320 5.54133
325 3.24161
330 8.20742
335 4.51805
340 5.65533
345 4.12968
350 3.84822
355 4.27046
360 2.89933
365 6.70675
370 4.91378
375 3.08764
380 3.13082
385 4.59489
390 4.01431
395 4.17995
400 6.97052
405 8.01662
410 3.8304
415 3.7562
420 6.32703
425 9.94759
430 6.88671
435 6.06473
440 3.02541
445 4.67827
450 4.57808
455 4.44719
460 3.13954
465 5.30857
470 2.60971
475 2.1084
480 4.24232
485 5.23712
490 7.47635
495 3.149
500 2.43162
505 5.68025
510 5.18592
515 6.16484
520 6.85673
525 4.02389
530 2.94632
535 3.3352
540 3.32616
545 3.66584
550 3.51887
555 2.70939
560 4.21315
565 4.61506
570 5.04977
575 3.97176
580 3.51283
585 2.78222
590 4.93709
595 6.93864
600 4.33441
Ex : 208
200 1.45122
205 3.09019
210 4.42698
215 4.1172
220 3.93481
225 8.33304
230 4.53795
235 3.80636
240 4.51716
245 4.85298
250 2.08514
255 3.84364
260 8.80294
265 2.73137
270 4.36779
275 2.03433
280 4.26545
285 1.6095
290 4.85587
295 3.72954
300 4.64076
305 4.63585
310 3.25727
315 4.31587
320 2.98472
325 2.74768
330 3.8057
335 2.58272
340 3.56428
345 3.11469
350 4.12393
355 2.95066
360 2.9533
365 6.56252
370 4.69972
375 4.1104
380 2.14588
385 4.1363
390 3.2661
395 4.34823
400 14.6183
405 3.52237
410 9.61269
415 3.76358
420 6.54954
425 6.12162
430 5.86324
435 3.2928
440 5.49826
445 5.58842
450 2.80152
455 2.89536
460 4.6128
465 3.73812
470 2.76829
475 2.50412
480 2.20606
485 4.16929
490 3.90295
495 3.10882
500 4.34455
505 6.06389
510 6.69039
515 6.75163
520 6.55898
525 3.74932
530 3.85443
535 3.47216
540 5.63178
545 2.88147
550 7.44406
555 5.92991
560 2.32557
565 3.03884
570 2.88933
575 3.33065
580 2.34171
585 4.78217
590 3.3556
595 3.32428
600 0.378291
Ex : 213
200 8.08696
205 4.30197
210 3.67758
215 3.58838
220 2.50941
225 3.77859
230 3.14972
235 7.72858
240 5.25803
245 5.13593
250 4.71827
255 7.52935
260 4.25297
265 4.56051
270 3.94641
275 3.50388
280 6.04185
285 4.50455
290 2.1261
295 5.09363
300 5.08956
305 3.61092
310 2.59233
315 2.86608
320 4.17731
325 3.85468
330 3.55503
335 2.58129
340 2.11663
345 3.59129
350 1.87977
355 9.19818
360 3.05729
365 2.59584
370 2.61585
375 3.18242
380 7.15841
385 4.18789
390 3.48837
395 3.20519
400 6.29272
405 2.61093
410 2.84639
415 4.03868
420 7.06895
425 2.69461
430 5.74316
435 6.243
440 7.02391
445 4.86777
450 1.9225
455 4.50987
460 3.53912
465 4.45652
470 2.43315
475 5.9929
480 9.04009
485 8.2611
490 4.57657
495 3.57149
500 7.41873
505 8.35163
510 3.68853
515 3.54314
520 3.38982
525 5.93522
530 2.74889
535 3.99026
540 6.41974
545 9.30297
550 4.22128
555 4.23113
560 1.69419
565 5.32564
570 4.42008
575 2.1472
580 3.75962
585 3.90851
590 2.43455
595 5.46361
600 7.41597
Ex : 218
200 3.08434
205 2.19322
210 3.91256
215 2.07181
220 4.4977
225 2.10467
230 6.69038
235 4.49693
240 3.15319
245 2.61809
250 4.58219
255 2.68706
260 4.17126
265 2.073
270 3.26327
275 3.53871
280 3.09675
285 5.15938
290 3.52502
295 3.7453
300 8.26968
305 3.33605
310 2.83683
315 2.71797
320 2.64713
325 2.27458
330 2.41605
335 3.08125
340 2.16627
345 3.31795
350 3.46848
355 6.39997
360 7.04784
365 8.09523
370 4.5706
375 5.08925
380 3.5605
385 5.50683
390 7.16925
395 10.3783
400 4.10393
405 3.54032
410 1.94989
415 2.381
420 6.12561
425 3.4658
430 2.43629
435 3.59784
440 6.55454
445 3.93978
450 7.2463
455 4.61866
460 4.47322
465 3.82064
470 6.30954
475 3.27004
480 4.82543
485 2.70823
490 5.57996
495 8.06675
500 2.98386
505 3.21417
510 4.94179
515 3.08505
520 4.30537
525 3.90732
530 3.36855
535 2.16138
540 2.98211
545 5.28228
550 3.45665
555 3.00051
560 2.4263
565 2.32976
570 8.16516
575 2.23274
580 6.09393
585 2.83373
590 6.66864
595 5.16544
600 4.66434
Ex : 223
200 4.62941
205 6.32306
210 1.88042
215 5.97141
220 3.33307
225 2.12898
230 3.3552
235 6.95214
240 3.86219
245 5.66344
250 1.73691
255 3.8641
260 5.74043
265 4.33862
270 3.24728
275 3.2601
280 2.87228
285 1.81339
290 3.13941
295 8.1073
300 4.35035
305 2.48361
310 3.96645
315 3.69521
320 2.63067
325 3.76759
330 2.51843
335 4.65992
340 3.2332
345 2.84081
350 2.94926
355 4.96236
360 6.32502
365 5.17322
370 2.61034
375 4.69092
380 5.93493
385 4.33454
390 5.97845
395 3.98444
400 3.94934
405 5.73995
410 4.10532
415 2.85723
420 1.37143
425 2.56147
430 3.94056
435 2.42355
440 3.50204
445 2.89946
450 4.6583
455 4.03271
460 7.52862
465 3.51534
470 3.40988
475 6.35589
480 7.08834
485 8.53321
490 8.03245
495 4.20177
500 7.96657
505 5.87656
510 5.21337
515 1.32667
520 4.74649
525 4.52805
530 2.66665
535 4.20605
540 4.22717
545 4.52803
550 2.63421
555 5.32519
560 4.70752
565 1.83831
570 2.02647
575 4.31669
580 5.37928
585 3.31321
590 4.33252
595 2.42214
600 3.37734
Ex : 228
200 3.51667
205 2.99971
210 2.87415
215 3.753
220 4.90055
225 5.29224
230 2.52672
235 3.76145
240 2.67763
245 1.98236
250 2.04019
255 2.19447
260 5.31294
265 2.62058
270 8.72501
275 3.74391
280 4.51545
285 1.8808
290 1.155
295 3.60469
300 3.42901
305 0.889705
310 2.32783
315 3.70606
320 4.06798
325 4.76655
330 4.28586
335 2.13501
340 6.75857
345 1.81051
350 4.63705
355 4.98943
360 2.33488
365 3.28709
370 4.40835
375 2.61193
380 1.83912
385 1.61374
390 3.23218
395 2.97138
400 4.25665
405 3.09458
410 3.26168
415 4.49642
420 5.70157
425 3.56221
430 5.71728
435 3.10226
440 3.09675
445 5.03967
450 4.94269
455 2.91566
460 5.24568
465 3.66623
470 4.99513
475 3.97125
480 2.89035
485 3.08485
490 3.67562
495 3.83573
500 4.31223
505 3.18539
510 4.27789
515 2.83323
520 5.84294
525 4.5665
530 2.90004
535 5.07266
540 3.75929
545 3.37126
550 2.76957
555 2.70238
560 3.10925
565 6.60938
570 1.83168
575 3.00947
580 8.35296
585 5.69726
590 3.29657
595 3.54983
600 0.403957
Ex : 233
200 4.6134
205 3.56412
210 4.28572
215 1.22128
220 1.98565
225 2.05712
230 2.48592
235 2.59299
240 1.83591
245 3.73276
250 4.21754
255 2.99167
260 2.6854
265 3.45815
270 3.16113
275 1.39279
280 3.30175
285 3.85582
290 6.37962
295 5.63241
300 1.97025
305 3.66175
310 3.85663
315 5.18566
320 3.1235
325 2.8687
330 3.74051
335 4.83323
340 1.56712
345 4.17328
350 5.23825
355 5.70426
360 4.07943
365 2.04233
370 4.66844
375 4.50679
380 3.73406
385 4.35164
390 4.0138
395 7.571
400 4.87355
405 5.48227
410 5.61064
415 6.69185
420 7.65953
425 3.08261
430 3.43057
435 4.2153
440 7.52525
445 3.97235
450 4.69211
455 4.09751
460 5.29005
465 1.7853
470 7.18448
475 3.37103
480 3.76287
485 2.49917
490 2.0568
495 7.14368
500 3.10004
505 2.09749
510 2.90211
515 3.33667
520 5.75441
525 4.78568
530 4.97561
535 2.28408
540 4.98453
545 4.22281
550 3.30291
555 2.81292
560 3.5952
565 4.60276
570 4.62985
575 4.32769
580 3.13233
585 2.53787
590 3.89151
595 3.83353
600 0.436241
Ex : 238
200 2.60274
205 2.28699
210 1.74294
215 4.35159
220 2.56154
225 2.68721
230 2.58777
235 3.32376
240 2.35805
245 3.75292
250 4.44907
255 3.82494
260 1.89204
265 1.1301
270 4.68852
275 2.93072
280 4.61752
285 3.10431
290 2.32401
295 2.08521
300 2.20393
305 2.83733
310 2.38352
315 1.46273
320 1.98273
325 1.72373
330 3.10558
335 4.81544
340 4.01186
345 2.70325
350 2.7326
355 2.89213
360 3.05723
365 4.07083
370 3.03324
375 3.4554
380 1.70121
385 1.81969
390 1.92684
395 2.44948
400 2.90781
405 3.87571
410 3.36673
415 3.60094
420 2.79379
425 2.20937
430 3.73863
435 3.99208
440 1.98574
445 2.20739
450 2.4488
455 3.99228
460 3.5901
465 2.88579
470 3.69164
475 1.9573
480 3.82958
485 1.68993
490 3.2424
495 2.36711
500 3.34242
505 2.63835
510 5.03655
515 1.94843
520 2.24613
525 1.89487
530 2.95521
535 2.97849
540 5.73342
545 2.29465
550 1.52417
555 3.44558
560 1.78926
565 2.73747
570 3.38112
575 2.21309
580 5.74016
585 1.96961
590 1.72552
595 3.74522
600 17.5595
Ex : 243
200 1.49782
205 2.28225
210 2.95685
215 1.63994
220 3.8013
225 2.49794
230 4.0694
235 3.99389
240 2.02151
245 2.29416
250 1.67601
255 1.72243
260 2.89775
265 1.53042
270 1.78544
275 1.92718
280 1.93824
285 2.7946
290 6.29613
295 3.99653
300 3.32609
305 3.08511
310 3.34746
315 3.03597
320 1.46187
325 4.32183
330 1.90454
335 1.55151
340 2.91336
345 3.28058
350 1.23799
355 0.996655
360 3.2321
365 2.65384
370 1.72291
375 2.54562
380 3.22456
385 2.44242
390 2.14839
395 3.28178
400 4.3759
405 3.33601
410 3.54569
415 3.26028
420 2.07986
425 4.2457
430 5.11151
435 6.70557
440 4.33792
445 4.4188
450 4.81827
455 2.32071
460 4.74311
465 2.15365
470 3.72632
475 3.83222
480 4.60235
485 4.06488
490 2.28421
495 1.58358
500 2.49854
505 2.85281
510 2.39858
515 2.39555
520 2.60604
525 3.14372
530 2.5333
535 3.98324
540 1.80136
545 2.1539
550 3.78615
555 3.89714
560 2.38936
565 1.76217
570 2.7369
575 4.03645
580 2.32683
585 1.90897
590 3.08212
595 1.72549
600 0.196354
Ex : 248
200 4.86268
205 2.42244
210 2.85032
215 1.87838
220 1.34279
225 4.05581
230 2.25954
235 1.32658
240 2.19752
245 1.07414
250 4.40393
255 2.65554
260 3.35086
265 5.09975
270 3.8664
275 2.1001
280 3.39928
285 1.58929
290 3.36982
295 1.36988
300 0.933577
305 1.6263
310 1.70111
315 2.99726
320 6.60251
325 2.73095
330 1.73113
335 1.2744
340 3.17288
345 4.7425
350 3.97104
355 2.52579
360 3.95532
365 4.1027
370 4.5612
375 2.79526
380 1.89743
385 1.89056
390 3.3342
395 2.56186
400 1.79677
405 2.90988
410 3.46573
415 2.073
420 2.73738
425 0.891564
430 3.05142
435 1.68699
440 2.16889
445 1.26407
450 2.23602
455 1.01714
460 3.1349
465 1.03627
470 2.12869
475 1.61936
480 2.12873
485 2.02087
490 2.37805
495 2.9881
500 5.75289
505 2.16846
510 1.69665
515 1.90307
520 1.36416
525 0.878864
530 1.07
535 2.52029
540 2.32633
545 2.12795
550 1.85695
555 1.58461
560 2.16567
565 1.57732
570 1.31663
575 4.23532
580 4.04591
585 2.37607
590 1.34585
595 3.48395
600 0.396461
Ex : 253
200 1.17416
205 1.40555
210 1.31825
215 1.70658
220 0.957108
225 2.14257
230 1.77006
235 2.4182
240 3.16838
245 2.20093
250 3.71931
255 0.896557
260 1.84387
265 2.92244
270 1.74479
275 2.95123
280 2.28295
285 1.60643
290 1.31997
295 1.57672
300 1.79118
305 1.13913
310 1.87664
315 1.75249
320 2.06974
325 1.7198
330 1.28218
335 0.948054
340 1.89807
345 1.18434
350 1.62298
355 2.37897
360 3.39509
365 1.58905
370 2.03052
375 4.62024
380 1.51979
385 3.37075
390 1.73071
395 2.07181
400 2.83735
405 1.49464
410 1.99852
415 1.79221
420 1.34702
425 3.84952
430 1.96764
435 2.86215
440 3.54007
445 1.64805
450 2.11619
455 3.85705
460 2.12168
465 1.51149
470 1.73738
475 1.34712
480 1.5988
485 2.40633
490 3.4907
495 1.99684
500 2.71984
505 2.13435
510 1.40507
515 2.44578
520 1.8993
525 2.88508
530 2.09026
535 2.161
540 2.89928
545 1.19522
550 2.76152
555 1.75826
560 2.53761
565 1.80944
570 0.837832
575 1.30027
580 2.18209
585 2.20451
590 1.07448
595 2.09432
600 0.238326
Ex : 258
200 1.08154
205 1.13843
210 2.63439
215 1.43831
220 0.910161
225 1.67927
230 1.72843
235 1.94134
240 1.19046
245 1.48282
250 1.14909
255 0.938468
260 1.06239
265 0.992871
270 0.662431
275 0.566822
280 1.36003
285 2.82535
290 1.40553
295 1.02419
300 0.837832
305 1.52097
310 1.91334
315 1.62902
320 0.99983
325 2.25442
330 1.40525
335 2.14493
340 2.54862
345 1.95041
350 2.42825
355 1.29997
360 1.54785
365 1.09344
370 1.54316
375 1.50077
380 1.34074
385 2.32559
390 1.36779
395 1.69625
400 2.48053
405 3.49144
410 3.00499
415 2.72363
420 2.19715
425 2.07565
430 2.70083
435 1.30157
440 1.2276
445 1.63225
450 2.43174
455 1.02268
460 2.51818
465 1.80024
470 0.867552
475 1.24977
480 2.74366
485 1.9082
490 2.48599
495 2.27387
500 1.61002
505 1.02245
510 1.76624
515 2.24373
520 3.26216
525 3.4155
530 1.27281
535 1.96783
540 1.18904
545 1.81536
550 1.76703
555 0.625005
560 2.01996
565 1.48482
570 1.86386
575 2.21803
580 1.98261
585 0.664846
590 1.13028
595 3.20858
600 0.365124
Ex : 263
200 1.64323
205 0.92524
210 0.866026
215 0.736301
220 0.904231
225 0.838027
230 1.04579
235 0.440563
240 0.66922
245 1.80324
250 0.722553
255 1.6274
260 1.41612
265 0.765521
270 0.818634
275 0.941229
280 0.351046
285 1.03023
290 1.26072
295 1.11225
300 0.874603
305 1.90757
310 0.903525
315 0.556506
320 0.937351
325 0.613069
330 1.38307
335 1.9155
340 1.50197
345 1.24626
350 0.735833
355 0.962096
360 1.31085
365 2.9621
370 1.1018
375 0.684845
380 1.71158
385 1.46947
390 1.86153
395 1.64046
400 2.33123
405 1.87486
410 1.47129
415 2.04922
420 1.29262
425 1.37879
430 0.689261
435 1.64658
440 1.67006
445 1.24936
450 1.15072
455 0.601596
460 2.38357
465 0.896248
470 0.831164
475 0.513629
480 1.40863
485 0.877413
490 1.41199
495 2.2343
500 1.55152
505 1.08915
510 0.64881
515 0.7972
520 2.02654
525 1.58406
530 2.16156
535 0.853882
540 1.24751
545 1.70411
550 0.773181
555 2.06966
560 1.0649
565 1.06501
570 1.27913
575 1.1524
580 0.681251
585 1.49851
590 1.26923
595 0.755882
600 0.0860165
Ex : 268
200 0.375683
205 0.673968
210 1.17961
215 0.597251
220 0.718516
225 0.882685
230 0.662675
235 0.579864
240 0.744315
245 0.645511
250 0.811337
255 0.900836
260 0.421049
265 0.589757
270 0.763064
275 0.908697
280 0.626851
285 0.915572
290 0.934461
295 1.28997
300 0.717821
305 0.741129
310 0.457154
315 0.570415
320 1.29252
325 2.13237
330 1.07019
335 0.924711
340 0.753125
345 0.964603
350 1.03653
355 0.789616
360 1.44141
365 1.32497
370 1.39539
375 1.5118
380 0.643864
385 1.21858
390 1.52419
395 0.974605
400 1.50843
405 1.48299
410 1.20225
415 1.2626
420 1.38163
425 0.785106
430 1.13423
435 1.17903
440 1.03514
445 1.23042
450 0.933127
455 0.907462
460 0.746033
465 1.0607
470 0.799184
475 0.458033
480 1.27126
485 1.40184
490 0.936031
495 0.661804
500 0.862773
505 0.98926
510 0.717462
515 0.951914
520 0.52346
525 0.867325
530 1.81079
535 2.09719
540 1.29209
545 1.24197
550 1.61712
555 0.780173
560 1.02877
565 1.33437
570 1.36481
575 0.819041
580 1.0066
585 0.63492
590 0.746404
595 1.49902
600 1.35219
Ex : 273
200 0.803708
205 0.542866
210 0.621167
215 1.03982
220 1.58515
225 0.808111
230 0.934001
235 0.639004
240 1.04578
245 1.09423
250 0.619633
255 0.524445
260 0.968356
265 1.49061
270 0.849575
275 0.412057
280 1.14225
285 0.295292
290 0.85608
295 0.807372
300 0.823237
305 0.677948
310 0.752445
315 0.858592
320 0.946407
325 0.721223
330 0.677782
335 0.878045
340 0.596352
345 0.6193
350 0.858211
355 0.628603
360 0.87191
365 0.491119
370 1.18649
375 0.360008
380 0.677316
385 1.04778
390 0.680396
395 1.09218
400 0.558895
405 1.02882
410 1.33004
415 0.709406
420 1.12349
425 0.548404
430 1.56925
435 1.05783
440 1.03003
445 1.4972
450 1.07452
455 1.20497
460 1.07168
465 0.921119
470 0.713781
475 0.941335
480 0.946682
485 1.12166
490 0.908368
495 0.710344
500 0.928378
505 0.810765
510 0.812241
515 1.58566
520 0.862741
525 0.902994
530 0.865235
535 0.82931
540 0.688421
545 1.03135
550 0.719591
555 0.503747
560 0.538521
565 0.758014
570 0.88683
575 0.677342
580 0.5679
585 1.0147
590 0.841705
595 1.24626
600 0.141819
Ex : 278
200 0.318512
205 0.439951
210 0.479886
215 0.600028
220 0.972355
225 0.788859
230 0.211976
235 1.23361
240 0.630501
245 0.297691
250 0.842145
255 0.3267
260 0.17512
265 0.485205
270 0.782254
275 0.656449
280 0.764957
285 0.683765
290 0.490844
295 0.670625
300 0.375989
305 0.529266
310 0.618119
315 0.491226
320 0.452996
325 0.33594
330 0.663738
335 0.839972
340 0.531808
345 0.565887
350 0.785836
355 0.809414
360 0.825518
365 0.615709
370 1.68345
375 0.897953
380 0.781338
385 0.558032
390 0.939373
395 0.949398
400 1.36
405 0.560906
410 1.15641
415 0.747802
420 1.04931
425 0.928936
430 0.880834
435 0.788156
440 0.513841
445 1.42514
450 1.12116
455 0.436595
460 0.856201
465 0.918891
470 0.923766
475 0.701604
480 1.33324
485 0.54094
490 0.772638
495 0.596152
500 0.896248
505 0.99465
510 0.580208
515 0.727627
520 0.580078
525 0.466667
530 0.538597
535 0.777423
540 0.462484
545 0.901241
550 0.797413
555 0.813364
560 0.509499
565 0.633009
570 0.634794
575 0.328107
580 0.47361
585 0.784973
590 0.567071
595 0.471046
600 0.0536033
Ex : 283
200 0.494399
205 0.607501
210 0.502608
215 0.241124
220 0.442806
225 0.183992
230 0.384543
235 0.333886
240 0.355022
245 0.235015
250 0.198951
255 0.340985
260 0.544922
265 0.750908
270 0.632556
275 0.492148
280 0.362921
285 0.494026
290 0.453164
295 0.461354
300 0.592273
305 0.736453
310 0.733288
315 0.604858
320 0.655641
325 0.770289
330 0.922681
335 0.49424
340 0.418569
345 0.505261
350 0.424017
355 0.847507
360 0.669517
365 0.741993
370 0.57832
375 0.75154
380 0.713416
385 0.548552
390 0.800816
395 0.458951
400 0.883085
405 0.867065
410 0.601847
415 0.41096
420 0.596619
425 0.936187
430 0.689808
435 0.674623
440 0.663365
445 0.586453
450 0.534546
455 0.493334
460 0.787757
465 0.786374
470 0.867873
475 0.609778
480 0.427319
485 0.457288
490 0.446874
495 0.730079
500 0.617185
505 0.501395
510 0.446009
515 0.639792
520 0.822569
525 0.688147
530 0.638158
535 0.853512
540 0.604001
545 0.591127
550 0.996894
555 0.714136
560 0.727088
565 0.972285
570 0.553413
575 0.419837
580 0.417464
585 0.277654
590 0.165749
595 0.330736
600 0.0376365
Ex : 288
200 0.335802
205 0.240853
210 0.541659
215 0.279721
220 0.463924
225 0.682391
230 0.411723
235 0.338018
240 0.231549
245 0.43587
250 0.284851
255 0.399596
260 0.639796
265 0.538617
270 0.521319
275 0.264972
280 0.453653
285 0.351871
290 0.314159
295 0.309537
300 0.267562
305 0.380924
310 0.246287
315 0.428889
320 0.475785
325 0.500017
330 0.465616
335 0.650294
340 0.537469
345 0.580547
350 0.692241
355 0.526012
360 0.369946
365 0.507286
370 0.778697
375 0.826297
380 0.600825
385 0.525642
390 0.523046
395 0.789271
400 0.592497
405 0.461416
410 0.477147
415 0.630027
420 0.58155
425 0.495502
430 0.453052
435 0.405818
440 0.709172
445 0.659755
450 0.336117
455 0.47241
460 0.412734
465 0.280673
470 0.582035
475 0.472019
480 0.827698
485 0.612482
490 0.595347
495 0.349346
500 0.367689
505 0.392688
510 0.527473
515 0.455789
520 0.411887
525 0.574611
530 0.506252
535 0.516162
540 0.330991
545 0.220314
550 0.344966
555 0.638698
560 0.526216
565 0.537026
570 0.451261
575 0.803165
580 0.349643
585 0.30251
590 0.626695
595 0.309632
600 0.0352349
Ex : 293
200 0.487716
205 0.308364
210 0.437694
215 0.512562
220 0.456532
225 0.41261
230 0.92935
235 0.32672
240 0.56457
245 0.276935
250 0.21394
255 0.181287
260 0.381745
265 0.665297
270 0.328909
275 0.206229
280 0.199576
285 0.381223
290 0.416643
295 0.263915
300 0.494617
305 0.337082
310 0.436705
315 0.561766
320 0.369839
325 0.448658
330 0.515529
335 0.474792
340 0.396758
345 0.400293
350 0.383869
355 0.60686
360 1.12763
365 0.569778
370 0.402171
375 0.460996
380 0.579962
385 0.58506
390 0.713469
395 0.949529
400 0.63335
405 0.679287
410 0.704655
415 0.872957
420 0.610321
425 0.516095
430 0.364579
435 0.610955
440 0.673498
445 0.421976
450 0.448286
455 0.68731
460 0.721654
465 0.407994
470 0.49375
475 0.509583
480 0.321124
485 0.329404
490 0.337395
495 0.279309
500 0.378355
505 0.879973
510 0.454903
515 0.401004
520 0.250682
525 0.282333
530 0.230539
535 0.255852
540 0.591235
545 0.516452
550 0.209913
555 0.152987
560 0.222899
565 0.312299
570 0.337406
575 0.422324
580 0.339549
585 0.439753
590 0.368661
595 0.251299
600 0.109161
Ex : 298
200 0.368445
205 0.236925
210 0.360763
215 0.22859
220 0.277929
225 0.216822
230 0.248914
235 0.245588
240 0.467182
245 0.352085
250 0.14101
255 0.298113
260 0.288116
265 0.170441
270 0.261828
275 0.625946
280 0.34331
285 0.438042
290 0.323155
295 0.291425
300 0.314524
305 0.288935
310 0.430478
315 0.169219
320 0.248335
325 0.208745
330 0.38723
335 0.394683
340 0.203266
345 0.280824
350 0.618828
355 0.376712
360 0.304618
365 0.525052
370 0.816364
375 0.469394
380 0.37178
385 0.497757
390 0.530021
395 0.418418
400 0.691829
405 0.437573
410 0.428901
415 0.661833
420 0.397086
425 0.421337
430 0.389014
435 0.394299
440 0.493247
445 0.47947
450 0.551491
455 0.762953
460 0.934246
465 0.403072
470 0.285616
475 0.42014
480 0.325539
485 0.353811
490 0.255559
495 0.287405
500 0.199021
505 0.389465
510 0.344405
515 0.259722
520 0.23886
525 0.380761
530 0.237302
535 0.203752
540 0.676415
545 0.595579
550 0.306682
555 0.374358
560 0.240258
565 0.409402
570 0.421707
575 0.338755
580 0.285805
585 0.286598
590 0.295827
595 0.345274
600 0.0392908
Ex : 303
200 0.19788
205 0.24053
210 0.281323
215 0.188817
220 0.149795
225 0.165331
230 0.219062
235 0.224616
240 0.193975
245 0.13892
250 0.324966
255 0.394473
260 0.175317
265 0.415966
270 0.152262
275 0.468511
280 0.17635
285 0.318408
290 0.120533
295 0.185308
300 0.261785
305 0.188942
310 0.291063
315 0.386044
320 0.399473
325 0.246504
330 0.397097
335 0.462621
340 0.580573
345 0.51533
350 0.451845
355 0.43605
360 0.563895
365 0.452806
370 0.310561
375 0.343463
380 0.362206
385 0.457385
390 0.483726
395 0.313245
400 0.35444
405 0.428952
410 0.42967
415 0.71205
420 0.420976
425 0.374272
430 0.746393
435 0.566486
440 0.39428
445 0.393171
450 0.339438
455 0.378507
460 0.439996
465 0.385524
470 0.360372
475 0.42021
480 0.253807
485 0.216727
490 0.415729
495 0.422362
500 0.48801
505 0.25294
510 0.2436
515 0.262346
520 0.201777
525 0.343503
530 0.32389
535 0.263355
540 0.156019
545 0.418192
550 0.21457
555 0.459456
560 0.350862
565 0.170272
570 0.105681
575 0.30555
580 0.225815
585 0.419333
590 0.271828
595 0.460779
600 0.0669628
Ex : 308
200 0.31826
205 0.122487
210 0.263681
215 0.15169
220 0.136729
225 0.157698
230 0.278833
235 0.449908
240 0.222403
245 0.140284
250 0.276377
255 0.152675
260 0.334339
265 0.138436
270 0.211903
275 0.259192
280 0.103268
285 0.12878
290 0.227208
295 0.33883
300 0.17587
305 0.234991
310 0.157447
315 0.243518
320 0.241012
325 0.435872
330 0.299668
335 0.443588
340 0.232429
345 0.211539
350 0.40763
355 0.403266
360 0.424367
365 0.354736
370 0.407456
375 0.455527
380 0.557279
385 0.458143
390 0.533465
395 0.673333
400 0.572416
405 0.623699
410 0.564919
415 0.525546
420 0.406527
425 0.465603
430 0.388639
435 0.351565
440 0.602269
445 0.560116
450 0.565491
455 0.406692
460 0.590478
465 0.478214
470 0.343485
475 0.484336
480 0.364306
485 0.390233
490 0.321249
495 0.548538
500 0.206623
505 0.436114
510 0.359631
515 0.263248
520 0.199636
525 0.210859
530 0.167011
535 0.422077
540 0.326315
545 0.292234
550 0.278552
555 0.221489
560 0.358954
565 0.225053
570 0.279961
575 0.489879
580 0.176076
585 0.158198
590 0.20564
595 0.124459
600 0.278701
Ex : 313
200 0.19349
205 0.177864
210 0.0943827
215 0.135956
220 0.134437
225 0.176719
230 0.0826335
235 0.118654
240 0.196139
245 0.174263
250 0.121878
255 0.15564
260 0.0943268
265 0.1644
270 0.255119
275 0.242357
280 0.20444
285 0.32746
290 0.215897
295 0.145624
300 0.251329
305 0.136759
310 0.333722
315 0.325474
320 0.244986
325 0.245651
330 0.435932
335 0.394513
340 0.18359
345 0.417359
350 0.375051
355 0.38116
360 0.46734
365 0.416037
370 0.861671
375 0.760009
380 0.830737
385 0.882808
390 0.76937
395 0.831061
400 0.985931
405 0.836781
410 0.864877
415 0.880795
420 0.664252
425 1.07639
430 0.728625
435 0.640617
440 0.702592
445 0.666799
450 0.619261
455 0.697427
460 0.745766
465 0.56727
470 0.613637
475 0.59313
480 0.67567
485 0.344823
490 0.420076
495 0.361539
500 0.47536
505 0.399463
510 0.280485
515 0.271069
520 0.36666
525 0.318579
530 0.161063
535 0.212919
540 0.310145
545 0.12281
550 0.321379
555 0.382132
560 0.190065
565 0.201062
570 0.264328
575 0.224802
580 0.173416
585 0.081806
590 0.160678
595 0.132599
600 0.0150892
Ex : 318
200 0.251663
205 0.181821
210 0.188007
215 0.066701
220 0.138307
225 0.219362
230 0.195756
235 0.22566
240 0.226266
245 0.111801
250 0.130453
255 0.11909
260 0.245476
265 0.25175
270 0.307824
275 0.141985
280 0.150481
285 0.149696
290 0.0981003
295 0.201781
300 0.32737
305 0.201321
310 0.246075
315 1.36328
320 0.664323
325 0.48467
330 0.643789
335 0.840205
340 1.00417
345 1.51605
350 1.94373
355 2.38773
360 3.45556
365 3.94257
370 5.09347
375 6.04807
380 7.32845
385 8.08002
390 9.1168
395 9.33637
400 9.61833
405 9.5526
410 10.1986
415 9.33832
420 9.76338
425 8.85756
430 8.60121
435 7.92361
440 8.19911
445 7.46112
450 7.29354
455 6.71243
460 6.0368
465 5.47061
470 5.04999
475 4.59157
480 3.91254
485 3.8845
490 3.28637
495 2.74947
500 2.60246
505 1.94732
510 1.98831
515 1.42938
520 1.51106
525 1.16035
530 0.881833
535 0.896784
540 0.63755
545 0.590838
550 0.419765
555 0.399077
560 0.454172
565 0.312847
570 0.263584
575 0.318238
580 0.248932
585 0.280299
590 0.201403
595 0.279779
600 0.0318378
Ex : 323
200 0.195052
205 0.0915734
210 0.184728
215 0.211104
220 0.0916363
225 0.078255
230 0.19448
235 0.0834247
240 0.305671
245 0.236779
250 0.166905
255 0.121995
260 0.113602
265 0.0720218
270 0.076835
275 0.124243
280 0.156298
285 0.172242
290 0.0984119
295 0.104818
300 0.214892
305 0.21947
310 0.246897
315 11.7644
320 57.2017
325 23.1595
330 4.43719
335 2.89113
340 3.83067
345 5.87756
350 8.70777
355 12.7518
360 14.756
365 17.4488
370 20.9069
375 24.2489
380 27.9946
385 31.3075
390 33.0702
395 34.8176
400 36.0438
405 37.7198
410 37.6338
415 36.5455
420 35.7432
425 35.2444
430 34.3754
435 32.0594
440 31.3444
445 28.72
450 27.8625
455 25.3748
460 23.7997
465 22.8723
470 20.2911
475 19.5591
480 16.661
485 15.447
490 13.4024
495 11.9135
500 10.5024
505 8.73434
510 8.76287
515 7.39496
520 6.26399
525 5.15692
530 4.65906
535 3.50473
540 2.93017
545 2.56721
550 2.32462
555 2.07479
560 1.60474
565 1.22762
570 1.07072
575 0.637862
580 0.45629
585 0.372516
590 0.469184
595 0.243429
600 0.117217
Ex : 328
200 0.181779
205 0.0823581
210 0.0933101
215 0.0613726
220 0.0998062
225 0.250769
230 0.11735
235 0.0869481
240 0.146954
245 0.180631
250 0.115942
255 0.13897
260 0.135453
265 0.072533
270 0.0908646
275 0.185444
280 0.126003
285 0.12167
290 0.141974
295 0.17847
300 0.165286
305 0.179504
310 0.134067
315 2.832
320 131.529
325 311.018
330 90.8025
335 14.0774
340 6.70464
345 7.64603
350 9.04508
355 13.2957
360 18.127
365 21.1273
370 23.681
375 26.3559
380 29.41
385 32.4002
390 35.2265
395 37.3319
400 38.8524
405 39.6645
410 39.9812
415 40.1399
420 39.6424
425 36.8523
430 35.4798
435 33.5382
440 31.268
445 30.7658
450 28.3542
455 25.8254
460 24.0426
465 22.835
470 20.442
475 19.416
480 17.8643
485 15.7398
490 14.2561
495 12.6262
500 10.8895
505 9.51944
510 8.62703
515 7.16131
520 6.44547
525 5.1784
530 4.75193
535 4.11601
540 3.77721
545 3.03695
550 2.52622
555 2.12494
560 1.6198
565 1.3326
570 1.13727
575 0.85649
580 0.716667
585 0.543847
590 0.377949
595 0.393498
600 0.0447786
Ex : 333
200 0.135528
205 0.194647
210 0.0909596
215 0.116278
220 0.091886
225 0.158706
230 0.115254
235 0.23562
240 0.284841
245 0.153284
250 0.118798
255 0.239728
260 0.129167
265 0.257875
270 0.181086
275 0.215245
280 0.267346
285 0.249768
290 0.123868
295 0.0956992
300 0.21357
305 0.217242
310 0.245969
315 0.202879
320 18.5091
325 354.688
330 590.177
335 150.916
340 21.1734
345 7.11355
350 6.33892
355 6.62377
360 10.3079
365 14.7276
370 15.8742
375 15.1616
380 16.3867
385 19.2642
390 21.9521
395 23.004
400 23.0231
405 23.6852
410 24.2472
415 24.0384
420 23.2818
425 21.644
430 20.4579
435 19.5163
440 18.6591
445 17.6603
450 16.7024
455 14.95
460 13.9872
465 12.589
470 11.8206
475 10.3359
480 9.75937
485 8.61614
490 7.58326
495 7.08352
500 6.21519
505 5.80879
510 5.1021
515 3.89608
520 3.52425
525 3.31412
530 2.85561
535 2.488
540 2.28362
545 1.74687
550 1.67453
555 1.41674
560 1.0521
565 0.906323
570 0.836986
575 0.652318
580 0.650117
585 0.500825
590 0.426723
595 0.246901
600 0.488922
Ex : 338
200 0.121645
205 0.148169
210 0.118745
215 0.0932695
220 0.0820843
225 0.0898621
230 0.152601
235 0.186421
240 0.24035
245 0.150671
250 0.103688
255 0.0732163
260 0.162158
265 0.165024
270 0.108862
275 0.143666
280 0.194372
285 0.258881
290 0.123643
295 0.189925
300 0.178251
305 0.218368
310 0.235656
315 0.361084
320 0.510173
325 33.0869
330 521.506
335 773.4
340 191.174
345 25.4421
350 6.82395
355 4.57095
360 3.96852
365 5.7707
370 10.0446
375 10.7168
380 10.0378
385 10.9426
390 13.0095
395 13.4895
400 13.4467
405 13.3379
410 14.6919
415 15.5191
420 14.4262
425 13.3207
430 12.1467
435 11.7377
440 11.2752
445 10.4698
450 9.73505
455 8.91762
460 8.633
465 7.71096
470 7.51846
475 6.53317
480 6.05174
485 5.33039
490 4.82919
495 4.5355
500 3.90925
505 3.30512
510 3.18344
515 3.00121
520 2.52493
525 2.03804
530 1.83497
535 1.7106
540 1.31869
545 1.26923
550 1.05372
555 0.95501
560 0.726826
565 0.781511
570 0.685041
575 0.522237
580 0.465065
585 0.316203
590 0.340704
595 0.38637
600 0.0439674
Ex : 343
200 0.0742774
205 0.162844
210 0.12585
215 0.107886
220 0.176849
225 0.128405
230 0.172188
235 0.10997
240 0.125105
245 0.217713
250 0.0873389
255 0.107355
260 0.0648125
265 0.191299
270 0.198722
275 0.0949746
280 0.0825378
285 0.0908825
290 0.169647
295 0.195309
300 0.197047
305 0.27846
310 0.171607
315 0.153249
320 0.249458
325 0.607993
330 37.7755
335 593.58
340 865.23
345 207.741
350 26.9289
355 6.2073
360 3.42183
365 2.61299
370 4.01709
375 7.32242
380 9.50594
385 9.84542
390 10.7272
395 10.9062
400 10.4007
405 11.1046
410 12.2469
415 13.1094
420 12.4415
425 10.8121
430 10.0472
435 9.97692
440 10.252
445 9.20077
450 8.01904
455 7.68587
460 7.00915
465 6.55331
470 6.07414
475 5.96432
480 5.07851
485 4.74703
490 4.46857
495 3.67145
500 3.34693
505 2.99633
510 2.70246
515 2.52268
520 2.0872
525 2.06958
530 1.72617
535 1.4152
540 1.11358
545 1.23405
550 1.11608
555 0.992661
560 0.807071
565 0.746874
570 0.731421
575 0.576311
580 0.622628
585 0.467828
590 0.422453
595 0.321346
600 0.054411
Ex : 348
200 0.105987
205 0.10711
210 0.116332
215 0.0793727
220 0.101216
225 0.164937
230 0.0971509
235 0.0834823
240 0.135704
245 0.183284
250 0.0811152
255 0.108571
260 0.0785899
265 0.126847
270 0.125276
275 0.220574
280 0.12561
285 0.0862479
290 0.114866
295 0.166641
300 0.164599
305 0.22041
310 0.200156
315 0.228304
320 0.191027
325 0.325003
330 0.781486
335 39.0395
340 602.261
345 903.837
350 228.425
355 28.8228
360 5.86603
365 3.28872
370 2.04093
375 2.40149
380 7.4263
385 12.877
390 14.1498
395 13.4119
400 12.0156
405 12.9728
410 14.3953
415 16.28
420 15.0849
425 13.1199
430 12.0877
435 11.5877
440 11.2857
445 11.0605
450 9.88411
455 8.58432
460 7.89347
465 7.15389
470 7.01488
475 6.39021
480 5.68267
485 4.85124
490 4.28127
495 4.04882
500 3.44191
505 3.12989
510 3.12492
515 2.60191
520 2.25698
525 2.00702
530 1.65378
535 1.51962
540 1.5189
545 1.23264
550 1.26462
555 1.08916
560 0.752327
565 0.823545
570 0.741007
575 0.509585
580 0.486631
585 0.458088
590 0.340743
595 0.385408
600 0.0438579
Ex : 353
200 0.0802124
205 0.0988453
210 0.109891
215 0.146701
220 0.12663
225 0.217455
230 0.0937189
235 0.101607
240 0.0459569
245 0.0756062
250 0.147618
255 0.078192
260 0.126208
265 0.100238
270 0.176081
275 0.103554
280 0.100306
285 0.0917122
290 0.12993
295 0.112274
300 0.143194
305 0.173421
310 0.139363
315 0.195856
320 0.281664
325 0.215694
330 0.462561
335 0.937389
340 39.5418
345 627.42
350 903.648
355 220.4
360 27.7514
365 5.72847
370 2.87925
375 2.11207
380 3.51537
385 9.06295
390 16.4869
395 16.9962
400 14.3537
405 13.3953
410 15.1986
415 17.8354
420 17.1129
425 14.4136
430 13.1379
435 12.3552
440 12.9742
445 11.9133
450 11.1234
455 9.3671
460 8.44193
465 7.60713
470 7.57142
475 7.10075
480 6.18721
485 5.78798
490 5.22743
495 4.48017
500 4.06954
505 3.94662
510 3.48033
515 3.14008
520 2.66165
525 2.07022
530 1.91753
535 1.6207
540 1.41654
545 1.37986
550 1.14072
555 0.995787
560 0.81169
565 0.788408
570 0.613919
575 0.55828
580 0.364178
585 0.373768
590 0.354881
595 0.294915
600 0.0335602
Ex : 358
200 0.100317
205 0.129983
210 0.111111
215 0.123688
220 0.0970506
225 0.105135
230 0.0633282
235 0.13468
240 0.0765881
245 0.128387
250 0.142943
255 0.0550725
260 0.142311
265 0.0904202
270 0.0978255
275 0.13397
280 0.110074
285 0.1745
290 0.138378
295 0.112922
300 0.123057
305 0.145356
310 0.126185
315 0.158646
320 0.186004
325 0.177064
330 0.304911
335 0.557651
340 1.03423
345 38.2764
350 600.076
355 921.867
360 228.073
365 28.5853
370 5.41419
375 3.11651
380 3.41529
385 6.06249
390 11.875
395 16.4975
400 14.9856
405 14.0435
410 14.8779
415 16.0627
420 15.8799
425 13.5827
430 12.172
435 12.1279
440 12.4159
445 11.4879
450 10.8806
455 9.34039
460 8.82272
465 7.85346
470 7.72114
475 7.22089
480 6.40726
485 5.66405
490 5.49519
495 4.78612
500 4.26895
505 3.857
510 3.70868
515 3.20755
520 2.71699
525 2.46464
530 2.08297
535 1.90261
540 1.71713
545 1.37277
550 1.22439
555 1.04509
560 1.08296
565 0.880699
570 0.779121
575 0.567629
580 0.371878
585 0.443819
590 0.327818
595 0.31067
600 0.0353531
Ex : 363
200 0.0564573
205 0.103984
210 0.0797479
215 0.051682
220 0.0968735
225 0.1001
230 0.106338
235 0.0958508
240 0.123112
245 0.117027
250 0.102001
255 0.0738455
260 0.0834085
265 0.0741172
270 0.0699294
275 0.107033
280 0.122148
285 0.0989494
290 0.0835518
295 0.158782
300 0.131237
305 0.108929
310 0.155663
315 0.131512
320 0.173303
325 0.250522
330 0.296443
335 0.295882
340 0.568679
345 0.980825
350 36.1477
355 585.821
360 909.537
365 234.395
370 29.3718
375 5.8424
380 4.97143
385 8.22615
390 11.4183
395 13.5239
400 15.672
405 17.335
410 18.2946
415 19.0217
420 16.9889
425 15.3025
430 13.4112
435 13.5242
440 13.2326
445 13.1068
450 11.9651
455 10.2195
460 9.07999
465 8.86907
470 8.13712
475 7.62681
480 7.09495
485 6.32098
490 5.71986
495 5.02351
500 4.85178
505 4.18736
510 3.59933
515 3.30619
520 2.91388
525 2.67437
530 2.38143
535 2.1904
540 1.77473
545 1.52143
550 1.32325
555 1.14607
560 1.01367
565 0.91916
570 0.783889
575 0.690308
580 0.507737
585 0.42183
590 0.402824
595 0.392822
600 0.935293
Ex : 368
200 0.0673822
205 0.0718114
210 0.0864302
215 0.0790011
220 0.119309
225 0.0854206
230 0.0965315
235 0.0733645
240 0.104664
245 0.0903171
250 0.109653
255 0.120909
260 0.0898947
265 0.0666594
270 0.140442
275 0.114075
280 0.0774844
285 0.0621043
290 0.0918526
295 0.114642
300 0.101528
305 0.117328
310 0.0930301
315 0.0877932
320 0.132178
325 0.164076
330 0.236358
335 0.213435
340 0.243488
345 0.568861
350 1.18111
355 29.3763
360 557.598
365 921.734
370 243.765
375 30.8167
380 7.80734
385 10.0136
390 15.1176
395 16.7079
400 15.6492
405 18.8274
410 24.094
415 25.1712
420 22.9476
425 18.8297
430 17.0683
435 17.0481
440 17.25
445 16.1817
450 14.305
455 12.59
460 11.1523
465 10.0532
470 9.67214
475 8.90355
480 8.48131
485 7.39612
490 6.68556
495 6.1098
500 5.59126
505 5.03128
510 4.3393
515 3.64722
520 3.27195
525 2.99034
530 2.64141
535 2.41561
540 1.94777
545 1.82047
550 1.47705
555 1.38443
560 1.27297
565 0.903857
570 0.81556
575 0.603121
580 0.452255
585 0.49787
590 0.299545
595 0.303404
600 0.136155
Ex : 373
200 0.0611354
205 0.0872512
210 0.079271
215 0.0908313
220 0.0753078
225 0.0549957
230 0.129037
235 0.0961887
240 0.0578533
245 0.0677042
250 0.125685
255 0.167741
260 0.14693
265 0.150328
270 0.129037
275 0.113906
280 0.0632035
285 0.051967
290 0.109113
295 0.141472
300 0.1515
305 0.107215
310 0.101583
315 0.115212
320 0.0970403
325 0.16104
330 0.145033
335 0.16804
340 0.309219
345 0.47042
350 0.558396
355 0.878073
360 34.0373
365 571.367
370 916.65
375 243.185
380 31.8
385 10.5608
390 14.5492
395 17.8422
400 16.0809
405 15.3542
410 19.5147
415 26.3656
420 24.9693
425 20.0116
430 17.0211
435 16.3565
440 16.2019
445 15.9154
450 14.1971
455 11.7221
460 11.1433
465 10.226
470 9.97269
475 9.08208
480 8.25423
485 7.30161
490 6.7497
495 5.92086
500 5.33872
505 4.90171
510 4.38911
515 3.67674
520 3.31393
525 2.69763
530 2.63616
535 2.30259
540 1.87114
545 1.6133
550 1.62746
555 1.35466
560 1.26166
565 1.05015
570 0.755812
575 0.737413
580 0.536946
585 0.493184
590 0.377721
595 0.35911
600 0.499652
Ex : 378
200 0.0744502
205 0.0636576
210 0.0639907
215 0.056589
220 0.0875135
225 0.106239
230 0.0710637
235 0.0825969
240 0.0941688
245 0.109985
250 0.0695304
255 0.102334
260 0.169042
265 0.0859691
270 0.090331
275 0.069965
280 0.160501
285 0.133734
290 0.100366
295 0.0691504
300 0.0672656
305 0.0889391
310 0.0610996
315 0.100748
320 0.144615
325 0.123676
330 0.232832
335 0.219562
340 0.235246
345 0.255331
350 0.349312
355 0.599828
360 0.873866
365 31.3581
370 573.344
375 932.427
380 249.135
385 34.9858
390 13.7921
395 13.7357
400 11.9355
405 11.5668
410 13.6598
415 17.71
420 19.3909
425 17.2643
430 14.1002
435 13.0938
440 12.9148
445 12.6374
450 11.1551
455 9.98043
460 9.10277
465 8.36176
470 8.22776
475 7.88286
480 7.18199
485 6.51292
490 5.99579
495 5.65363
500 4.89887
505 4.4987
510 3.97595
515 3.46892
520 3.13762
525 2.92164
530 2.59745
535 2.29579
540 1.94878
545 1.8363
550 1.67046
555 1.32906
560 1.26156
565 1.09907
570 0.914466
575 0.599118
580 0.559684
585 0.459266
590 0.298616
595 0.321315
600 0.191007
Ex : 383
200 0.114254
205 0.107701
210 0.107636
215 0.10834
220 0.0576852
225 0.109427
230 0.0750416
235 0.0601378
240 0.0418892
245 0.109486
250 0.105969
255 0.0792334
260 0.0761823
265 0.0939781
270 0.0547533
275 0.119356
280 0.125073
285 0.0989015
290 0.0663247
295 0.092199
300 0.108305
305 0.0501967
310 0.106844
315 0.146988
320 0.1519
325 0.113571
330 0.147269
335 0.13249
340 0.142513
345 0.163374
350 0.262833
355 0.313709
360 0.513253
365 0.970108
370 29.5961
375 568.395
380 971.545
385 265.684
390 41.1249
395 15.0558
400 11.4205
405 12.1078
410 14.3503
415 16.0361
420 16.0512
425 16.6695
430 15.6754
435 14.7253
440 13.9074
445 13.1752
450 11.1899
455 10.1531
460 9.18791
465 8.98676
470 8.6042
475 7.72442
480 7.01849
485 6.26508
490 5.85565
495 5.26705
500 5.14628
505 4.33543
510 4.17951
515 3.76914
520 3.28664
525 2.80823
530 2.53647
535 2.2118
540 2.12512
545 1.70944
550 1.62981
555 1.32169
560 1.0601
565 1.00105
570 0.844472
575 0.691303
580 0.599796
585 0.363878
590 0.341979
595 0.195201
600 0.451248
Ex : 388
200 0.0664971
205 0.0587299
210 0.0960693
215 0.0782236
220 0.087855
225 0.0722683
230 0.0425475
235 0.0479396
240 0.0698349
245 0.068596
250 0.0985114
255 0.0715244
260 0.0805844
265 0.0488174
270 0.0301428
275 0.0663597
280 0.107359
285 0.0365087
290 0.0438305
295 0.0549952
300 0.0603405
305 0.0682129
310 0.0800463
315 0.0489672
320 0.110846
325 0.0703273
330 0.0619812
335 0.0976318
340 0.169427
345 0.128576
350 0.281985
355 0.253882
360 0.334386
365 0.561028
370 1.02554
375 31.9603
380 585.878
385 976.09
390 269.778
395 44.2332
400 17.1188
405 14.3094
410 17.6198
415 20.2918
420 19.5113
425 16.9156
430 17.0647
435 18.1787
440 17.1697
445 15.9804
450 13.7169
455 11.889
460 10.7774
465 9.77404
470 9.40943
475 9.14307
480 8.31007
485 7.01611
490 6.54661
495 5.98189
500 5.61729
505 4.88489
510 4.4561
515 3.70281
520 3.3943
525 3.01095
530 2.7981
535 2.54986
540 2.29841
545 1.83157
550 1.63825
555 1.43571
560 1.22386
565 1.03488
570 0.865384
575 0.696225
580 0.482901
585 0.437886
590 0.300791
595 0.373791
600 0.042536
Ex : 393
200 0.0351853
205 0.10203
210 0.0584266
215 0.174483
220 0.0859913
225 0.050653
230 0.0700547
235 0.104247
240 0.118118
245 0.0536402
250 0.0628688
255 0.0483301
260 0.049207
265 0.0670841
270 0.0638136
275 0.0695741
280 0.0655615
285 0.111963
290 0.0904311
295 0.058519
300 0.0849303
305 0.100599
310 0.0646658
315 0.113877
320 0.0816875
325 0.152445
330 0.182714
335 0.125831
340 0.157041
345 0.105055
350 0.125323
355 0.140198
360 0.252805
365 0.28538
370 0.45781
375 1.0267
380 29.1949
385 573.354
390 981.113
395 276.959
400 45.487
405 17.3621
410 16.7169
415 20.8551
420 20.5797
425 17.019
430 14.3465
435 15.2688
440 17.9861
445 16.6559
450 14.235
455 11.9796
460 10.1135
465 9.36289
470 9.14609
475 8.68708
480 7.92036
485 6.91063
490 6.44873
495 5.68527
500 5.14968
505 4.77067
510 4.19241
515 3.71048
520 3.40773
525 3.05196
530 2.70362
535 2.47989
540 2.09769
545 1.93334
550 1.75587
555 1.36936
560 1.21944
565 1.21326
570 0.825453
575 0.660277
580 0.421143
585 0.334501
590 0.431215
595 0.25791
600 0.564897
Ex : 398
200 0.0637676
205 0.06534
210 0.03964
215 0.0460382
220 0.0407073
225 0.0457194
230 0.10915
235 0.0551233
240 0.0662638
245 0.0822615
250 0.102337
255 0.042125
260 0.0461398
265 0.0682243
270 0.0646164
275 0.0593383
280 0.118568
285 0.0740089
290 0.0827567
295 0.0985664
300 0.0654533
305 0.0545507
310 0.0819491
315 0.0875093
320 0.0592119
325 0.0828675
330 0.110485
335 0.109823
340 0.111415
345 0.12464
350 0.167418
355 0.15956
360 0.166918
365 0.212149
370 0.327729
375 0.515446
380 1.17965
385 30.7936
390 581.999
395 998.163
400 272.287
405 39.2454
410 13.1481
415 13.4289
420 13.5449
425 11.5406
430 9.33593
435 9.15269
440 10.624
445 12.9194
450 11.5691
455 9.1895
460 8.01285
465 7.55678
470 6.95439
475 6.63455
480 6.42159
485 5.73037
490 5.18457
495 4.75776
500 4.36683
505 3.9877
510 3.7213
515 3.38265
520 3.03857
525 2.8349
530 2.4682
535 2.25913
540 2.1066
545 1.73073
550 1.6211
555 1.20752
560 1.20464
565 1.02524
570 0.79924
575 0.6483
580 0.472613
585 0.371843
590 0.317664
595 0.251041
600 0.44596
Ex : 403
200 0.0607347
205 0.0978733
210 0.107377
215 0.0973425
220 0.0694851
225 0.0776577
230 0.0703597
235 0.0480208
240 0.0560046
245 0.0790176
250 0.0734391
255 0.0801092
260 0.0976048
265 0.0978413
270 0.0872978
275 0.101182
280 0.0890033
285 0.0893615
290 0.0661221
295 0.0506721
300 0.0658787
305 0.0753981
310 0.0599542
315 0.0498953
320 0.0574307
325 0.0763004
330 0.0740512
335 0.101799
340 0.0714551
345 0.110557
350 0.13319
355 0.168703
360 0.173279
365 0.197867
370 0.247601
375 0.380237
380 0.610513
385 1.29158
390 34.0554
395 598.055
400 986.793
405 268.774
410 36.0411
415 10.1852
420 7.33154
425 6.73016
430 6.10908
435 5.64482
440 6.50239
445 6.89217
450 8.44278
455 8.98752
460 7.08809
465 6.1168
470 5.76695
475 5.2634
480 5.2881
485 4.95333
490 4.4112
495 4.33891
500 4.1024
505 3.8393
510 3.31682
515 3.00391
520 2.9182
525 2.68031
530 2.21593
535 2.10558
540 1.98981
545 1.66969
550 1.46912
555 1.32849
560 1.17136
565 1.01775
570 0.835935
575 0.652977
580 0.452966
585 0.392751
590 0.338611
595 0.206892
600 0.172767
Ex : 408
200 0.0572172
205 0.0633802
210 0.0794361
215 0.068443
220 0.0860702
225 0.0765454
230 0.11893
235 0.0887032
240 0.11156
245 0.115515
250 0.0670477
255 0.0626699
260 0.0621074
265 0.0990573
270 0.0416876
275 0.0806503
280 0.0626336
285 0.0969016
290 0.0762517
295 0.0482191
300 0.0563568
305 0.0906058
310 0.0649098
315 0.0620913
320 0.0796662
325 0.0836069
330 0.0953182
335 0.0728869
340 0.0674416
345 0.0856193
350 0.0924652
355 0.129604
360 0.160471
365 0.202655
370 0.201315
375 0.233466
380 0.354904
385 0.640938
390 1.17956
395 31.6861
400 604.716
405 993.325
410 261.146
415 35.7512
420 9.78354
425 6.33688
430 6.02239
435 5.95765
440 6.3876
445 6.47991
450 6.39583
455 7.467
460 8.42138
465 7.36438
470 6.69402
475 6.0921
480 5.31119
485 4.98383
490 4.78049
495 4.31697
500 4.17853
505 3.70671
510 3.40519
515 3.16217
520 2.85278
525 2.51682
530 2.25738
535 2.04819
540 1.74529
545 1.74539
550 1.42322
555 1.27265
560 1.1124
565 0.924846
570 0.716362
575 0.658183
580 0.496086
585 0.459989
590 0.369912
595 0.292273
600 0.148587
Ex : 413
200 0.0531662
205 0.0820834
210 0.0705125
215 0.0678651
220 0.0638736
225 0.0547413
230 0.063175
235 0.0602556
240 0.0524484
245 0.0479244
250 0.0903543
255 0.0824576
260 0.0970432
265 0.0706641
270 0.101371
275 0.068904
280 0.0388999
285 0.0685598
290 0.044001
295 0.0579053
300 0.107014
305 0.0446033
310 0.0485031
315 0.0822273
320 0.100405
325 0.0966266
330 0.0886675
335 0.0623701
340 0.115757
345 0.061187
350 0.120742
355 0.122847
360 0.103989
365 0.105415
370 0.116897
375 0.2337
380 0.236656
385 0.355862
390 0.659469
395 1.29347
400 35.755
405 618.632
410 1000.74
415 257.872
420 34.9629
425 8.76681
430 5.39689
435 5.63715
440 5.64875
445 5.72961
450 5.30079
455 5.22625
460 5.90792
465 7.51361
470 6.92624
475 5.98682
480 5.57157
485 4.50001
490 4.2573
495 4.07942
500 3.85608
505 3.54851
510 3.29064
515 3.03038
520 2.62868
525 2.54342
530 2.1676
535 2.03732
540 1.78342
545 1.62842
550 1.40478
555 1.32286
560 1.11678
565 0.861883
570 0.690509
575 0.664551
580 0.523895
585 0.369327
590 0.277582
595 0.216048
600 0.19001
Ex : 418
200 0.061741
205 0.0495637
210 0.0430705
215 0.088156
220 0.0790912
225 0.0481524
230 0.0972604
235 0.051762
240 0.0669134
245 0.0595339
250 0.075074
255 0.0906877
260 0.0456809
265 0.0692941
270 0.041285
275 0.0676213
280 0.0985877
285 0.056216
290 0.0510443
295 0.0503148
300 0.06686
305 0.0651541
310 0.0404611
315 0.0881779
320 0.0958073
325 0.0828305
330 0.0843741
335 0.10296
340 0.114124
345 0.0633259
350 0.117789
355 0.0814603
360 0.10593
365 0.111474
370 0.165156
375 0.231042
380 0.19627
385 0.206404
390 0.348138
395 0.514346
400 1.22648
405 33.276
410 614.109
415 1003.82
420 266.007
425 34.2333
430 7.06481
435 4.00384
440 3.97485
445 3.85479
450 3.65636
455 3.27356
460 3.18702
465 3.97043
470 5.67228
475 6.02131
480 4.56858
485 4.36219
490 3.77863
495 3.22054
500 3.1417
505 2.97249
510 2.70523
515 2.59183
520 2.36815
525 2.26769
530 1.88792
535 1.73093
540 1.68521
545 1.44922
550 1.39743
555 1.21825
560 1.02983
565 0.86549
570 0.686054
575 0.577011
580 0.481507
585 0.35197
590 0.309063
595 0.287799
600 0.422099
Ex : 423
200 0.0368031
205 0.0769423
210 0.047156
215 0.0650977
220 0.0853304
225 0.0714836
230 0.0384519
235 0.0801909
240 0.0714595
245 0.118578
250 0.0538134
255 0.0565496
260 0.045117
265 0.0723193
270 0.0696243
275 0.0798242
280 0.0429385
285 0.0405793
290 0.0890612
295 0.0925611
300 0.0686974
305 0.0992197
310 0.060355
315 0.0954608
320 0.0614993
325 0.0655587
330 0.0764341
335 0.07823
340 0.0875911
345 0.0954273
350 0.0794119
355 0.0971975
360 0.0905402
365 0.110309
370 0.185097
375 0.150028
380 0.169334
385 0.19084
390 0.219508
395 0.376742
400 0.499106
405 1.18616
410 34.6633
415 636.557
420 994.291
425 251.433
430 31.4129
435 5.62034
440 2.53605
445 2.62588
450 2.37837
455 2.01601
460 2.14572
465 2.35808
470 2.76584
475 4.36255
480 5.08003
485 3.86047
490 3.55122
495 3.14404
500 2.72438
505 2.5506
510 2.33211
515 2.24382
520 2.21909
525 1.99881
530 1.76467
535 1.64996
540 1.6282
545 1.3558
550 1.20994
555 1.0396
560 0.926608
565 0.841094
570 0.74932
575 0.584915
580 0.541125
585 0.373996
590 0.306102
595 0.249854
600 0.242045
Ex : 428
200 0.0712478
205 0.0523576
210 0.087793
215 0.0302409
220 0.0708683
225 0.0675973
230 0.0733503
235 0.0525161
240 0.0338931
245 0.0466864
250 0.045788
255 0.0460478
260 0.054775
265 0.0478466
270 0.0704095
275 0.0507167
280 0.0633318
285 0.108568
290 0.0781563
295 0.094267
300 0.105922
305 0.106385
310 0.104284
315 0.0865663
320 0.0385934
325 0.0690359
330 0.0531147
335 0.0702035
340 0.0738098
345 0.113423
350 0.0801251
355 0.113286
360 0.0655072
365 0.0842786
370 0.120056
375 0.114918
380 0.163213
385 0.14924
390 0.231065
395 0.272869
400 0.405385
405 0.661444
410 1.12816
415 36.8095
420 631.245
425 998.924
430 261.553
435 31.9122
440 5.33009
445 1.99117
450 1.99752
455 1.86442
460 1.75166
465 1.77736
470 1.79325
475 2.22142
480 3.28011
485 4.89823
490 3.79561
495 3.18034
500 2.7254
505 2.39067
510 2.13895
515 2.09811
520 1.95672
525 1.75093
530 1.47769
535 1.48174
540 1.3968
545 1.28102
550 1.15482
555 1.01783
560 0.955755
565 0.755986
570 0.655468
575 0.620827
580 0.523031
585 0.351167
590 0.217583
595 0.18789
600 0.14545
Ex : 433
200 0.0871194
205 0.090173
210 0.0761803
215 0.0469917
220 0.0660132
225 0.0809469
230 0.109694
235 0.109473
240 0.0542934
245 0.0835724
250 0.0628686
255 0.0428801
260 0.0545425
265 0.043689
270 0.0421426
275 0.0734307
280 0.123771
285 0.0647146
290 0.0904102
295 0.0843414
300 0.085927
305 0.0652149
310 0.0666297
315 0.0851888
320 0.0535326
325 0.0614307
330 0.0800744
335 0.064674
340 0.124838
345 0.0928641
350 0.115869
355 0.0950718
360 0.124543
365 0.0904051
370 0.0935067
375 0.0738393
380 0.0769839
385 0.162172
390 0.208788
395 0.201185
400 0.361697
405 0.339261
410 0.560247
415 1.18946
420 41.1374
425 678.577
430 1017.15
435 254.53
440 31.0207
445 5.23142
450 1.95565
455 1.84935
460 1.90169
465 1.6338
470 1.51874
475 1.66937
480 1.74026
485 2.69689
490 4.33407
495 3.88829
500 2.9882
505 2.77109
510 2.3437
515 1.91223
520 1.76123
525 1.51808
530 1.51467
535 1.40278
540 1.45568
545 1.20655
550 1.08867
555 1.06079
560 0.919646
565 0.83295
570 0.667756
575 0.60711
580 0.406338
585 0.393437
590 0.264193
595 0.228218
600 0.317406
Ex : 438
200 0.064407
205 0.033641
210 0.0659261
215 0.0478576
220 0.051456
225 0.0507552
230 0.0720855
235 0.0888572
240 0.0786764
245 0.0556028
250 0.107881
255 0.0801959
260 0.0336463
265 0.0380112
270 0.0914229
275 0.0607376
280 0.0642888
285 0.0817299
290 0.0818986
295 0.0846964
300 0.0752907
305 0.0833968
310 0.045991
315 0.0934443
320 0.0971062
325 0.068479
330 0.0827905
335 0.0659393
340 0.0636954
345 0.0857061
350 0.0885626
355 0.075668
360 0.0702461
365 0.109968
370 0.105891
375 0.0864759
380 0.0964258
385 0.119342
390 0.22038
395 0.24035
400 0.278518
405 0.344995
410 0.400801
415 0.600773
420 0.998632
425 38.5889
430 672.011
435 1072.56
440 267.899
445 32.6014
450 5.20298
455 1.97234
460 1.62884
465 1.74914
470 1.7824
475 1.55176
480 1.61371
485 1.64804
490 2.05238
495 3.76674
500 4.04133
505 2.80187
510 2.5061
515 2.09791
520 1.70779
525 1.59567
530 1.39822
535 1.2812
540 1.16426
545 1.14523
550 1.0933
555 1.05155
560 0.759065
565 0.832436
570 0.656837
575 0.492346
580 0.449762
585 0.322555
590 0.271491
595 0.208688
600 0.5407
Ex : 443
200 0.105977
205 0.0799555
210 0.0833289
215 0.0498464
220 0.0509685
225 0.0454201
230 0.0644057
235 0.036547
240 0.101269
245 0.0855999
250 0.0593273
255 0.102563
260 0.0562346
265 0.0715309
270 0.0951632
275 0.0912963
280 0.0621849
285 0.129737
290 0.0494423
295 0.0588284
300 0.0468498
305 0.111413
310 0.0757858
315 0.0578617
320 0.0334068
325 0.0460423
330 0.0549725
335 0.0345661
340 0.092056
345 0.090025
350 0.0786224
355 0.0702494
360 0.0860879
365 0.122334
370 0.130296
375 0.13835
380 0.15883
385 0.117239
390 0.153871
395 0.160166
400 0.210528
405 0.213064
410 0.305865
415 0.386598
420 0.613123
425 1.07745
430 43.3775
435 722.178
440 1091.36
445 270.726
450 32.9377
455 5.41184
460 2.0066
465 1.72778
470 1.75119
475 1.68773
480 1.4906
485 1.43308
490 1.47999
495 1.95201
500 2.99645
505 3.89501
510 2.89548
515 2.22657
520 2.10914
525 1.51531
530 1.39072
535 1.35777
540 1.14575
545 1.10646
550 1.08156
555 0.889903
560 0.766099
565 0.736143
570 0.681878
575 0.521513
580 0.451289
585 0.402856
590 0.270278
595 0.202047
600 0.0229922
Ex : 448
200 0.0551642
205 0.079839
210 0.0530657
215 0.0606794
220 0.0504304
225 0.0572623
230 0.0624126
235 0.0839695
240 0.0589862
245 0.0598789
250 0.0405904
255 0.0634338
260 0.0942919
265 0.0908087
270 0.0863407
275 0.0721381
280 0.104153
285 0.0525809
290 0.0649359
295 0.0643237
300 0.0514882
305 0.071897
310 0.05991
315 0.0617677
320 0.0667538
325 0.040216
330 0.0862756
335 0.0749014
340 0.0643776
345 0.093394
350 0.0925387
355 0.107756
360 0.110928
365 0.114746
370 0.0906591
375 0.0886158
380 0.0947937
385 0.143093
390 0.146582
395 0.138735
400 0.164023
405 0.17211
410 0.151724
415 0.263084
420 0.42291
425 0.681088
430 1.16394
435 44.5688
440 759.525
445 1136.2
450 283.027
455 34.5375
460 5.75512
465 1.98049
470 1.66824
475 1.86984
480 1.69811
485 1.37587
490 1.46434
495 1.45784
500 1.6171
505 2.30603
510 3.46881
515 3.18334
520 2.13169
525 1.90542
530 1.58543
535 1.26144
540 1.18665
545 1.01777
550 0.942183
555 0.833368
560 0.894367
565 0.717837
570 0.659224
575 0.482652
580 0.407884
585 0.381542
590 0.297521
595 0.264519
600 0.296852
Ex : 453
200 0.0531152
205 0.0784864
210 0.0649539
215 0.0433904
220 0.0682331
225 0.0829337
230 0.0661935
235 0.0679038
240 0.0689837
245 0.0677206
250 0.0804649
255 0.0688487
260 0.0603293
265 0.0481759
270 0.0565525
275 0.0547726
280 0.0574771
285 0.0444942
290 0.0760319
295 0.111109
300 0.0652032
305 0.085297
310 0.12487
315 0.066913
320 0.031794
325 0.084518
330 0.0715118
335 0.0820047
340 0.0349976
345 0.0614112
350 0.0568869
355 0.107038
360 0.090688
365 0.0791924
370 0.0949988
375 0.130088
380 0.0889729
385 0.135005
390 0.133492
395 0.169521
400 0.129966
405 0.167752
410 0.139158
415 0.224714
420 0.302061
425 0.4138
430 0.594128
435 1.0182
440 45.9711
445 819.037
450 1193.94
455 279.13
460 34.0784
465 5.68621
470 2.0748
475 1.66831
480 1.84366
485 1.52308
490 1.3524
495 1.27524
500 1.33619
505 1.25451
510 1.81965
515 3.02979
520 3.13593
525 2.27175
530 1.87897
535 1.78143
540 1.18109
545 1.05457
550 1.03783
555 0.912312
560 0.867884
565 0.712879
570 0.651402
575 0.59423
580 0.3819
585 0.328431
590 0.295294
595 0.273393
600 0.363787
Ex : 458
200 0.0686725
205 0.0944768
210 0.094692
215 0.0614198
220 0.0294258
225 0.0491675
230 0.0258316
235 0.0817487
240 0.0702461
245 0.108785
250 0.0506083
255 0.0856996
260 0.104094
265 0.064842
270 0.0740377
275 0.0557706
280 0.054827
285 0.104412
290 0.112386
295 0.0493051
300 0.0718198
305 0.132966
310 0.110594
315 0.0796838
320 0.0809108
325 0.0606889
330 0.0916589
335 0.0774065
340 0.0864358
345 0.0989014
350 0.0886276
355 0.0756356
360 0.0716451
365 0.0686295
370 0.087555
375 0.116789
380 0.110405
385 0.10339
390 0.0917372
395 0.103797
400 0.111726
405 0.172278
410 0.165105
415 0.207631
420 0.22151
425 0.268587
430 0.369836
435 0.594627
440 1.07886
445 52.6588
450 848.475
455 1255.85
460 304.49
465 37.3148
470 6.07271
475 2.02665
480 1.60682
485 1.65101
490 1.46223
495 1.46258
500 1.16087
505 1.26676
510 1.1855
515 1.43242
520 2.41404
525 3.19269
530 2.21037
535 1.81602
540 1.5565
545 1.39886
550 1.04671
555 0.846118
560 0.904343
565 0.743538
570 0.58386
575 0.523617
580 0.413251
585 0.407142
590 0.332353
595 0.22242
600 0.0511224
Ex : 463
200 0.0846768
205 0.0349262
210 0.0596832
215 0.0684661
220 0.0671746
225 0.055652
230 0.0552729
235 0.0595543
240 0.0855464
245 0.0849835
250 0.0328949
255 0.0908663
260 0.0715071
265 0.0693845
270 0.0473201
275 0.0769376
280 0.0318775
285 0.0772992
290 0.0576662
295 0.0798267
300 0.0978925
305 0.134699
310 0.0938625
315 0.0560312
320 0.113987
325 0.0812652
330 0.0868494
335 0.0874878
340 0.0910995
345 0.0647834
350 0.0528234
355 0.106364
360 0.0568346
365 0.0721171
370 0.109741
375 0.120413
380 0.0723627
385 0.109914
390 0.127273
395 0.150112
400 0.129631
405 0.144105
410 0.171024
415 0.175583
420 0.170959
425 0.18819
430 0.275445
435 0.416451
440 0.664883
445 1.41776
450 51.0434
455 884.093
460 1352.31
465 329.453
470 40.0298
475 6.11249
480 2.09314
485 1.49828
490 1.48931
495 1.58808
500 1.30809
505 1.20728
510 1.07843
515 1.19831
520 1.36192
525 1.9344
530 2.90168
535 2.43098
540 1.68834
545 1.42712
550 1.20763
555 0.97293
560 0.84251
565 0.717313
570 0.61207
575 0.458773
580 0.422359
585 0.324961
590 0.266493
595 0.253874
600 0.357818
Ex : 468
200 0.044946
205 0.0460039
210 0.100353
215 0.0767551
220 0.0475358
225 0.0931655
230 0.061315
235 0.0992891
240 0.0746488
245 0.0684455
250 0.0712803
255 0.0954542
260 0.0547767
265 0.0645081
270 0.0806721
275 0.0595876
280 0.0861684
285 0.0949641
290 0.0618244
295 0.122066
300 0.0700757
305 0.0713119
310 0.0939965
315 0.050323
320 0.0598155
325 0.0604704
330 0.0819873
335 0.0655655
340 0.064052
345 0.0433341
350 0.0956734
355 0.135694
360 0.0910668
365 0.0769531
370 0.0560581
375 0.10071
380 0.0678389
385 0.106387
390 0.063504
395 0.0898083
400 0.158487
405 0.158017
410 0.136084
415 0.122081
420 0.134552
425 0.18505
430 0.251661
435 0.279141
440 0.410018
445 0.64233
450 1.0706
455 57.4273
460 914.173
465 1433.78
470 346.204
475 41.5893
480 6.35608
485 2.1286
490 1.55534
495 1.60124
500 1.52934
505 1.29401
510 1.09983
515 1.16516
520 1.16373
525 1.27682
530 1.50019
535 2.46235
540 2.82112
545 1.71226
550 1.41179
555 1.31291
560 1.00834
565 0.834155
570 0.733766
575 0.569109
580 0.435752
585 0.391645
590 0.353166
595 0.270111
600 0.24415
Ex : 473
200 0.0732342
205 0.0543303
210 0.10374
215 0.104877
220 0.0477136
225 0.0487443
230 0.0464334
235 0.077263
240 0.0431708
245 0.0838595
250 0.0586236
255 0.0596987
260 0.0650099
265 0.0675878
270 0.0875565
275 0.0629355
280 0.0637476
285 0.0597361
290 0.0740548
295 0.0754184
300 0.0661209
305 0.127553
310 0.0888955
315 0.0804798
320 0.0854959
325 0.0850203
330 0.0765898
335 0.0490255
340 0.0725297
345 0.0968678
350 0.102577
355 0.103064
360 0.0871958
365 0.0726861
370 0.0859398
375 0.065458
380 0.149266
385 0.119101
390 0.166292
395 0.130007
400 0.110539
405 0.136514
410 0.126364
415 0.130332
420 0.147195
425 0.188105
430 0.223632
435 0.276836
440 0.242601
445 0.462528
450 0.691087
455 1.35549
460 65.5288
465 1005.81
470 1415.77
475 328.42
480 39.6091
485 6.14339
490 2.02794
495 1.42221
500 1.64645
505 1.41794
510 1.29947
515 1.25082
520 1.01954
525 1.15597
530 1.16051
535 1.4418
540 2.19383
545 2.67964
550 1.86729
555 1.26466
560 1.23197
565 1.0543
570 0.802851
575 0.564278
580 0.499166
585 0.381997
590 0.399702
595 0.352851
600 0.236513
Ex : 478
200 0.100484
205 0.0955944
210 0.0573637
215 0.113843
220 0.0491083
225 0.0660943
230 0.11501
235 0.153144
240 0.0684504
245 0.0569362
250 0.10662
255 0.0800455
260 0.101541
265 0.0696862
270 0.0719089
275 0.105918
280 0.0757661
285 0.0904744
290 0.0992806
295 0.0838764
300 0.0936601
305 0.134604
310 0.114436
315 0.0925469
320 0.0808521
325 0.115661
330 0.0888143
335 0.0856716
340 0.127522
345 0.113532
350 0.122434
355 0.0762659
360 0.086015
365 0.0613922
370 0.135341
375 0.108061
380 0.120996
385 0.108379
390 0.114748
395 0.139126
400 0.151866
405 0.100119
410 0.110167
415 0.147764
420 0.121472
425 0.134723
430 0.168383
435 0.245828
440 0.249675
445 0.336663
450 0.458854
455 0.919391
460 1.71644
465 74.9843
470 1058.34
475 1471.31
480 355.115
485 42.8572
490 6.52031
495 2.07955
500 1.31668
505 1.25378
510 1.41596
515 1.25164
520 1.15018
525 1.02945
530 1.1247
535 1.13037
540 1.15562
545 1.58137
550 2.58801
555 1.98512
560 1.16732
565 1.06705
570 0.943579
575 0.633022
580 0.474713
585 0.373834
590 0.332612
595 0.301813
600 0.0343452
Ex : 483
200 0.0849738
205 0.110485
210 0.0910096
215 0.0670203
220 0.0555076
225 0.0777631
230 0.115889
235 0.06642
240 0.0871337
245 0.0704324
250 0.0929751
255 0.041116
260 0.0404522
265 0.0553505
270 0.0689841
275 0.128023
280 0.15011
285 0.0876717
290 0.0681701
295 0.0368354
300 0.0720876
305 0.137249
310 0.100606
315 0.0536064
320 0.0584833
325 0.0777292
330 0.0843017
335 0.124238
340 0.107536
345 0.0855333
350 0.0977992
355 0.0856193
360 0.08472
365 0.140328
370 0.11694
375 0.131571
380 0.104289
385 0.110919
390 0.118768
395 0.128055
400 0.157165
405 0.124082
410 0.142457
415 0.190717
420 0.0971213
425 0.138872
430 0.198965
435 0.242806
440 0.270553
445 0.246036
450 0.37552
455 0.518515
460 0.948231
465 1.72568
470 58.7049
475 1047.62
480 1605.55
485 386.572
490 46.4435
495 6.87314
500 2.02922
505 1.38384
510 1.31099
515 1.34934
520 1.36462
525 1.25012
530 1.01165
535 0.98569
540 0.955126
545 0.865952
550 1.21272
555 1.89238
560 2.16398
565 1.27072
570 0.926465
575 0.953381
580 0.696301
585 0.399772
590 0.367581
595 0.314071
600 0.0357401
Ex : 488
200 0.0555808
205 0.0833967
210 0.09632
215 0.0525259
220 0.0981392
225 0.0991396
230 0.134688
235 0.0729024
240 0.102421
245 0.0708548
250 0.0927041
255 0.0629048
260 0.0696015
265 0.091102
270 0.064138
275 0.104619
280 0.0478159
285 0.0834769
290 0.0905471
295 0.148459
300 0.0571428
305 0.0798334
310 0.108225
315 0.0723917
320 0.103307
325 0.105413
330 0.0756078
335 0.0917928
340 0.0873652
345 0.0751265
350 0.0812315
355 0.0978234
360 0.0885601
365 0.0914814
370 0.102991
375 0.102965
380 0.120208
385 0.0703375
390 0.0926717
395 0.136203
400 0.109364
405 0.165748
410 0.161139
415 0.133794
420 0.16951
425 0.13745
430 0.159245
435 0.205723
440 0.184442
445 0.197692
450 0.26016
455 0.356486
460 0.663683
465 0.979794
470 1.5912
475 73.8005
480 1148.1
485 1587.25
490 374.085
495 44.9334
500 6.71626
505 1.95291
510 1.2471
515 1.34103
520 1.51705
525 1.53297
530 1.17971
535 1.11951
540 0.908834
545 0.96438
550 0.956179
555 1.10001
560 1.5877
565 1.90562
570 1.2542
575 0.840962
580 0.701159
585 0.51734
590 0.398443
595 0.353629
600 0.265201
Ex : 493
200 0.0733536
205 0.0476861
210 0.136707
215 0.100807
220 0.074099
225 0.0827262
230 0.0885637
235 0.0831589
240 0.0882119
245 0.139713
250 0.13963
255 0.0806921
260 0.12392
265 0.0716608
270 0.0826779
275 0.111025
280 0.114205
285 0.0626808
290 0.0805884
295 0.0678687
300 0.104095
305 0.0714507
310 0.0741818
315 0.126779
320 0.0680433
325 0.115502
330 0.0988562
335 0.129426
340 0.0984843
345 0.112263
350 0.0955338
355 0.111573
360 0.096032
365 0.0850543
370 0.121716
375 0.124971
380 0.0862448
385 0.126859
390 0.125141
395 0.119831
400 0.148815
405 0.141096
410 0.131119
415 0.179304
420 0.132364
425 0.12668
430 0.162479
435 0.151287
440 0.212099
445 0.217311
450 0.188691
455 0.307578
460 0.45553
465 0.666053
470 0.9909
475 1.59758
480 67.6352
485 1148.43
490 1694.9
495 391.49
500 46.7917
505 6.88073
510 2.12642
515 1.29822
520 1.29365
525 1.35646
530 1.24878
535 1.12112
540 0.878783
545 1.01753
550 0.831518
555 0.742339
560 0.804405
565 1.21383
570 1.77835
575 1.32922
580 0.842034
585 0.567079
590 0.529921
595 0.484828
600 0.198603
Ex : 498
200 0.0883582
205 0.0748881
210 0.0392738
215 0.0554941
220 0.077806
225 0.0609207
230 0.0894803
235 0.0756111
240 0.143687
245 0.225052
250 0.0839118
255 0.0792652
260 0.0844473
265 0.0676007
270 0.144591
275 0.0959532
280 0.0816373
285 0.142163
290 0.0737244
295 0.106539
300 0.0533859
305 0.0759176
310 0.10968
315 0.0582979
320 0.0941736
325 0.134666
330 0.137339
335 0.128207
340 0.0831411
345 0.120993
350 0.100204
355 0.107474
360 0.0601378
365 0.0895842
370 0.0825284
375 0.108282
380 0.127999
385 0.110844
390 0.164111
395 0.181001
400 0.0930926
405 0.128345
410 0.143491
415 0.193464
420 0.155365
425 0.145977
430 0.186584
435 0.171049
440 0.246185
445 0.20805
450 0.253541
455 0.302075
460 0.309407
465 0.472357
470 0.663563
475 0.987149
480 1.64345
485 82.3672
490 1223.02
495 1664.68
500 387.572
505 46.5416
510 6.9581
515 2.01793
520 1.32606
525 1.28754
530 1.54498
535 1.39875
540 1.14544
545 1.05339
550 0.825327
555 0.776848
560 0.715253
565 0.753355
570 0.794585
575 1.17041
580 1.14879
585 0.633682
590 0.48368
595 0.473139
600 0.564971
Ex : 503
200 0.0859005
205 0.145905
210 0.109923
215 0.128944
220 0.0697688
225 0.174401
230 0.100238
235 0.112092
240 0.100172
245 0.117244
250 0.100331
255 0.0514133
260 0.0946592
265 0.0956052
270 0.116425
275 0.129392
280 0.0740671
285 0.115217
290 0.0953761
295 0.0686025
300 0.08642
305 0.0656566
310 0.151109
315 0.103721
320 0.103848
325 0.0810669
330 0.088818
335 0.0722805
340 0.113044
345 0.122185
350 0.210797
355 0.0941347
360 0.154984
365 0.100153
370 0.105754
375 0.0912403
380 0.132131
385 0.0950197
390 0.153837
395 0.131286
400 0.178171
405 0.166001
410 0.166778
415 0.132744
420 0.156263
425 0.215834
430 0.160553
435 0.158471
440 0.199437
445 0.183832
450 0.240452
455 0.359783
460 0.230924
465 0.348168
470 0.580883
475 0.646511
480 1.08027
485 1.98531
490 76.9811
495 1249.5
500 1754.82
505 406.117
510 48.7884
515 7.15424
520 2.36872
525 1.32878
530 1.35995
535 1.39556
540 1.30875
545 1.11838
550 0.933035
555 0.720617
560 0.60706
565 0.639922
570 0.620503
575 0.637755
580 0.794066
585 0.972547
590 0.727909
595 0.448872
600 0.588173
Ex : 508
200 0.133521
205 0.159595
210 0.107809
215 0.104344
220 0.0902655
225 0.0609563
230 0.0779346
235 0.0768661
240 0.0786775
245 0.170988
250 0.108011
255 0.0558257
260 0.131885
265 0.0934503
270 0.127777
275 0.0804581
280 0.127426
285 0.10729
290 0.145482
295 0.18057
300 0.0840148
305 0.113084
310 0.0936164
315 0.10632
320 0.112131
325 0.108731
330 0.118303
335 0.0995148
340 0.107867
345 0.0806305
350 0.153744
355 0.106679
360 0.0928982
365 0.165056
370 0.148644
375 0.0974438
380 0.0678159
385 0.0599207
390 0.121562
395 0.076124
400 0.134876
405 0.186407
410 0.156567
415 0.176759
420 0.128611
425 0.125908
430 0.174611
435 0.197887
440 0.144288
445 0.211495
450 0.184166
455 0.227231
460 0.220615
465 0.374442
470 0.390354
475 0.455633
480 0.564915
485 1.08035
490 1.86188
495 82.5903
500 1258.12
505 1766.87
510 430.057
515 51.356
520 7.64077
525 2.24794
530 1.30868
535 1.08671
540 1.33758
545 1.20361
550 1.03867
555 0.706635
560 0.668561
565 0.717733
570 0.675456
575 0.635764
580 0.561635
585 0.748445
590 0.908913
595 0.821808
600 1.60694
Ex : 513
200 0.0917869
205 0.10484
210 0.0667121
215 0.14909
220 0.0893698
225 0.0891465
230 0.12043
235 0.119281
240 0.126345
245 0.117783
250 0.115253
255 0.0975818
260 0.0656339
265 0.0877532
270 0.152476
275 0.0937274
280 0.0898053
285 0.103646
290 0.113451
295 0.12674
300 0.113896
305 0.137113
310 0.162063
315 0.144943
320 0.0965877
325 0.0612554
330 0.105215
335 0.187506
340 0.099573
345 0.141846
350 0.0597023
355 0.0807768
360 0.097151
365 0.10376
370 0.157613
375 0.127142
380 0.114291
385 0.126408
390 0.134166
395 0.160987
400 0.119934
405 0.208127
410 0.179466
415 0.146227
420 0.215423
425 0.211854
430 0.198389
435 0.160258
440 0.165093
445 0.209628
450 0.205438
455 0.178612
460 0.276258
465 0.288004
470 0.285151
475 0.375012
480 0.441731
485 0.726878
490 1.06724
495 1.79834
500 77.4242
505 1248.34
510 1804.26
515 443.231
520 53.082
525 7.66437
530 2.31825
535 1.28454
540 0.918822
545 1.0959
550 0.976008
555 0.927348
560 0.741892
565 0.521084
570 0.476422
575 0.465055
580 0.350376
585 0.425903
590 0.438542
595 0.594756
600 0.912279
Ex : 518
200 0.11489
205 0.146992
210 0.122998
215 0.10091
220 0.131085
225 0.130482
230 0.17715
235 0.107577
240 0.148455
245 0.182132
250 0.125763
255 0.0967845
260 0.0540994
265 0.138014
270 0.0691939
275 0.155045
280 0.0902698
285 0.0965103
290 0.145178
295 0.0834583
300 0.110637
305 0.102393
310 0.119748
315 0.073738
320 0.1227
325 0.128315
330 0.200618
335 0.169663
340 0.0819535
345 0.134003
350 0.136364
355 0.104352
360 0.117007
365 0.0771772
370 0.110002
375 0.116202
380 0.0938987
385 0.102569
390 0.202625
395 0.0962176
400 0.13234
405 0.106733
410 0.138123
415 0.238139
420 0.151403
425 0.176766
430 0.140193
435 0.116684
440 0.119435
445 0.158384
450 0.21166
455 0.193776
460 0.189085
465 0.254498
470 0.266685
475 0.339756
480 0.528699
485 0.557166
490 0.669446
495 0.976808
500 1.85344
505 79.7882
510 1234.17
515 1812.46
520 446.214
525 53.5032
530 7.68252
535 2.14925
540 1.15873
545 0.849942
550 0.875075
555 0.865726
560 0.692412
565 0.704289
570 0.591405
575 0.468511
580 0.33379
585 0.384508
590 0.461609
595 0.365193
600 0.546142
Ex : 523
200 0.122135
205 0.0801922
210 0.115748
215 0.0773772
220 0.112577
225 0.130397
230 0.0935818
235 0.103041
240 0.0923279
245 0.0969348
250 0.0949492
255 0.0595471
260 0.113129
265 0.091267
270 0.0682092
275 0.0701011
280 0.0906868
285 0.128748
290 0.0682047
295 0.0767631
300 0.131185
305 0.0894108
310 0.0612351
315 0.124269
320 0.0839577
325 0.0661943
330 0.132894
335 0.092084
340 0.132764
345 0.11835
350 0.142047
355 0.127784
360 0.155129
365 0.18092
370 0.134814
375 0.104508
380 0.112969
385 0.160311
390 0.213938
395 0.147508
400 0.200909
405 0.158903
410 0.12961
415 0.0892632
420 0.133332
425 0.131792
430 0.193959
435 0.140582
440 0.141162
445 0.215934
450 0.166938
455 0.319846
460 0.156511
465 0.202423
470 0.340582
475 0.251555
480 0.334671
485 0.368185
490 0.475063
495 0.692165
500 1.2577
505 2.06262
510 72.7755
515 1200.96
520 1821.13
525 467.261
530 55.9148
535 7.73505
540 2.11648
545 1.10575
550 0.800922
555 0.758817
560 0.786987
565 0.669676
570 0.626533
575 0.505201
580 0.524035
585 0.398927
590 0.444547
595 0.425867
600 0.790603
Ex : 528
200 0.0744411
205 0.0776223
210 0.104689
215 0.157967
220 0.0776003
225 0.170008
230 0.165665
235 0.107353
240 0.0739685
245 0.0950592
250 0.127383
255 0.064736
260 0.0499402
265 0.0780395
270 0.0478047
275 0.11435
280 0.119288
285 0.0955619
290 0.0955804
295 0.0712329
300 0.122325
305 0.0676883
310 0.0715683
315 0.149486
320 0.0870426
325 0.0896079
330 0.163055
335 0.0718466
340 0.124351
345 0.142791
350 0.120489
355 0.103715
360 0.123973
365 0.072273
370 0.0874041
375 0.132823
380 0.157132
385 0.224608
390 0.134876
395 0.108291
400 0.105101
405 0.202615
410 0.223174
415 0.169052
420 0.174776
425 0.222068
430 0.175277
435 0.157018
440 0.151037
445 0.161193
450 0.138277
455 0.168364
460 0.25736
465 0.254613
470 0.216334
475 0.280464
480 0.229165
485 0.393338
490 0.450392
495 0.47825
500 0.7626
505 1.04072
510 1.73671
515 69.0155
520 1201.23
525 1818.28
530 458.036
535 54.7649
540 7.76724
545 1.93013
550 0.984806
555 0.825358
560 0.685519
565 0.760599
570 0.581994
575 0.483336
580 0.422955
585 0.361625
590 0.395785
595 0.432085
600 0.358205
Ex : 533
200 0.072663
205 0.127611
210 0.135266
215 0.118748
220 0.165357
225 0.0985551
230 0.112679
235 0.115828
240 0.134395
245 0.128034
250 0.189229
255 0.102169
260 0.0620271
265 0.0857648
270 0.129759
275 0.122749
280 0.101141
285 0.0945981
290 0.102274
295 0.114087
300 0.145185
305 0.0806261
310 0.131317
315 0.088176
320 0.153901
325 0.12237
330 0.125239
335 0.111044
340 0.0810467
345 0.0987644
350 0.0968669
355 0.127204
360 0.129445
365 0.0837458
370 0.0491424
375 0.132161
380 0.0805807
385 0.182662
390 0.134658
395 0.148075
400 0.171055
405 0.128417
410 0.207344
415 0.106231
420 0.145171
425 0.121424
430 0.184975
435 0.171634
440 0.156819
445 0.222415
450 0.191964
455 0.262878
460 0.215811
465 0.172353
470 0.255732
475 0.223689
480 0.222662
485 0.356029
490 0.274235
495 0.297169
500 0.527904
505 0.708542
510 1.01364
515 1.77202
520 68.6232
525 1158.07
530 1791.87
535 465.232
540 55.4629
545 7.56991
550 1.63744
555 0.901908
560 0.721059
565 0.585591
570 0.522733
575 0.612256
580 0.444101
585 0.423505
590 0.410322
595 0.340528
600 0.238263
Ex : 538
200 0.065144
205 0.142624
210 0.165698
215 0.292424
220 0.159646
225 0.106336
230 0.112951
235 0.0899547
240 0.14789
245 0.112329
250 0.100871
255 0.10116
260 0.131739
265 0.0679077
270 0.0866093
275 0.0713125
280 0.210676
285 0.117797
290 0.155937
295 0.115106
300 0.155814
305 0.12985
310 0.171043
315 0.0892602
320 0.130589
325 0.0987375
330 0.0853578
335 0.0810091
340 0.0969031
345 0.0558048
350 0.127285
355 0.119366
360 0.101465
365 0.185075
370 0.151141
375 0.135413
380 0.23486
385 0.162995
390 0.11548
395 0.117306
400 0.100872
405 0.118898
410 0.154857
415 0.120217
420 0.14741
425 0.177206
430 0.246839
435 0.219374
440 0.200302
445 0.148343
450 0.207954
455 0.281087
460 0.200227
465 0.165736
470 0.183198
475 0.20473
480 0.238614
485 0.408833
490 0.27427
495 0.299348
500 0.396519
505 0.488975
510 0.574547
515 1.01987
520 1.70124
525 59.0873
530 1109.69
535 1814.01
540 486.103
545 58.1111
550 7.75805
555 1.86264
560 0.939959
565 0.600238
570 0.561941
575 0.651654
580 0.54159
585 0.46957
590 0.393187
595 0.333237
600 0.14388
Ex : 543
200 0.0514006
205 0.157164
210 0.109536
215 0.148074
220 0.12659
225 0.104935
230 0.0942604
235 0.103968
240 0.114737
245 0.108459
250 0.211585
255 0.2525
260 0.0960656
265 0.0978007
270 0.119249
275 0.103157
280 0.0788042
285 0.163193
290 0.0703441
295 0.106446
300 0.116852
305 0.10376
310 0.127302
315 0.0748232
320 0.13251
325 0.137862
330 0.123825
335 0.175025
340 0.145773
345 0.117518
350 0.146048
355 0.131845
360 0.147426
365 0.138967
370 0.155179
375 0.0981154
380 0.0762087
385 0.172945
390 0.124716
395 0.124613
400 0.109063
405 0.103778
410 0.176478
415 0.179814
420 0.147316
425 0.15324
430 0.175427
435 0.173157
440 0.139156
445 0.194068
450 0.195381
455 0.206726
460 0.159608
465 0.17796
470 0.151466
475 0.169484
480 0.219676
485 0.174891
490 0.213855
495 0.255001
500 0.227561
505 0.321257
510 0.55534
515 0.513974
520 0.982267
525 1.84258
530 55.2077
535 1090.95
540 1809.4
545 494.503
550 58.7518
555 7.82985
560 1.74231
565 0.917926
570 0.519717
575 0.471046
580 0.477938
585 0.45909
590 0.344442
595 0.30687
600 0.374632
Ex : 548
200 0.097086
205 0.11881
210 0.111206
215 0.0959296
220 0.0828533
225 0.11691
230 0.124246
235 0.0599201
240 0.0870165
245 0.145904
250 0.187391
255 0.22014
260 0.152787
265 0.121466
270 0.151711
275 0.136982
280 0.199618
285 0.140252
290 0.123239
295 0.235363
300 0.115834
305 0.0719777
310 0.062235
315 0.145155
320 0.217691
325 0.133577
330 0.18687
335 0.0871861
340 0.0878161
345 0.0674963
350 0.122929
355 0.122459
360 0.115625
365 0.169575
370 0.175886
375 0.137617
380 0.135861
385 0.189214
390 0.0865242
395 0.154446
400 0.230632
405 0.173031
410 0.142598
415 0.247737
420 0.231028
425 0.121153
430 0.194503
435 0.121566
440 0.124121
445 0.245819
450 0.198825
455 0.141726
460 0.164032
465 0.321174
470 0.22502
475 0.233029
480 0.258544
485 0.18799
490 0.27218
495 0.356837
500 0.324993
505 0.491689
510 0.416746
515 0.510678
520 0.682429
525 0.92432
530 1.74117
535 59.5699
540 1071.5
545 1738.34
550 479.965
555 57.154
560 7.53014
565 1.69198
570 0.802446
575 0.545586
580 0.586856
585 0.352174
590 0.371596
595 0.457447
600 0.19721
Ex : 553
200 0.133007
205 0.129852
210 0.104939
215 0.131967
220 0.101367
225 0.125045
230 0.149907
235 0.174818
240 0.172627
245 0.173707
250 0.0933887
255 0.125909
260 0.155784
265 0.095344
270 0.1588
275 0.111165
280 0.146616
285 0.115763
290 0.0881714
295 0.141639
300 0.106565
305 0.115567
310 0.24197
315 0.0905942
320 0.176898
325 0.151521
330 0.0855669
335 0.102606
340 0.119753
345 0.134023
350 0.13217
355 0.101789
360 0.182528
365 0.100333
370 0.122754
375 0.14447
380 0.223681
385 0.12572
390 0.164941
395 0.113944
400 0.193332
405 0.129627
410 0.0825453
415 0.16812
420 0.226955
425 0.204119
430 0.13618
435 0.157835
440 0.251495
445 0.168038
450 0.165169
455 0.220194
460 0.125533
465 0.182033
470 0.16925
475 0.262195
480 0.206902
485 0.243655
490 0.23868
495 0.14878
500 0.30476
505 0.280827
510 0.341473
515 0.34007
520 0.501802
525 0.666571
530 0.865747
535 1.71669
540 52.2822
545 1026.58
550 1739.24
555 489.649
560 58.5317
565 7.7197
570 1.66881
575 0.827153
580 0.466797
585 0.340113
590 0.293068
595 0.439859
600 0.366185
Ex : 558
200 0.151563
205 0.15172
210 0.0971487
215 0.112827
220 0.114816
225 0.134035
230 0.131054
235 0.136053
240 0.146191
245 0.0925926
250 0.124566
255 0.141386
260 0.128334
265 0.0728283
270 0.112516
275 0.110284
280 0.0886798
285 0.130742
290 0.185048
295 0.0937971
300 0.0846858
305 0.163653
310 0.0943736
315 0.133723
320 0.239969
325 0.135893
330 0.15025
335 0.0853271
340 0.125783
345 0.16475
350 0.20992
355 0.172706
360 0.105652
365 0.132587
370 0.145268
375 0.151767
380 0.312586
385 0.114909
390 0.119925
395 0.132134
400 0.103243
405 0.195057
410 0.135392
415 0.118884
420 0.176712
425 0.104873
430 0.1091
435 0.173227
440 0.157883
445 0.204522
450 0.144285
455 0.178664
460 0.22626
465 0.207821
470 0.245233
475 0.182298
480 0.198348
485 0.170572
490 0.164282
495 0.295013
500 0.346977
505 0.281882
510 0.341191
515 0.31236
520 0.273118
525 0.40002
530 0.520138
535 0.844468
540 1.44554
545 48.2971
550 968.169
555 1706.14
560 485.381
565 57.9252
570 7.53106
575 1.55421
580 0.574056
585 0.436622
590 0.442475
595 0.374403
600 0.24133
Ex : 563
200 0.130643
205 0.091922
210 0.193518
215 0.122261
220 0.132596
225 0.0700514
230 0.149597
235 0.152634
240 0.103922
245 0.122186
250 0.144501
255 0.0654768
260 0.190297
265 0.135896
270 0.0911128
275 0.113521
280 0.159159
285 0.128337
290 0.189241
295 0.103467
300 0.122083
305 0.0575834
310 0.141757
315 0.0983798
320 0.0897348
325 0.151701
330 0.149918
335 0.172466
340 0.233708
345 0.144507
350 0.200258
355 0.115235
360 0.224427
365 0.170537
370 0.206208
375 0.132483
380 0.225912
385 0.104178
390 0.125553
395 0.115587
400 0.166898
405 0.240743
410 0.152565
415 0.132205
420 0.207095
425 0.185693
430 0.206887
435 0.219843
440 0.174186
445 0.218118
450 0.109158
455 0.222389
460 0.148848
465 0.205631
470 0.207128
475 0.224654
480 0.196188
485 0.186447
490 0.233208
495 0.212561
500 0.335374
505 0.285137
510 0.315825
515 0.303862
520 0.313507
525 0.456292
530 0.545156
535 0.669384
540 0.807105
545 1.39968
550 47.1158
555 946.522
560 1645.68
565 475.389
570 56.6457
575 7.23434
580 1.2002
585 0.577221
590 0.463143
595 0.333614
600 0.260908
Ex : 568
200 0.186175
205 0.0914891
210 0.0925584
215 0.123546
220 0.202566
225 0.189722
230 0.102216
235 0.119304
240 0.181366
245 0.195654
250 0.0889297
255 0.12081
260 0.113584
265 0.0955098
270 0.142946
275 0.125207
280 0.155783
285 0.169915
290 0.0918695
295 0.136351
300 0.188868
305 0.108216
310 0.147175
315 0.124108
320 0.270522
325 0.196353
330 0.125179
335 0.143073
340 0.183417
345 0.166604
350 0.213753
355 0.208183
360 0.203211
365 0.208277
370 0.138437
375 0.186985
380 0.185486
385 0.10222
390 0.115114
395 0.124286
400 0.162967
405 0.204685
410 0.181216
415 0.131449
420 0.156111
425 0.234912
430 0.129925
435 0.11902
440 0.150188
445 0.214634
450 0.202601
455 0.167629
460 0.252417
465 0.188944
470 0.172032
475 0.160669
480 0.113532
485 0.247208
490 0.180911
495 0.224493
500 0.14243
505 0.218358
510 0.222695
515 0.204812
520 0.246199
525 0.277412
530 0.287154
535 0.453188
540 0.603958
545 0.853866
550 1.29237
555 36.5214
560 853.832
565 1594.54
570 481.46
575 57.8588
580 7.46636
585 1.34227
590 0.702304
595 0.437277
600 0.197461
Ex : 573
200 0.239564
205 0.129641
210 0.0723333
215 0.103379
220 0.174915
225 0.191191
230 0.121683
235 0.0959527
240 0.102342
245 0.202949
250 0.199348
255 0.093095
260 0.0795553
265 0.307753
270 0.129036
275 0.17704
280 0.125536
285 0.130753
290 0.133672
295 0.172645
300 0.0942488
305 0.105726
310 0.142543
315 0.143792
320 0.183003
325 0.183126
330 0.271501
335 0.220827
340 0.204809
345 0.115663
350 0.112615
355 0.100578
360 0.116667
365 0.123395
370 0.168557
375 0.114816
380 0.0971755
385 0.184317
390 0.102719
395 0.230091
400 0.13772
405 0.138336
410 0.141658
415 0.169187
420 0.121169
425 0.147168
430 0.308871
435 0.263664
440 0.165594
445 0.159298
450 0.176646
455 0.12362
460 0.126149
465 0.114547
470 0.216901
475 0.24634
480 0.359244
485 0.211266
490 0.219099
495 0.244356
500 0.190362
505 0.23086
510 0.283788
515 0.265676
520 0.241537
525 0.272434
530 0.293507
535 0.280109
540 0.31817
545 0.451293
550 0.754075
555 1.19163
560 31.0564
565 757.645
570 1492.53
575 457.798
580 54.6558
585 7.02131
590 1.33699
595 0.565261
600 0.371542
Ex : 578
200 0.0829801
205 0.0746562
210 0.156946
215 0.132514
220 0.148687
225 0.103432
230 0.189859
235 0.236832
240 0.143824
245 0.213495
250 0.156184
255 0.0732242
260 0.10181
265 0.147868
270 0.155756
275 0.190625
280 0.0939734
285 0.0631319
290 0.0980956
295 0.114585
300 0.135204
305 0.133265
310 0.192172
315 0.201644
320 0.109028
325 0.167917
330 0.120627
335 0.185931
340 0.169634
345 0.121176
350 0.178014
355 0.0869219
360 0.125044
365 0.0986021
370 0.0903459
375 0.125917
380 0.175616
385 0.153039
390 0.151684
395 0.149967
400 0.142628
405 0.0788855
410 0.102147
415 0.234954
420 0.209092
425 0.14113
430 0.130084
435 0.190444
440 0.205744
445 0.133843
450 0.161043
455 0.17137
460 0.197791
465 0.217211
470 0.207073
475 0.128448
480 0.211067
485 0.224349
490 0.10757
495 0.157317
500 0.181185
505 0.241084
510 0.187693
515 0.255882
520 0.264257
525 0.185222
530 0.306398
535 0.358112
540 0.393428
545 0.47172
550 0.463779
555 0.74603
560 1.31582
565 27.825
570 678.751
575 1314.6
580 397.984
585 47.3788
590 6.09236
595 1.03488
600 0.551825
Ex : 583
200 0.189762
205 0.133689
210 0.189615
215 0.157109
220 0.184753
225 0.113948
230 0.0834365
235 0.199768
240 0.152348
245 0.107515
250 0.319222
255 0.170798
260 0.102079
265 0.111422
270 0.111993
275 0.180425
280 0.111278
285 0.167648
290 0.0901588
295 0.154647
300 0.137845
305 0.133628
310 0.142042
315 0.12785
320 0.10189
325 0.100695
330 0.178712
335 0.145096
340 0.0962354
345 0.170513
350 0.148467
355 0.110762
360 0.180426
365 0.150556
370 0.0946831
375 0.102815
380 0.109853
385 0.232557
390 0.191481
395 0.227049
400 0.213571
405 0.118818
410 0.142323
415 0.232544
420 0.168976
425 0.198859
430 0.12493
435 0.167881
440 0.14974
445 0.163469
450 0.254446
455 0.161407
460 0.147858
465 0.157765
470 0.169989
475 0.180513
480 0.140379
485 0.326618
490 0.246615
495 0.161698
500 0.138271
505 0.245844
510 0.214561
515 0.253576
520 0.244755
525 0.167629
530 0.191652
535 0.225232
540 0.288375
545 0.236957
550 0.318046
555 0.431768
560 0.658473
565 1.0257
570 23.3141
575 606.556
580 1134.46
585 328.837
590 39.1934
595 5.00588
600 1.05583
Ex : 588
200 0.269767
205 0.174357
210 0.108785
215 0.105413
220 0.156444
225 0.0684429
230 0.0710667
235 0.11495
240 0.10859
245 0.159518
250 0.106065
255 0.156979
260 0.0925367
265 0.184617
270 0.0926619
275 0.062611
280 0.168825
285 0.143556
290 0.0575837
295 0.0926561
300 0.0753168
305 0.156374
310 0.100867
315 0.125339
320 0.064188
325 0.194245
330 0.199004
335 0.114126
340 0.290667
345 0.19896
350 0.12092
355 0.221603
360 0.230985
365 0.246019
370 0.109669
375 0.120719
380 0.103724
385 0.0957353
390 0.156984
395 0.103701
400 0.149291
405 0.206714
410 0.144545
415 0.131384
420 0.109153
425 0.220704
430 0.182375
435 0.0968948
440 0.1713
445 0.204055
450 0.211236
455 0.166516
460 0.176804
465 0.170013
470 0.343689
475 0.225216
480 0.15418
485 0.139325
490 0.108232
495 0.264921
500 0.169732
505 0.149074
510 0.157084
515 0.137083
520 0.17467
525 0.214786
530 0.0955368
535 0.182638
540 0.207353
545 0.333017
550 0.242393
555 0.292674
560 0.477411
565 0.674134
570 0.959092
575 19.9735
580 505.934
585 968.91
590 287.905
595 34.1471
600 4.07204
Ex : 593
200 0.139845
205 0.1228
210 0.066218
215 0.117627
220 0.257511
225 0.16896
230 0.0890412
235 0.068048
240 0.141583
245 0.140709
250 0.103799
255 0.121884
260 0.122804
265 0.189254
270 0.11872
275 0.0838155
280 0.199198
285 0.14339
290 0.115394
295 0.193571
300 0.286007
305 0.202786
310 0.0789052
315 0.190562
320 0.21185
325 0.12509
330 0.108913
335 0.175353
340 0.160632
345 0.125082
350 0.179943
355 0.13651
360 0.148747
365 0.138673
370 0.155978
375 0.121613
380 0.11701
385 0.173654
390 0.185864
395 0.16232
400 0.166682
405 0.100721
410 0.19707
415 0.149833
420 0.122324
425 0.10452
430 0.137613
435 0.215739
440 0.119841
445 0.182943
450 0.141205
455 0.209463
460 0.1004
465 0.111717
470 0.169073
475 0.132662
480 0.17259
485 0.184067
490 0.119557
495 0.188368
500 0.182607
505 0.273061
510 0.202696
515 0.222253
520 0.175526
525 0.184433
530 0.204993
535 0.137583
540 0.323135
545 0.220807
550 0.335684
555 0.372281
560 0.333732
565 0.434471
570 0.436087
575 0.823262
580 17.8816
585 454.712
590 844.814
595 251.026
600 39.3269
Ex : 598
200 0.128123
205 0.12
210 0.145865
215 0.163625
220 0.108825
225 0.185294
230 0.224797
235 0.171279
240 0.135389
245 0.0992301
250 0.191725
255 0.0999723
260 0.113605
265 0.10935
270 0.142326
275 0.113614
280 0.240766
285 0.0942752
290 0.263276
295 0.16781
300 0.116348
305 0.145206
310 0.159192
315 0.125596
320 0.110176
325 0.133261
330 0.137598
335 0.172972
340 0.136614
345 0.126869
350 0.177223
355 0.109579
360 0.19687
365 0.211086
370 0.154543
375 0.203661
380 0.305885
385 0.173193
390 0.150892
395 0.0936085
400 0.112661
405 0.316026
410 0.0942877
415 0.199881
420 0.210442
425 0.147725
430 0.135265
435 0.240281
440 0.187838
445 0.0840871
450 0.202156
455 0.13486
460 0.22728
465 0.146663
470 0.0932316
475 0.0838842
480 0.154669
485 0.212932
490 0.138335
495 0.184462
500 0.187903
505 0.218822
510 0.163402
515 0.188784
520 0.145159
525 0.271188
530 0.196108
535 0.179905
540 0.237247
545 0.172601
550 0.221159
555 0.338609
560 0.204074
565 0.307051
570 0.318486
575 0.556009
580 0.582648
585 16.8075
590 398.905
595 736.467
600 457.071
Ex : 603
200 0.0737008
205 0.123122
210 0.0544372
215 0.417496
220 0.276836
225 0.183709
230 0.148444
235 0.0946605
240 0.0829212
245 0.0986337
250 0.0907507
255 0.105705
260 0.102094
265 0.0520591
270 0.149709
275 0.283196
280 0.214453
285 0.0885093
290 0.185806
295 0.20306
300 0.187778
305 0.120597
310 0.148771
315 0.170576
320 0.19047
325 0.128685
330 0.1553
335 0.130883
340 0.0793484
345 0.0856694
350 0.168991
355 0.100783
360 0.0938652
365 0.188238
370 0.162926
375 0.113597
380 0.182369
385 0.235996
390 0.137807
395 0.135548
400 0.180259
405 0.0947424
410 0.2075
415 0.207679
420 0.108503
425 0.174578
430 0.285586
435 0.115757
440 0.235874
445 0.0822074
450 0.0931778
455 0.119405
460 0.10978
465 0.143091
470 0.182173
475 0.139233
480 0.174911
485 0.200167
490 0.145921
495 0.0883598
500 0.0740586
505 0.154305
510 0.170897
515 0.150619
520 0.22716
525 0.186389
530 0.238725
535 0.189292
540 0.136742
545 0.115022
550 0.241667
555 0.433516
560 0.289924
565 0.252992
570 0.329844
575 0.337462
580 0.32064
585 0.533858
590 15.3128
595 349.074
600 728.858
