File format V 1.0
ven. 6. janv. 03:34:28 2017
Operator : 
Comments : 

=============================================
SpectroFluorometer parameters
Mode : 3D measurement
Data : Fluorescence
Phospho. : Ordinary
Spectrum : Fluorescence

Scan speed : 2400 nm/mn
Response : 100 ms
PM Voltage : 700 V
Shutter : On

Lambda Ex. Start : 203
Lambda Ex. End : 603
Lambda Ex. Step : 5
Ex. Slit : 5 nm

Lambda Em. Start : 200
Lambda Em. End : 600
Lambda Em. Step : 5
Em. Slit : 5 nm

Repetition : 1
Decal lambda em : 10
=============================================
DATA
Ex : 203
200 3.02597
205 3.65898
210 4.27432
215 3.30812
220 3.97306
225 1.83322
230 3.94031
235 1.09712
240 2.6528
245 2.56453
250 1.67037
255 1.25353
260 3.3115
265 2.66485
270 4.40124
275 5.51687
280 4.97773
285 4.94029
290 2.34708
295 3.35614
300 3.76348
305 3.99444
310 3.04248
315 2.1868
320 2.67077
325 2.22808
330 5.63533
335 3.68836
340 2.44691
345 2.77754
350 3.8773
355 2.23808
360 1.84623
365 3.5217
370 2.60746
375 4.14427
380 4.76586
385 7.41199
390 2.81469
395 3.38878
400 3.26579
405 6.1755
410 4.13012
415 3.79599
420 3.87567
425 2.80425
430 2.34058
435 8.38441
440 3.82987
445 4.88411
450 2.12926
455 4.2056
460 5.26063
465 2.42284
470 1.98123
475 2.16367
480 4.0307
485 1.70174
490 1.68534
495 2.79501
500 3.11779
505 4.64734
510 3.46943
515 2.66862
520 2.10004
525 4.65899
530 6.26337
535 7.41707
540 6.23755
545 2.56113
550 1.77037
555 4.62154
560 6.84639
565 5.88643
570 5.58062
575 1.94509
580 3.99386
585 3.8094
590 1.63107
595 3.1229
600 0.355374
Ex : 208
200 6.57317
205 5.19651
210 3.87446
215 5.11679
220 4.13803
225 8.81502
230 4.86168
235 5.24391
240 2.43546
245 3.44819
250 2.84478
255 4.61795
260 5.3599
265 2.09406
270 2.44545
275 3.93894
280 1.96169
285 3.37607
290 3.02564
295 0.743967
300 2.93488
305 2.81981
310 5.50976
315 3.82145
320 3.29171
325 3.42465
330 4.1208
335 3.3875
340 12.368
345 4.3313
350 3.58906
355 4.07898
360 3.08757
365 2.35394
370 3.38959
375 6.35797
380 3.91268
385 2.93559
390 5.96477
395 4.70385
400 3.08312
405 3.78277
410 5.41692
415 2.54221
420 1.87855
425 7.97494
430 5.16575
435 4.92558
440 4.37062
445 4.59681
450 3.70265
455 4.00698
460 3.81801
465 6.51814
470 3.27279
475 5.33752
480 4.41861
485 4.06375
490 2.57981
495 4.97176
500 3.51061
505 3.35742
510 1.70245
515 3.97671
520 2.94804
525 2.53148
530 2.15079
535 2.06147
540 4.86254
545 6.30185
550 2.30173
555 6.40366
560 7.55248
565 2.98167
570 6.69944
575 2.675
580 4.97762
585 4.63219
590 3.93901
595 4.02609
600 10.9154
Ex : 213
200 2.70186
205 1.92764
210 2.69862
215 4.76069
220 5.09386
225 2.2379
230 5.77811
235 4.20795
240 5.76154
245 3.95766
250 3.9521
255 3.74223
260 5.41075
265 3.14694
270 3.41905
275 4.18159
280 2.8122
285 1.5087
290 2.13442
295 1.99745
300 4.64139
305 1.86929
310 1.2717
315 1.34702
320 4.24126
325 2.93208
330 4.92837
335 5.93506
340 3.27937
345 1.60243
350 2.18065
355 1.90351
360 2.6623
365 3.90765
370 6.31653
375 3.06695
380 6.41696
385 3.57393
390 2.51352
395 4.3496
400 3.65244
405 4.48461
410 4.31338
415 2.54425
420 5.99077
425 6.31
430 2.26752
435 4.35606
440 3.38841
445 2.64028
450 1.92516
455 5.94347
460 4.83293
465 4.16248
470 3.23547
475 3.00883
480 3.60885
485 5.4862
490 2.19978
495 4.10589
500 2.53504
505 3.11359
510 3.01293
515 2.61199
520 5.21873
525 1.71049
530 2.73241
535 3.69357
540 2.41282
545 3.1683
550 5.4622
555 5.96167
560 4.34508
565 3.92148
570 5.76912
575 1.96809
580 3.30486
585 6.09858
590 5.08223
595 2.42965
600 1.75349
Ex : 218
200 5.43931
205 6.62124
210 1.92006
215 7.70199
220 3.27838
225 2.93522
230 6.05066
235 6.85874
240 2.62358
245 3.40027
250 3.53035
255 4.45372
260 1.79535
265 3.0941
270 3.72539
275 5.26476
280 5.35449
285 6.28423
290 2.63429
295 3.85602
300 3.41712
305 5.26569
310 3.32471
315 2.57434
320 2.7315
325 2.43335
330 2.34272
335 4.06461
340 4.91093
345 4.4917
350 3.30909
355 5.3643
360 6.16583
365 3.36026
370 1.66309
375 5.19038
380 2.35091
385 7.35175
390 4.84093
395 7.52597
400 5.71974
405 4.55467
410 3.14261
415 2.30155
420 3.59756
425 3.18579
430 3.81753
435 4.84272
440 5.93781
445 5.8046
450 7.01351
455 2.45543
460 1.85268
465 5.01021
470 4.62136
475 4.93374
480 3.95554
485 3.75325
490 3.45094
495 5.17593
500 4.45774
505 2.40308
510 2.61866
515 6.38654
520 3.55087
525 3.43783
530 4.39914
535 1.68412
540 2.14019
545 4.65109
550 2.69841
555 4.14899
560 4.05831
565 4.72959
570 3.92985
575 1.88796
580 5.2797
585 3.57094
590 2.74963
595 3.45641
600 0.393327
Ex : 223
200 2.075
205 2.84916
210 6.15619
215 3.01215
220 2.09907
225 4.55452
230 4.52282
235 2.64813
240 2.64752
245 1.84953
250 4.84265
255 3.86906
260 3.53918
265 4.45727
270 1.33698
275 5.26184
280 2.29412
285 8.01261
290 5.19512
295 6.43904
300 2.37688
305 2.67181
310 0.905785
315 2.17616
320 1.49433
325 2.05451
330 2.95824
335 4.68172
340 4.91071
345 6.69679
350 5.54142
355 2.45607
360 3.35732
365 4.22404
370 1.96136
375 2.12853
380 1.61497
385 2.89709
390 5.76934
395 6.17706
400 5.67494
405 4.28328
410 1.69743
415 5.02064
420 1.84104
425 1.33493
430 3.12097
435 3.02451
440 2.04047
445 6.4081
450 5.19208
455 5.15778
460 1.36949
465 4.69428
470 5.88465
475 2.77506
480 3.93306
485 8.97285
490 4.14051
495 4.24555
500 4.28489
505 5.21586
510 6.19682
515 2.73754
520 1.49682
525 3.0228
530 2.0729
535 2.24537
540 3.24789
545 6.26228
550 1.51734
555 4.70215
560 5.09987
565 3.61796
570 2.15894
575 1.72457
580 2.2714
585 3.15878
590 3.08918
595 2.48986
600 0.283337
Ex : 228
200 3.52778
205 4.21308
210 3.34852
215 4.45237
220 6.93419
225 3.28944
230 5.5544
235 2.47305
240 6.83228
245 4.29727
250 3.46522
255 3.11387
260 2.137
265 6.65909
270 3.30291
275 5.00666
280 3.27351
285 1.68771
290 5.07089
295 2.21436
300 3.63382
305 4.10032
310 4.64575
315 2.08078
320 3.77642
325 3.5558
330 3.36681
335 2.59303
340 3.82425
345 3.11855
350 4.36137
355 1.66922
360 2.31218
365 2.83579
370 4.52725
375 4.37095
380 5.38987
385 2.12663
390 3.55253
395 2.3364
400 6.3216
405 3.76201
410 2.00524
415 2.5692
420 6.49579
425 4.90591
430 2.7954
435 2.20933
440 3.63798
445 2.74385
450 3.06047
455 3.00688
460 4.12868
465 1.55297
470 3.03864
475 4.19362
480 5.2738
485 4.1802
490 4.22359
495 5.33661
500 4.69591
505 2.08148
510 2.64772
515 5.78811
520 2.4257
525 2.43026
530 2.24646
535 1.6155
540 1.8121
545 3.17945
550 3.48366
555 1.67158
560 5.92285
565 2.52193
570 2.18667
575 1.63416
580 5.98471
585 2.69514
590 3.84208
595 2.3663
600 0.269276
Ex : 233
200 5.51099
205 2.11225
210 3.38236
215 1.94201
220 1.59365
225 3.9376
230 2.47298
235 3.04541
240 1.12258
245 3.4187
250 2.41038
255 4.38743
260 3.51237
265 2.09986
270 2.47513
275 2.60116
280 1.70029
285 4.8662
290 3.71947
295 2.25106
300 4.97273
305 2.78586
310 1.17553
315 6.29136
320 2.07508
325 1.22442
330 1.69962
335 4.4143
340 3.11121
345 7.32327
350 2.1603
355 5.64362
360 3.13929
365 1.52432
370 3.18006
375 2.41178
380 2.84294
385 5.04041
390 4.66812
395 4.28835
400 3.02685
405 3.82596
410 3.81574
415 2.32036
420 1.09457
425 4.1563
430 3.16423
435 4.32136
440 2.89371
445 2.14175
450 4.0079
455 2.39588
460 1.01349
465 1.43279
470 4.18828
475 6.27855
480 4.15554
485 3.31226
490 2.9593
495 1.68644
500 2.5295
505 4.73733
510 3.49001
515 2.46793
520 3.95226
525 3.40531
530 2.1919
535 3.20499
540 3.07959
545 4.24088
550 3.59345
555 3.23655
560 3.87959
565 6.49416
570 3.2928
575 2.05168
580 2.251
585 4.7255
590 2.06894
595 3.20209
600 0.364385
Ex : 238
200 1.51142
205 1.0111
210 1.93302
215 1.9137
220 1.60194
225 3.7406
230 4.27298
235 4.48759
240 1.84412
245 1.78579
250 1.33722
255 2.03265
260 2.97206
265 3.49957
270 2.58123
275 2.14103
280 1.53075
285 2.89217
290 4.27713
295 2.50597
300 1.90701
305 1.49382
310 2.41088
315 1.50333
320 2.04287
325 1.85454
330 1.63812
335 1.62815
340 3.73009
345 1.41541
350 3.41578
355 2.63897
360 2.69522
365 4.31794
370 1.80177
375 3.13785
380 3.31381
385 1.77921
390 2.52819
395 2.37965
400 4.02111
405 4.37667
410 2.20593
415 5.99447
420 2.61883
425 2.22529
430 1.54941
435 1.53672
440 5.93306
445 4.97958
450 2.05532
455 3.1162
460 2.60582
465 2.40613
470 4.07482
475 3.38455
480 3.10518
485 2.10856
490 1.54524
495 4.90488
500 2.56466
505 3.73954
510 2.02768
515 4.09147
520 3.23648
525 3.22188
530 1.66523
535 2.03198
540 4.67946
545 2.73423
550 2.54611
555 4.47906
560 2.28211
565 1.64124
570 2.13386
575 1.89215
580 4.00517
585 3.3973
590 3.02939
595 3.782
600 0.430377
Ex : 243
200 3.63745
205 2.20427
210 1.49298
215 2.57478
220 3.08767
225 2.24168
230 1.95461
235 4.11252
240 2.61703
245 1.40847
250 1.66682
255 1.75024
260 2.96141
265 2.42304
270 2.96019
275 4.1365
280 1.14438
285 2.07464
290 3.00735
295 1.68289
300 1.41938
305 1.30406
310 2.47685
315 2.04685
320 2.47407
325 1.89218
330 2.46183
335 1.99106
340 3.00381
345 2.17961
350 4.00539
355 1.34921
360 2.58876
365 2.05185
370 3.1826
375 2.88028
380 1.92578
385 1.57536
390 3.5044
395 3.3845
400 2.39018
405 1.94554
410 3.98864
415 1.40827
420 3.03574
425 3.37207
430 1.52364
435 2.12013
440 4.67228
445 2.89251
450 4.59838
455 2.40232
460 3.05696
465 7.15068
470 2.67693
475 3.49933
480 4.43619
485 2.13441
490 2.39405
495 3.11781
500 2.82485
505 4.06198
510 2.35469
515 5.85372
520 2.43125
525 1.78691
530 2.5641
535 2.76533
540 1.88175
545 4.0392
550 1.38716
555 2.39376
560 1.48955
565 2.86551
570 1.62046
575 2.86489
580 2.08761
585 1.9217
590 1.09093
595 0.946026
600 4.18419
Ex : 248
200 2.8194
205 1.82379
210 3.13357
215 2.02241
220 1.17987
225 1.66086
230 1.88421
235 1.70795
240 1.65931
245 2.29084
250 2.83099
255 1.46831
260 1.58628
265 2.72138
270 1.92784
275 1.79096
280 3.91838
285 1.38545
290 1.42749
295 1.9973
300 4.03702
305 2.40845
310 1.34465
315 1.29559
320 2.07521
325 1.72904
330 4.26538
335 3.23663
340 1.25141
345 2.41867
350 3.96259
355 2.0303
360 2.78408
365 3.72336
370 3.88767
375 1.81279
380 2.88544
385 4.46501
390 2.94758
395 1.24324
400 1.79856
405 4.04799
410 1.50567
415 2.56604
420 2.68207
425 2.75654
430 2.9263
435 1.35834
440 1.35152
445 1.89467
450 2.29151
455 0.655308
460 1.07793
465 2.50434
470 1.81189
475 2.5968
480 3.9737
485 1.22227
490 3.27535
495 1.51257
500 1.92639
505 2.28001
510 1.70106
515 1.99608
520 1.63082
525 2.78807
530 1.46845
535 0.842453
540 2.83088
545 0.9099
550 0.658154
555 2.03632
560 3.65216
565 2.80359
570 1.4956
575 0.77256
580 0.76961
585 1.63765
590 0.821522
595 1.23463
600 0.140496
Ex : 253
200 1.56941
205 2.25289
210 1.45623
215 0.955975
220 2.27872
225 1.33117
230 1.86006
235 1.84927
240 1.87083
245 1.01481
250 0.724265
255 0.879748
260 1.88262
265 1.12297
270 0.906575
275 1.34939
280 0.692561
285 1.7508
290 2.61972
295 3.14419
300 2.22011
305 1.33193
310 1.11292
315 1.00534
320 1.43105
325 3.01207
330 2.86747
335 2.89956
340 0.999133
345 1.66579
350 1.7348
355 3.50757
360 1.31522
365 1.69868
370 2.26452
375 1.53352
380 1.56205
385 2.27219
390 1.73732
395 2.29191
400 1.7105
405 1.09309
410 1.27892
415 3.47499
420 1.81385
425 0.971884
430 1.14865
435 2.26974
440 2.23445
445 2.68322
450 1.01729
455 0.891818
460 1.17688
465 0.722286
470 2.25213
475 3.78317
480 1.11352
485 1.93026
490 2.17124
495 1.78819
500 2.15216
505 3.34412
510 1.67634
515 1.52762
520 1.53349
525 1.08519
530 2.19295
535 1.66646
540 3.399
545 1.48836
550 1.71355
555 1.65018
560 2.70967
565 2.45167
570 1.75838
575 2.48839
580 2.01506
585 1.53715
590 2.17443
595 1.15819
600 0.131798
Ex : 258
200 1.76484
205 1.70267
210 1.50076
215 2.21397
220 1.45742
225 1.01079
230 1.98253
235 1.202
240 1.46709
245 1.35126
250 1.9362
255 1.39216
260 1.90862
265 1.17266
270 1.11745
275 0.961118
280 0.683943
285 0.999247
290 1.5133
295 1.24675
300 2.04174
305 1.12046
310 0.728581
315 1.105
320 2.35639
325 0.963171
330 1.46426
335 1.85158
340 1.12268
345 1.10714
350 1.53291
355 2.08364
360 1.63855
365 1.30481
370 1.62751
375 1.45887
380 1.28627
385 1.35137
390 2.29494
395 1.03829
400 2.01123
405 1.78405
410 2.26253
415 1.72981
420 1.29535
425 1.75813
430 1.02529
435 2.01512
440 2.25103
445 1.48103
450 1.65019
455 1.03086
460 1.81505
465 1.49736
470 1.09045
475 1.15255
480 1.40482
485 1.22611
490 1.53351
495 1.09434
500 0.805614
505 1.76715
510 2.19152
515 1.21189
520 0.523299
525 0.519354
530 0.777865
535 2.58937
540 0.963341
545 1.70076
550 1.49882
555 1.01285
560 1.81007
565 1.50753
570 0.867003
575 2.41006
580 1.2261
585 1.01179
590 2.26068
595 2.42787
600 0.896625
Ex : 263
200 0.711033
205 1.04303
210 1.04383
215 0.276063
220 0.709648
225 0.896186
230 0.678718
235 1.00244
240 1.3642
245 0.908204
250 2.20713
255 1.15703
260 0.745308
265 0.393254
270 0.606321
275 0.881999
280 0.966845
285 1.103
290 0.567864
295 1.23036
300 0.830497
305 0.581688
310 2.36537
315 1.533
320 0.897164
325 0.858423
330 0.782688
335 1.36638
340 1.75917
345 0.713171
350 1.19006
355 1.05901
360 0.997337
365 0.958584
370 0.835832
375 1.89354
380 1.76399
385 1.16571
390 2.00604
395 1.62378
400 1.42515
405 0.719131
410 1.17911
415 0.750067
420 1.44543
425 2.01983
430 2.07791
435 1.59937
440 0.831988
445 1.63403
450 1.60693
455 1.01864
460 1.0496
465 1.13441
470 1.60661
475 1.69902
480 1.08899
485 1.21582
490 1.0647
495 1.15174
500 1.13136
505 0.652411
510 1.41202
515 1.96823
520 1.30608
525 0.881773
530 1.1907
535 1.09608
540 1.20787
545 1.48394
550 0.877521
555 0.657504
560 1.10208
565 1.14667
570 1.99966
575 0.628969
580 0.845293
585 1.1961
590 0.762939
595 0.976095
600 0.179245
Ex : 268
200 2.4311
205 0.872714
210 0.671601
215 0.434781
220 1.33839
225 0.517425
230 0.536256
235 0.760285
240 1.05373
245 0.945828
250 1.25848
255 0.613708
260 0.88062
265 0.856127
270 0.548493
275 1.30144
280 0.871183
285 0.845978
290 1.40916
295 0.477804
300 1.15282
305 1.01138
310 0.347337
315 0.700506
320 1.04793
325 1.09209
330 0.81368
335 0.328673
340 0.736586
345 0.789435
350 0.447194
355 0.85897
360 0.721328
365 0.991291
370 0.725773
375 1.00875
380 0.538576
385 1.01018
390 1.08382
395 0.575455
400 1.93068
405 1.32715
410 1.35694
415 1.39219
420 1.16514
425 0.60451
430 1.216
435 0.609022
440 1.09915
445 0.494941
450 0.651463
455 1.35299
460 0.653686
465 0.782863
470 1.05717
475 0.901343
480 0.706357
485 0.719748
490 1.35273
495 0.646403
500 0.630261
505 0.418968
510 0.742236
515 0.562307
520 1.21508
525 0.970617
530 0.804265
535 0.667856
540 0.621727
545 1.2444
550 0.33881
555 0.654008
560 0.600991
565 1.33268
570 1.75537
575 0.922257
580 1.15875
585 0.777368
590 1.08318
595 1.1016
600 0.125358
Ex : 273
200 0.61723
205 0.830533
210 0.727653
215 0.292182
220 0.672849
225 0.266326
230 1.04658
235 0.435598
240 0.267938
245 0.530798
250 0.541737
255 0.816159
260 0.615259
265 0.459392
270 0.497827
275 1.0568
280 0.543506
285 1.05883
290 0.368904
295 0.879968
300 0.930277
305 0.534639
310 0.535451
315 0.636084
320 1.00973
325 0.936335
330 0.639253
335 0.791685
340 0.789829
345 0.728771
350 0.710255
355 0.518121
360 1.32028
365 0.927135
370 0.87051
375 0.322318
380 0.981766
385 1.23129
390 1.19947
395 1.10248
400 0.783279
405 1.41258
410 1.04596
415 0.992598
420 0.950801
425 0.875652
430 0.76257
435 0.995579
440 1.00536
445 0.8212
450 1.75814
455 0.993901
460 0.852564
465 0.60137
470 0.751388
475 1.16335
480 0.424832
485 0.301545
490 1.45361
495 0.997761
500 0.531489
505 0.541001
510 0.443599
515 1.04672
520 0.793848
525 0.908523
530 1.16703
535 0.885642
540 0.775847
545 0.688241
550 0.893071
555 0.586422
560 0.778219
565 0.528171
570 0.989844
575 0.498934
580 0.387008
585 0.577721
590 0.806843
595 0.435405
600 0.0495475
Ex : 278
200 0.642152
205 0.709487
210 1.03256
215 0.391275
220 0.37081
225 0.873163
230 0.529327
235 0.30627
240 0.52604
245 0.502165
250 0.292178
255 0.122829
260 0.864415
265 0.908431
270 0.626862
275 0.510393
280 0.285962
285 0.688665
290 0.551377
295 0.591105
300 0.421104
305 0.435733
310 0.272899
315 0.229399
320 0.280798
325 0.290899
330 0.762359
335 0.675167
340 0.394016
345 0.726289
350 0.561085
355 0.245553
360 0.729721
365 0.849746
370 1.10202
375 0.531416
380 0.862814
385 0.355418
390 0.486299
395 0.480045
400 0.799006
405 0.581918
410 0.799769
415 0.481703
420 0.752652
425 0.659122
430 0.370141
435 0.872937
440 1.12316
445 0.551307
450 0.94019
455 0.510616
460 0.616973
465 0.581816
470 0.489976
475 0.42348
480 0.50253
485 0.809578
490 0.605317
495 0.515213
500 0.597677
505 0.427609
510 1.04514
515 0.657071
520 0.780542
525 0.500618
530 0.613237
535 0.953614
540 0.444309
545 0.545019
550 0.593743
555 0.887946
560 0.499474
565 0.676623
570 1.03932
575 0.542944
580 0.318967
585 0.383004
590 0.435852
595 0.30246
600 0.0344188
Ex : 283
200 0.729274
205 0.464476
210 0.260417
215 0.259783
220 0.314039
225 0.241602
230 0.131753
235 0.292837
240 0.404873
245 1.00176
250 0.417067
255 0.367497
260 0.368628
265 0.820713
270 0.492089
275 0.399734
280 0.186207
285 0.381435
290 0.201259
295 0.484151
300 0.345515
305 0.533385
310 0.567476
315 0.314414
320 0.267677
325 0.42039
330 0.523604
335 0.38422
340 0.914906
345 0.683073
350 0.436401
355 0.430881
360 0.745289
365 0.824513
370 0.712991
375 0.884993
380 0.38046
385 0.405862
390 0.587132
395 0.801524
400 0.617046
405 0.440503
410 0.404741
415 0.525812
420 0.629773
425 0.515423
430 0.487846
435 0.588817
440 0.199021
445 0.473216
450 0.892614
455 0.679449
460 0.403051
465 0.529971
470 0.60738
475 0.332814
480 0.287098
485 0.908293
490 0.429647
495 0.854947
500 0.304048
505 0.338103
510 0.644309
515 0.366747
520 0.429815
525 0.339107
530 0.330656
535 0.221901
540 0.290786
545 0.510024
550 0.635345
555 0.482128
560 0.330528
565 0.336927
570 0.561917
575 0.444122
580 0.6283
585 0.292885
590 0.381203
595 0.427158
600 0.048609
Ex : 288
200 0.416924
205 0.123935
210 0.679712
215 0.425715
220 0.545597
225 0.185247
230 0.152656
235 0.480167
240 0.1917
245 0.237169
250 0.121605
255 0.379867
260 0.361493
265 0.294415
270 0.330712
275 0.490631
280 0.591829
285 0.32902
290 0.233828
295 0.305793
300 0.251984
305 0.165865
310 0.191739
315 0.350467
320 0.661104
325 0.734359
330 0.468064
335 0.197795
340 0.494056
345 0.566377
350 0.472116
355 0.340308
360 0.688389
365 0.299614
370 0.373226
375 0.348685
380 0.417923
385 0.419192
390 0.26898
395 0.72174
400 0.489807
405 0.689677
410 0.875684
415 0.443156
420 0.434051
425 0.343699
430 0.700178
435 0.472699
440 0.578201
445 0.463955
450 0.586489
455 0.586428
460 0.580775
465 0.361857
470 0.402894
475 0.397254
480 0.302368
485 0.312327
490 0.477824
495 0.27277
500 0.205214
505 0.480487
510 0.661861
515 0.164872
520 0.244151
525 0.625558
530 0.583401
535 0.265087
540 0.305422
545 0.1905
550 0.294482
555 0.152332
560 0.316049
565 0.343153
570 0.288346
575 0.423961
580 0.227017
585 0.160174
590 0.189307
595 0.248053
600 0.0282275
Ex : 293
200 0.430857
205 0.341802
210 0.272846
215 0.182771
220 0.267455
225 0.256987
230 0.203526
235 0.1368
240 0.223677
245 0.394976
250 0.687806
255 0.412739
260 0.706447
265 0.553283
270 0.216253
275 0.240022
280 0.164691
285 0.206921
290 0.246139
295 0.413478
300 0.284495
305 0.259654
310 0.497344
315 0.284397
320 0.284441
325 0.422335
330 0.52953
335 0.41474
340 0.305103
345 0.288715
350 0.256963
355 0.380098
360 0.686168
365 0.490683
370 0.299392
375 0.465906
380 0.389664
385 0.429889
390 0.531455
395 0.359287
400 0.587424
405 0.479663
410 0.550336
415 0.681991
420 0.680152
425 0.649652
430 0.378428
435 0.411423
440 0.592967
445 0.570938
450 0.338863
455 0.374132
460 0.541006
465 0.297138
470 0.327206
475 0.524901
480 0.614536
485 0.241861
490 0.482438
495 0.780479
500 0.396255
505 0.544075
510 0.162089
515 0.285514
520 0.437625
525 0.404096
530 0.23835
535 0.343227
540 0.268297
545 0.116489
550 0.405204
555 0.209544
560 0.402912
565 0.317922
570 0.603238
575 0.233478
580 0.395089
585 0.611107
590 0.513823
595 0.279562
600 0.0318131
Ex : 298
200 0.28732
205 0.209053
210 0.154161
215 0.327613
220 0.25783
225 0.221457
230 0.269351
235 0.245304
240 0.19718
245 0.166928
250 0.304363
255 0.33529
260 0.237772
265 0.496295
270 0.196046
275 0.315429
280 0.288066
285 0.347409
290 0.523506
295 0.221956
300 0.133292
305 0.426004
310 0.138423
315 0.189052
320 0.452256
325 0.482987
330 0.438185
335 0.63136
340 0.367653
345 0.344758
350 0.411049
355 0.360121
360 0.229036
365 0.399371
370 0.340447
375 0.321323
380 0.436891
385 0.769377
390 0.589169
395 0.524363
400 0.449697
405 0.594669
410 0.75591
415 0.641256
420 0.569826
425 0.716464
430 0.467314
435 0.554658
440 0.41434
445 0.375389
450 0.361366
455 0.502838
460 0.495633
465 0.293367
470 0.33911
475 0.263971
480 0.443709
485 0.271537
490 0.278456
495 0.32949
500 0.288437
505 0.304878
510 0.256447
515 0.151709
520 0.521824
525 0.166337
530 0.216
535 0.126664
540 0.218458
545 0.234275
550 0.451557
555 0.347324
560 0.324939
565 0.284374
570 0.208876
575 0.258672
580 0.241529
585 0.176656
590 0.451719
595 0.39014
600 0.126452
Ex : 303
200 0.28103
205 0.0915013
210 0.370661
215 0.462291
220 0.169304
225 0.14162
230 0.115313
235 0.358101
240 0.173025
245 0.28922
250 0.187171
255 0.145207
260 0.109404
265 0.14604
270 0.0641187
275 0.238071
280 0.432391
285 0.21944
290 0.299555
295 0.305382
300 0.24174
305 0.2309
310 0.237392
315 0.224535
320 0.354752
325 0.139528
330 0.550885
335 0.718445
340 0.377506
345 0.249297
350 0.508353
355 0.394128
360 0.485336
365 0.330498
370 0.219858
375 0.480087
380 0.305897
385 0.332059
390 0.280331
395 0.522341
400 0.538639
405 0.350411
410 0.550315
415 0.46733
420 0.416876
425 0.405011
430 0.848897
435 0.512796
440 0.714609
445 0.331844
450 0.343362
455 0.259579
460 0.277216
465 0.332541
470 0.204742
475 0.388901
480 0.261705
485 0.337133
490 0.382002
495 0.355755
500 0.441585
505 0.271715
510 0.256802
515 0.305483
520 0.412317
525 0.340211
530 0.311744
535 0.465867
540 0.11701
545 0.137419
550 0.207864
555 0.435366
560 0.198167
565 0.239116
570 0.292967
575 0.152729
580 0.246816
585 0.478876
590 0.485192
595 0.342244
600 0.0389461
Ex : 308
200 0.155857
205 0.230657
210 0.16587
215 0.309369
220 0.181439
225 0.116635
230 0.120423
235 0.260614
240 0.250444
245 0.330413
250 0.27295
255 0.143812
260 0.115276
265 0.118473
270 0.119972
275 0.157254
280 0.105572
285 0.105732
290 0.195205
295 0.204223
300 0.26796
305 0.431526
310 0.220284
315 0.0890933
320 0.0556938
325 0.36301
330 0.366516
335 0.171226
340 0.277948
345 0.336955
350 0.258007
355 0.362759
360 0.266368
365 0.445596
370 0.293728
375 0.492768
380 0.313919
385 0.331634
390 0.359382
395 0.5395
400 0.526247
405 0.689332
410 0.280831
415 0.893016
420 0.451712
425 0.3827
430 0.387473
435 0.534824
440 0.254516
445 0.335481
450 0.404734
455 0.443342
460 0.363872
465 0.418678
470 0.363732
475 0.264694
480 0.215541
485 0.293658
490 0.239002
495 0.378649
500 0.217394
505 0.208471
510 0.217943
515 0.403725
520 0.189931
525 0.294781
530 0.26527
535 0.185602
540 0.134979
545 0.207629
550 0.102028
555 0.171497
560 0.173678
565 0.183141
570 0.515706
575 0.158667
580 0.180934
585 0.0986124
590 0.206766
595 0.280373
600 0.0319054
Ex : 313
200 0.13198
205 0.284154
210 0.201009
215 0.154828
220 0.145815
225 0.231487
230 0.151103
235 0.247807
240 0.302805
245 0.1532
250 0.249465
255 0.105053
260 0.217652
265 0.212178
270 0.123614
275 0.120337
280 0.117686
285 0.136269
290 0.162191
295 0.0919728
300 0.169691
305 0.182733
310 0.160398
315 0.119108
320 0.132018
325 0.230665
330 0.311215
335 0.109399
340 0.255647
345 0.281268
350 0.309562
355 0.269795
360 0.487328
365 0.326896
370 0.447032
375 0.303576
380 0.523651
385 0.651727
390 0.616591
395 0.543074
400 0.643354
405 0.641175
410 0.687182
415 0.586011
420 0.659255
425 0.751908
430 0.674065
435 0.554595
440 0.573804
445 0.591455
450 0.923171
455 0.511007
460 0.696943
465 0.482658
470 0.425393
475 0.331769
480 0.457801
485 0.464364
490 0.371526
495 0.64249
500 0.344209
505 0.442894
510 0.346951
515 0.178067
520 0.132776
525 0.145402
530 0.241825
535 0.259556
540 0.160578
545 0.190886
550 0.250188
555 0.0905475
560 0.17107
565 0.395135
570 0.129147
575 0.371151
580 0.147742
585 0.129287
590 0.265369
595 0.15096
600 2.44603
Ex : 318
200 0.119947
205 0.21291
210 0.290254
215 0.209414
220 0.256429
225 0.260272
230 0.301836
235 0.0977495
240 0.160844
245 0.0953335
250 0.157758
255 0.251474
260 0.201685
265 0.244025
270 0.225494
275 0.13024
280 0.0944849
285 0.0875673
290 0.0987042
295 0.180653
300 0.0857059
305 0.225239
310 0.26932
315 0.383848
320 0.207265
325 0.324645
330 0.400844
335 0.394639
340 0.883312
345 1.15694
350 1.38711
355 2.06437
360 2.75701
365 3.56157
370 4.11802
375 5.27544
380 5.62516
385 5.85693
390 6.58288
395 7.14418
400 7.1211
405 7.82677
410 7.97508
415 7.79227
420 7.54321
425 7.58879
430 7.32825
435 7.00348
440 6.90597
445 6.55571
450 6.31869
455 5.65586
460 5.56195
465 4.57738
470 4.5142
475 4.13482
480 3.53606
485 2.9318
490 2.76987
495 2.50164
500 2.44178
505 1.81268
510 1.73638
515 1.13999
520 1.09587
525 0.714638
530 0.637605
535 0.75915
540 0.519274
545 0.55581
550 0.47274
555 0.468116
560 0.304274
565 0.2997
570 0.324577
575 0.223318
580 0.250875
585 0.163089
590 0.249743
595 0.187016
600 0.897415
Ex : 323
200 0.179781
205 0.233945
210 0.268774
215 0.132429
220 0.146593
225 0.118896
230 0.0948466
235 0.19116
240 0.13047
245 0.189062
250 0.122795
255 0.122437
260 0.11481
265 0.0740733
270 0.0585878
275 0.245406
280 0.284201
285 0.19974
290 0.0944358
295 0.141723
300 0.212129
305 0.0827001
310 0.345448
315 3.76276
320 19.1467
325 8.49655
330 2.1665
335 2.32551
340 3.28763
345 5.30736
350 7.60148
355 10.7771
360 13.4397
365 16.2254
370 18.6319
375 20.9305
380 24.9483
385 28.9018
390 31.5487
395 31.6592
400 33.7032
405 34.4641
410 34.9711
415 35.1041
420 34.1768
425 33.3804
430 32.5714
435 31.2876
440 30.4951
445 29.0158
450 26.9529
455 25.6188
460 24.4276
465 21.7236
470 19.914
475 17.9563
480 15.7751
485 15.443
490 13.1577
495 12.5519
500 10.7391
505 9.09417
510 7.82016
515 6.36223
520 5.36489
525 4.5239
530 4.18288
535 3.35495
540 2.79828
545 2.37523
550 1.90325
555 1.5827
560 1.39492
565 1.15148
570 0.73438
575 0.63075
580 0.527629
585 0.344412
590 0.564203
595 0.320453
600 0.422535
Ex : 328
200 0.177886
205 0.102186
210 0.0608832
215 0.0676324
220 0.0457902
225 0.18525
230 0.0708526
235 0.0669034
240 0.0522094
245 0.208312
250 0.186605
255 0.173096
260 0.134463
265 0.148289
270 0.257362
275 0.150444
280 0.180259
285 0.140721
290 0.181843
295 0.245284
300 0.213199
305 0.101158
310 0.193556
315 1.01601
320 47.1928
325 118.789
330 37.7718
335 7.51905
340 5.39455
345 6.76289
350 8.43623
355 12.6817
360 17.7718
365 19.7927
370 21.8218
375 25.1623
380 28.4732
385 31.0621
390 34.2581
395 36.3556
400 37.9911
405 39.2323
410 39.2443
415 39.5354
420 38.2273
425 36.8597
430 35.7557
435 34.5451
440 32.876
445 31.5324
450 29.8343
455 28.1229
460 26.4681
465 23.2732
470 21.9707
475 19.8128
480 17.8275
485 16.323
490 15.066
495 13.382
500 11.7959
505 9.91962
510 8.38292
515 7.29084
520 6.48228
525 5.37408
530 4.37892
535 3.81579
540 3.2416
545 2.7319
550 2.28083
555 2.11528
560 1.9207
565 1.47611
570 1.10466
575 0.829534
580 0.496354
585 0.396604
590 0.317534
595 0.238566
600 0.375299
Ex : 333
200 0.164246
205 0.229164
210 0.149783
215 0.130625
220 0.121106
225 0.134119
230 0.141339
235 0.061455
240 0.108171
245 0.0672238
250 0.130413
255 0.0555617
260 0.0803744
265 0.156131
270 0.166411
275 0.137362
280 0.154295
285 0.118056
290 0.0758478
295 0.0708481
300 0.1147
305 0.123483
310 0.139812
315 0.0841326
320 6.63672
325 140.352
330 248.11
335 65.2854
340 10.4563
345 5.69474
350 5.15697
355 6.69234
360 9.61708
365 13.589
370 14.7892
375 15.0835
380 16.4126
385 18.7306
390 20.8081
395 22.0901
400 22.1202
405 23.3998
410 23.6909
415 23.1989
420 22.6537
425 21.6779
430 20.4011
435 19.8399
440 18.4071
445 17.7869
450 16.7934
455 15.8321
460 14.3541
465 12.727
470 11.8847
475 11.0516
480 9.74737
485 8.47618
490 7.73829
495 6.75124
500 6.24467
505 5.28591
510 4.87389
515 4.18067
520 3.82047
525 2.97529
530 2.57595
535 2.41005
540 1.78329
545 1.55748
550 1.40954
555 1.15005
560 1.15491
565 0.8172
570 0.709762
575 0.636572
580 0.453743
585 0.378997
590 0.321095
595 0.358512
600 2.89394
Ex : 338
200 0.0969209
205 0.0957628
210 0.121302
215 0.105021
220 0.126579
225 0.120392
230 0.156803
235 0.125528
240 0.100671
245 0.0970916
250 0.0954193
255 0.0991201
260 0.0454958
265 0.111735
270 0.101367
275 0.115353
280 0.0985007
285 0.0545644
290 0.186764
295 0.130794
300 0.113873
305 0.0970097
310 0.138462
315 0.217457
320 0.164995
325 13.104
330 216.669
335 322.479
340 80.1859
345 11.696
350 4.24565
355 3.72222
360 3.51625
365 5.44568
370 9.09799
375 9.85937
380 8.78288
385 10.0763
390 11.6191
395 13.0026
400 13.0603
405 12.6471
410 13.5014
415 14.2629
420 14.0876
425 12.7251
430 11.7694
435 11.6606
440 11.4406
445 10.7864
450 9.44331
455 8.29313
460 7.85857
465 7.21763
470 6.70581
475 5.60649
480 5.7922
485 4.92252
490 4.4822
495 3.89376
500 3.299
505 3.20636
510 2.71542
515 2.35523
520 1.95592
525 1.71867
530 1.5799
535 1.61639
540 1.45316
545 0.929182
550 0.910325
555 0.887222
560 0.635035
565 0.664363
570 0.404562
575 0.561604
580 0.406663
585 0.264039
590 0.259537
595 0.19601
600 0.0869915
Ex : 343
200 0.0840566
205 0.0472457
210 0.0743112
215 0.0940523
220 0.213655
225 0.108448
230 0.107898
235 0.115352
240 0.0900191
245 0.0963191
250 0.14661
255 0.0837875
260 0.105883
265 0.175016
270 0.211493
275 0.0944618
280 0.102272
285 0.0983475
290 0.143104
295 0.14221
300 0.0933247
305 0.260966
310 0.159259
315 0.130949
320 0.146729
325 0.26094
330 15.6063
335 250.979
340 365.489
345 88.3136
350 12.2973
355 3.90001
360 2.50213
365 2.06991
370 2.79848
375 6.98074
380 8.70046
385 8.74233
390 9.90338
395 10.4326
400 9.44461
405 10.4822
410 11.4942
415 12.0487
420 11.2206
425 9.9318
430 9.30434
435 9.15639
440 8.90777
445 8.4753
450 7.52353
455 6.76284
460 5.96594
465 5.78778
470 5.25238
475 4.53441
480 4.18423
485 3.86501
490 3.30924
495 2.84849
500 2.72761
505 2.6443
510 2.25601
515 1.98793
520 1.57746
525 1.39186
530 1.19105
535 1.194
540 1.03242
545 0.958163
550 0.747
555 0.7956
560 0.751872
565 0.462422
570 0.386193
575 0.432268
580 0.351665
585 0.256978
590 0.204375
595 0.207954
600 0.755229
Ex : 348
200 0.0625368
205 0.0435825
210 0.0715362
215 0.0998936
220 0.0630038
225 0.0850286
230 0.0920551
235 0.0684969
240 0.0979859
245 0.123828
250 0.0885632
255 0.156112
260 0.100789
265 0.0894868
270 0.1076
275 0.0580103
280 0.107558
285 0.184356
290 0.122495
295 0.0860003
300 0.094143
305 0.0754196
310 0.0798847
315 0.140491
320 0.0980457
325 0.234914
330 0.255379
335 16.0568
340 253.782
345 384.299
350 99.0835
355 13.1994
360 3.3683
365 2.11507
370 1.46005
375 2.09936
380 6.2529
385 11.4472
390 12.7614
395 12.1573
400 11.0574
405 11.2696
410 12.7941
415 14.073
420 13.9179
425 11.4306
430 10.7114
435 10.9272
440 10.3354
445 9.89507
450 8.6776
455 7.30673
460 6.53256
465 6.32497
470 6.10298
475 5.12851
480 4.72737
485 4.08645
490 3.73455
495 3.28132
500 2.90754
505 2.62278
510 2.26868
515 1.88045
520 1.86184
525 1.49613
530 1.32963
535 1.2409
540 1.07744
545 1.05513
550 0.991289
555 0.733972
560 0.692258
565 0.639754
570 0.468354
575 0.393782
580 0.437209
585 0.358691
590 0.268147
595 0.281583
600 0.31827
Ex : 353
200 0.102407
205 0.076246
210 0.0514346
215 0.109891
220 0.0864877
225 0.0863392
230 0.139427
235 0.10761
240 0.0739019
245 0.0585308
250 0.113516
255 0.103188
260 0.0757892
265 0.101276
270 0.0680652
275 0.0706633
280 0.196508
285 0.197173
290 0.147991
295 0.201325
300 0.0849163
305 0.107401
310 0.109976
315 0.0797534
320 0.14681
325 0.196152
330 0.198294
335 0.338135
340 16.6441
345 262.687
350 382.147
355 95.782
360 12.4363
365 3.04619
370 1.929
375 1.50794
380 2.65728
385 8.18748
390 14.7516
395 15.6905
400 13.0945
405 11.9356
410 13.7512
415 15.236
420 15.363
425 13.0836
430 11.3815
435 11.7079
440 11.424
445 10.59
450 9.58545
455 8.13484
460 7.30153
465 6.83653
470 6.18022
475 5.56822
480 5.20739
485 4.76022
490 4.19966
495 3.69339
500 3.18965
505 2.8548
510 2.42122
515 2.26673
520 2.13139
525 1.68249
530 1.51039
535 1.39548
540 1.20614
545 0.921265
550 0.899469
555 0.710756
560 0.807049
565 0.672626
570 0.520309
575 0.44469
580 0.36668
585 0.239846
590 0.306937
595 0.162288
600 0.431358
Ex : 358
200 0.0488205
205 0.100074
210 0.129571
215 0.113866
220 0.0478145
225 0.0579152
230 0.0435157
235 0.131552
240 0.0688229
245 0.0404103
250 0.095224
255 0.108864
260 0.111131
265 0.115435
270 0.064607
275 0.0572615
280 0.0841054
285 0.12185
290 0.0689504
295 0.152542
300 0.0967927
305 0.0672636
310 0.0666141
315 0.153026
320 0.189024
325 0.134257
330 0.216909
335 0.189398
340 0.406475
345 16.5861
350 258.706
355 395.973
360 100.365
365 12.6689
370 2.95719
375 2.14738
380 2.67837
385 5.26795
390 10.8148
395 15.6628
400 14.0215
405 12.7219
410 13.0089
415 14.0125
420 14.0316
425 12.3017
430 11.1057
435 10.5432
440 10.5615
445 10.5884
450 9.42093
455 8.11792
460 7.31173
465 6.46484
470 6.47018
475 5.79075
480 5.30149
485 4.67032
490 4.32379
495 3.81256
500 3.32995
505 2.93846
510 2.69093
515 2.41017
520 2.07607
525 1.75204
530 1.44594
535 1.2634
540 1.21735
545 1.07532
550 0.941959
555 0.804218
560 0.7135
565 0.473381
570 0.491237
575 0.408621
580 0.341263
585 0.257454
590 0.245099
595 0.196574
600 0.344201
Ex : 363
200 0.0658049
205 0.0644092
210 0.0615047
215 0.041035
220 0.117544
225 0.069611
230 0.0378999
235 0.0613957
240 0.0689944
245 0.129704
250 0.0866171
255 0.106808
260 0.0765421
265 0.0650992
270 0.110772
275 0.149033
280 0.150788
285 0.122348
290 0.100754
295 0.0650249
300 0.0525745
305 0.123597
310 0.110957
315 0.106198
320 0.0805863
325 0.11333
330 0.125404
335 0.160274
340 0.285211
345 0.382811
350 14.7794
355 255.263
360 400.764
365 103.994
370 13.3003
375 3.35838
380 4.09196
385 7.26665
390 10.5779
395 12.2641
400 14.9751
405 15.9496
410 15.9522
415 16.2338
420 15.564
425 12.9854
430 11.9268
435 11.7731
440 11.7266
445 11.4018
450 9.6163
455 8.34832
460 7.85503
465 7.50583
470 7.05819
475 6.02245
480 5.44194
485 5.06113
490 4.43746
495 4.03238
500 3.79802
505 3.56044
510 2.83705
515 2.56361
520 2.25627
525 2.01764
530 1.73807
535 1.56442
540 1.39971
545 1.15961
550 0.99454
555 0.853282
560 0.665445
565 0.726455
570 0.488325
575 0.407562
580 0.338157
585 0.34347
590 0.21893
595 0.156343
600 0.332886
Ex : 368
200 0.0659341
205 0.079006
210 0.0943805
215 0.0732876
220 0.077177
225 0.135678
230 0.0685625
235 0.0974681
240 0.168709
245 0.049828
250 0.0679408
255 0.0869287
260 0.0959418
265 0.104291
270 0.067145
275 0.0614008
280 0.0809841
285 0.0446247
290 0.039895
295 0.036796
300 0.0804693
305 0.113734
310 0.106687
315 0.0921232
320 0.0579322
325 0.0786511
330 0.109242
335 0.073726
340 0.101695
345 0.280182
350 0.369068
355 12.5848
360 245.63
365 409.351
370 110.289
375 14.4675
380 5.25015
385 8.73662
390 13.2393
395 15.1009
400 14.4415
405 17.0943
410 20.7904
415 21.8002
420 19.9686
425 16.5322
430 14.9663
435 14.1768
440 14.0304
445 13.3325
450 12.2275
455 9.97311
460 8.97723
465 8.78028
470 8.04086
475 7.35448
480 6.35089
485 5.5262
490 5.14917
495 4.85248
500 4.14698
505 3.46183
510 3.07729
515 2.7127
520 2.42343
525 1.96302
530 1.84173
535 1.65403
540 1.5187
545 1.22134
550 1.04475
555 0.920683
560 0.757825
565 0.656956
570 0.502683
575 0.452088
580 0.33721
585 0.249
590 0.194208
595 0.194128
600 0.649819
Ex : 373
200 0.0836533
205 0.0947349
210 0.106788
215 0.0335075
220 0.0548524
225 0.0610194
230 0.0862969
235 0.110879
240 0.0633453
245 0.0995542
250 0.122905
255 0.0557303
260 0.0606828
265 0.051276
270 0.0657411
275 0.0317172
280 0.0541405
285 0.0737981
290 0.0873611
295 0.0561982
300 0.090959
305 0.133727
310 0.0905112
315 0.0744342
320 0.0926375
325 0.117944
330 0.0983228
335 0.140189
340 0.113816
345 0.212665
350 0.240493
355 0.372121
360 14.5298
365 251.308
370 404.323
375 108.087
380 15.193
385 7.78977
390 12.7689
395 15.9709
400 14.777
405 13.9518
410 17.8606
415 23.1302
420 22.0413
425 18.1551
430 14.991
435 13.3404
440 14.128
445 13.2333
450 11.9354
455 10.5959
460 9.13936
465 8.41261
470 7.70954
475 7.17855
480 6.65977
485 5.6445
490 4.94032
495 4.48816
500 4.00137
505 3.64973
510 2.98437
515 2.78584
520 2.52016
525 2.06558
530 1.85237
535 1.62714
540 1.37128
545 1.31269
550 0.898556
555 0.98548
560 0.778111
565 0.653403
570 0.5487
575 0.42697
580 0.362179
585 0.254448
590 0.182226
595 0.209488
600 0.023839
Ex : 378
200 0.0785841
205 0.0535077
210 0.0537004
215 0.0374475
220 0.0923907
225 0.0668645
230 0.0574456
235 0.0752875
240 0.071874
245 0.0751866
250 0.054949
255 0.0596959
260 0.0683156
265 0.0756941
270 0.0904022
275 0.0939297
280 0.0522022
285 0.0455327
290 0.0577707
295 0.0573177
300 0.0760166
305 0.107059
310 0.0918813
315 0.112111
320 0.129631
325 0.0869406
330 0.0773987
335 0.0702521
340 0.094241
345 0.0775297
350 0.134364
355 0.131797
360 0.41424
365 13.5935
370 253.643
375 419.136
380 113.288
385 17.8338
390 10.886
395 11.8848
400 11.2397
405 10.4549
410 12.2049
415 15.2926
420 17.6047
425 14.8644
430 12.6083
435 11.451
440 10.9812
445 10.8914
450 9.5181
455 8.42642
460 7.54631
465 7.10162
470 6.60661
475 6.05865
480 5.76978
485 5.00658
490 4.43668
495 3.96018
500 3.60531
505 3.30469
510 2.86901
515 2.65665
520 2.45592
525 1.95075
530 1.81381
535 1.46762
540 1.31642
545 1.23301
550 1.08399
555 0.902418
560 0.721449
565 0.574092
570 0.512466
575 0.37428
580 0.392384
585 0.303747
590 0.238689
595 0.141471
600 0.0712568
Ex : 383
200 0.0858638
205 0.050816
210 0.0634839
215 0.0445062
220 0.0757937
225 0.0521883
230 0.0961456
235 0.092565
240 0.0581381
245 0.0687557
250 0.0658593
255 0.0420165
260 0.101457
265 0.031656
270 0.0632901
275 0.0534396
280 0.0639172
285 0.12778
290 0.056066
295 0.0587793
300 0.0490718
305 0.0441148
310 0.0793534
315 0.0539213
320 0.0510805
325 0.0819069
330 0.128329
335 0.10143
340 0.105436
345 0.0737134
350 0.20031
355 0.200086
360 0.230815
365 0.367596
370 12.9181
375 252.082
380 436.215
385 123.555
390 23.1106
395 11.8201
400 10.0747
405 11.0422
410 12.3602
415 13.1962
420 13.5
425 14.0875
430 13.9503
435 12.6067
440 11.5328
445 10.3393
450 9.6271
455 8.29037
460 7.47787
465 7.06107
470 6.74359
475 6.21898
480 5.57752
485 5.08237
490 4.62864
495 4.36919
500 3.7178
505 3.21584
510 2.95702
515 2.75046
520 2.24626
525 2.02359
530 1.73763
535 1.60957
540 1.41829
545 1.1975
550 1.07254
555 0.928728
560 0.793552
565 0.576617
570 0.52924
575 0.436678
580 0.342807
585 0.252348
590 0.2026
595 0.21538
600 0.0245094
Ex : 388
200 0.0806815
205 0.0762132
210 0.0431928
215 0.0530978
220 0.0701961
225 0.0891959
230 0.0632587
235 0.0648819
240 0.0651023
245 0.0864232
250 0.047578
255 0.0653027
260 0.0709398
265 0.0372767
270 0.0765704
275 0.0467441
280 0.0763805
285 0.118923
290 0.0520461
295 0.042626
300 0.0404717
305 0.0756698
310 0.0794782
315 0.0578453
320 0.0861168
325 0.0759763
330 0.0471236
335 0.0611093
340 0.0993939
345 0.108531
350 0.154156
355 0.134767
360 0.152915
365 0.167893
370 0.372864
375 14.6247
380 262.253
385 440.739
390 126.466
395 26.2258
400 13.5351
405 13.0691
410 15.6678
415 16.8157
420 15.8631
425 13.9315
430 14.6621
435 16.1196
440 15.1458
445 13.1529
450 11.1738
455 9.51604
460 8.64752
465 7.85952
470 7.39042
475 6.88108
480 6.2701
485 5.36652
490 5.08449
495 4.57431
500 4.00182
505 3.52884
510 3.12421
515 2.81294
520 2.47014
525 2.01985
530 1.91318
535 1.5805
540 1.50521
545 1.3459
550 1.01698
555 1.04271
560 0.726343
565 0.716363
570 0.501198
575 0.474034
580 0.295277
585 0.315458
590 0.238519
595 0.232491
600 0.0264566
Ex : 393
200 0.0553577
205 0.0437415
210 0.0812325
215 0.0720151
220 0.0534158
225 0.0709525
230 0.0613636
235 0.0411031
240 0.0483527
245 0.0445603
250 0.0454362
255 0.0722852
260 0.0291802
265 0.074764
270 0.0946845
275 0.071137
280 0.0608272
285 0.0481389
290 0.0935627
295 0.0687688
300 0.0467042
305 0.0527886
310 0.0886972
315 0.125635
320 0.0440619
325 0.0688984
330 0.0855414
335 0.0466309
340 0.113723
345 0.117565
350 0.0675562
355 0.0515614
360 0.0900508
365 0.11816
370 0.271635
375 0.460657
380 13.1733
385 260.751
390 449.088
395 132.455
400 27.1551
405 13.6341
410 14.4123
415 17.9658
420 17.3744
425 14.6603
430 12.499
435 13.4527
440 15.614
445 14.1601
450 11.5546
455 9.66218
460 8.36773
465 7.46884
470 7.10608
475 6.79644
480 5.94957
485 5.2559
490 4.86123
495 4.57533
500 3.7985
505 3.48581
510 3.11079
515 2.68103
520 2.43943
525 2.25812
530 1.86972
535 1.75117
540 1.4434
545 1.22034
550 1.17529
555 1.02232
560 0.779244
565 0.738568
570 0.535821
575 0.427505
580 0.380793
585 0.319913
590 0.248759
595 0.158118
600 0.103755
Ex : 398
200 0.0317933
205 0.0217554
210 0.0654543
215 0.0601358
220 0.0638227
225 0.0231908
230 0.0550391
235 0.062877
240 0.0470456
245 0.115667
250 0.0603292
255 0.0525973
260 0.0488545
265 0.0317687
270 0.0567177
275 0.0630678
280 0.045287
285 0.0831056
290 0.0743278
295 0.0470296
300 0.0649522
305 0.0431503
310 0.0391563
315 0.0709866
320 0.0807248
325 0.0661102
330 0.0715247
335 0.0898649
340 0.0872151
345 0.0593795
350 0.0483919
355 0.0951026
360 0.109858
365 0.0893498
370 0.123832
375 0.226117
380 0.652648
385 13.8214
390 265.655
395 459.547
400 129.386
405 21.2247
410 9.73905
415 10.9254
420 11.3836
425 9.55467
430 7.75055
435 7.43596
440 8.79162
445 11.0513
450 10.0064
455 7.80671
460 6.83043
465 5.86989
470 5.23071
475 5.18851
480 4.62106
485 4.24969
490 3.96463
495 3.4986
500 3.27292
505 3.14188
510 2.81015
515 2.5079
520 2.12212
525 1.9508
530 1.77445
535 1.62446
540 1.35381
545 1.25804
550 1.12551
555 1.0085
560 0.724974
565 0.610795
570 0.557522
575 0.423184
580 0.34503
585 0.246029
590 0.196719
595 0.209122
600 0.231079
Ex : 403
200 0.112196
205 0.0662956
210 0.0565579
215 0.048223
220 0.0298931
225 0.0763481
230 0.0886563
235 0.0581179
240 0.0460799
245 0.0682429
250 0.0537881
255 0.0738326
260 0.0634718
265 0.0880721
270 0.0451943
275 0.0397648
280 0.0464782
285 0.0374922
290 0.0511533
295 0.0489936
300 0.0319673
305 0.0448158
310 0.0607761
315 0.129331
320 0.0626753
325 0.0508755
330 0.0644974
335 0.0721731
340 0.0721314
345 0.110007
350 0.0813008
355 0.0576734
360 0.121158
365 0.120529
370 0.0999048
375 0.165653
380 0.285975
385 0.7101
390 16.0955
395 274.911
400 458.885
405 126.245
410 18.0981
415 6.48702
420 5.31254
425 5.08748
430 4.21685
435 4.1475
440 4.29325
445 4.9314
450 6.71633
455 7.03066
460 5.38611
465 4.81717
470 4.22126
475 4.10134
480 3.62153
485 3.39817
490 3.14493
495 3.2431
500 2.83741
505 2.56795
510 2.40396
515 2.23976
520 1.89553
525 1.76404
530 1.57474
535 1.35956
540 1.31319
545 1.16593
550 0.912082
555 0.952674
560 0.811805
565 0.636311
570 0.509523
575 0.446482
580 0.296196
585 0.233727
590 0.172589
595 0.160369
600 0.297464
Ex : 408
200 0.0341846
205 0.0622662
210 0.0517396
215 0.0506296
220 0.063356
225 0.0623018
230 0.124247
235 0.041391
240 0.0609748
245 0.0559606
250 0.0750431
255 0.0741655
260 0.0600457
265 0.0604876
270 0.0383705
275 0.0615781
280 0.0506873
285 0.0653472
290 0.102886
295 0.0460019
300 0.0461823
305 0.0558252
310 0.0650853
315 0.0899824
320 0.0497584
325 0.0614066
330 0.0513604
335 0.0911966
340 0.0510168
345 0.054276
350 0.0650392
355 0.0888182
360 0.0680488
365 0.125673
370 0.0720907
375 0.139904
380 0.150531
385 0.253803
390 0.680957
395 14.4063
400 286.246
405 474.043
410 126.036
415 17.6949
420 5.28294
425 3.70743
430 3.63075
435 3.65665
440 3.62331
445 3.79526
450 3.97561
455 5.51059
460 6.63769
465 5.54634
470 4.52731
475 4.07834
480 3.70443
485 3.35328
490 3.0926
495 3.05526
500 2.98432
505 2.52636
510 2.11282
515 2.06424
520 1.88776
525 1.80359
530 1.62362
535 1.50663
540 1.28424
545 1.1283
550 1.02599
555 0.855929
560 0.689474
565 0.623743
570 0.526882
575 0.367408
580 0.383315
585 0.253516
590 0.22393
595 0.161391
600 0.159557
Ex : 413
200 0.0841863
205 0.0294183
210 0.0722127
215 0.0687727
220 0.0753057
225 0.0746871
230 0.0873598
235 0.11525
240 0.0606945
245 0.0346759
250 0.0635257
255 0.0732704
260 0.0809244
265 0.0402427
270 0.0548479
275 0.0768567
280 0.0313626
285 0.031223
290 0.122406
295 0.0503975
300 0.0591499
305 0.0420691
310 0.0692501
315 0.0444945
320 0.0777519
325 0.0561415
330 0.0478718
335 0.0343064
340 0.0535837
345 0.0470605
350 0.0859775
355 0.090116
360 0.0696188
365 0.131313
370 0.114314
375 0.0852823
380 0.131546
385 0.178711
390 0.276561
395 0.443702
400 16.4086
405 295.24
410 479.839
415 125.329
420 17.1219
425 4.61026
430 3.19763
435 3.49405
440 3.64007
445 3.34768
450 3.22986
455 3.28955
460 4.58045
465 6.19592
470 5.22093
475 4.18455
480 3.90263
485 3.05961
490 2.92155
495 2.68318
500 2.36197
505 2.30825
510 2.15215
515 2.04036
520 1.79285
525 1.67875
530 1.48259
535 1.31225
540 1.06227
545 1.04164
550 0.811405
555 0.725075
560 0.731997
565 0.571879
570 0.48687
575 0.388482
580 0.305385
585 0.236252
590 0.176181
595 0.168163
600 0.0191363
Ex : 418
200 0.0850161
205 0.0458847
210 0.0494403
215 0.0481058
220 0.0392057
225 0.0885788
230 0.0838664
235 0.0669809
240 0.0755375
245 0.0444924
250 0.0364529
255 0.0747018
260 0.0916681
265 0.0593328
270 0.0553781
275 0.0969419
280 0.075823
285 0.0429752
290 0.0572882
295 0.0409335
300 0.0387644
305 0.0609774
310 0.0852322
315 0.0742039
320 0.0666758
325 0.073743
330 0.0522708
335 0.0861242
340 0.0962305
345 0.0750539
350 0.0681317
355 0.0646113
360 0.116067
365 0.0702173
370 0.049348
375 0.0608183
380 0.122196
385 0.133317
390 0.193807
395 0.25435
400 0.516949
405 15.9514
410 295.981
415 494.877
420 133.649
425 17.214
430 3.64988
435 2.34318
440 2.62637
445 2.66453
450 2.29681
455 2.02837
460 2.2159
465 2.82766
470 4.71858
475 4.96029
480 3.67787
485 3.10594
490 2.68818
495 2.33826
500 2.16395
505 2.05742
510 1.93258
515 1.73202
520 1.60447
525 1.60856
530 1.44986
535 1.26095
540 1.00841
545 1.07462
550 0.829831
555 0.707255
560 0.746258
565 0.541692
570 0.438115
575 0.377913
580 0.270628
585 0.199992
590 0.190999
595 0.113851
600 0.0129558
Ex : 423
200 0.0567659
205 0.0572307
210 0.0401493
215 0.0984022
220 0.0499185
225 0.0463112
230 0.0836498
235 0.0341223
240 0.110944
245 0.0645832
250 0.077189
255 0.0895612
260 0.0373047
265 0.0927751
270 0.0402449
275 0.0618209
280 0.0991406
285 0.0638792
290 0.0883426
295 0.0504638
300 0.0605493
305 0.0743332
310 0.0257999
315 0.0646859
320 0.0659729
325 0.0321608
330 0.0677705
335 0.0851419
340 0.0513681
345 0.0982305
350 0.0996112
355 0.0513808
360 0.0484683
365 0.104329
370 0.0401443
375 0.0766995
380 0.0892921
385 0.101522
390 0.115121
395 0.138614
400 0.27444
405 0.602668
410 15.6324
415 315.17
420 506.796
425 129.867
430 16.4182
435 3.18922
440 1.75533
445 1.82204
450 1.90473
455 1.59419
460 1.48418
465 1.65255
470 2.11291
475 3.65396
480 4.49688
485 3.10521
490 2.62694
495 2.38657
500 1.94713
505 1.85925
510 1.71446
515 1.54653
520 1.46041
525 1.3681
530 1.29407
535 1.16244
540 1.16654
545 0.961956
550 0.823246
555 0.734987
560 0.645539
565 0.472272
570 0.519885
575 0.406693
580 0.296536
585 0.295862
590 0.172974
595 0.145739
600 0.472848
Ex : 428
200 0.0388295
205 0.0854329
210 0.0571204
215 0.0615122
220 0.115172
225 0.062612
230 0.0602501
235 0.051933
240 0.0384051
245 0.0793116
250 0.0766647
255 0.0584145
260 0.0827045
265 0.0487685
270 0.0591153
275 0.0463265
280 0.0512634
285 0.0411571
290 0.0640086
295 0.0584273
300 0.0920235
305 0.103171
310 0.0612728
315 0.0627016
320 0.0347737
325 0.046238
330 0.0616771
335 0.0517664
340 0.0605484
345 0.0760276
350 0.0774762
355 0.0696393
360 0.0608958
365 0.0603496
370 0.0558768
375 0.0859323
380 0.109725
385 0.104874
390 0.121027
395 0.133111
400 0.207214
405 0.292726
410 0.493358
415 18.3473
420 321.743
425 518.978
430 136.534
435 17.1022
440 3.0716
445 1.36655
450 1.45455
455 1.61617
460 1.35055
465 1.20725
470 1.26406
475 1.61564
480 2.87121
485 4.1673
490 3.15127
495 2.42516
500 1.98242
505 1.69102
510 1.57697
515 1.58519
520 1.35896
525 1.22997
530 1.14929
535 1.1444
540 0.95722
545 0.824498
550 0.813062
555 0.667241
560 0.594808
565 0.491378
570 0.41818
575 0.324371
580 0.259543
585 0.242355
590 0.148683
595 0.150318
600 0.414572
Ex : 433
200 0.0797125
205 0.0548538
210 0.0703772
215 0.0444815
220 0.0881945
225 0.0560376
230 0.0702778
235 0.0543427
240 0.0554491
245 0.0894315
250 0.0630825
255 0.0469496
260 0.03724
265 0.0529178
270 0.0528101
275 0.0537277
280 0.0755796
285 0.0534483
290 0.0705862
295 0.077603
300 0.0570345
305 0.072485
310 0.0752627
315 0.0564965
320 0.0265943
325 0.076728
330 0.069076
335 0.065556
340 0.0451981
345 0.0609532
350 0.117062
355 0.0611372
360 0.0897853
365 0.0993708
370 0.0743371
375 0.0799767
380 0.0507329
385 0.0993316
390 0.0809882
395 0.131017
400 0.135098
405 0.208593
410 0.24636
415 0.537072
420 21.3214
425 353.474
430 538.501
435 136.331
440 16.9847
445 3.01228
450 1.28272
455 1.54838
460 1.53118
465 1.27249
470 1.10583
475 1.29057
480 1.34917
485 2.23153
490 3.88675
495 3.27416
500 2.24652
505 1.89349
510 1.62309
515 1.49168
520 1.29065
525 1.19213
530 1.15574
535 1.11217
540 0.875722
545 0.80251
550 0.696911
555 0.639903
560 0.556897
565 0.398753
570 0.447666
575 0.381531
580 0.279738
585 0.23416
590 0.180909
595 0.124279
600 0.325351
Ex : 438
200 0.0515293
205 0.0707011
210 0.0725479
215 0.0658069
220 0.037309
225 0.0362899
230 0.0424802
235 0.0730306
240 0.0323514
245 0.0498504
250 0.103802
255 0.0671116
260 0.0353529
265 0.0281973
270 0.044204
275 0.0610825
280 0.0741939
285 0.0517891
290 0.0516962
295 0.0648216
300 0.0768854
305 0.0625867
310 0.064935
315 0.0474019
320 0.0651532
325 0.031809
330 0.0500365
335 0.0734072
340 0.0593342
345 0.0669678
350 0.085167
355 0.080222
360 0.0963371
365 0.0798522
370 0.0665143
375 0.081002
380 0.0827264
385 0.0965016
390 0.119705
395 0.0563425
400 0.0961422
405 0.145242
410 0.260299
415 0.333838
420 0.519492
425 20.2953
430 357.095
435 580.571
440 146.92
445 18.0877
450 3.19933
455 1.17592
460 1.35955
465 1.37833
470 1.28966
475 1.16171
480 1.23412
485 1.27742
490 1.64973
495 3.39762
500 3.57003
505 2.26629
510 2.0572
515 1.71068
520 1.26233
525 1.23821
530 1.09011
535 1.08818
540 0.901787
545 0.821662
550 0.742834
555 0.696352
560 0.550844
565 0.479518
570 0.417644
575 0.353651
580 0.280478
585 0.255947
590 0.210051
595 0.0951014
600 0.0108222
Ex : 443
200 0.0271687
205 0.0385627
210 0.060959
215 0.0393165
220 0.053925
225 0.0445223
230 0.0581248
235 0.059788
240 0.0707221
245 0.0664032
250 0.0339201
255 0.0316206
260 0.0342406
265 0.0488117
270 0.0532727
275 0.0882968
280 0.0453619
285 0.0562108
290 0.0531025
295 0.0818287
300 0.0578055
305 0.0397583
310 0.0879385
315 0.116563
320 0.0777311
325 0.0977563
330 0.0716287
335 0.0526216
340 0.121598
345 0.0945116
350 0.0846588
355 0.0760726
360 0.0461873
365 0.0520519
370 0.0634145
375 0.0919254
380 0.0700173
385 0.0598721
390 0.093091
395 0.0885452
400 0.0953317
405 0.108344
410 0.135775
415 0.210677
420 0.299901
425 0.576991
430 23.0597
435 384.454
440 594.086
445 148.351
450 18.194
455 3.29479
460 1.38958
465 1.44474
470 1.56414
475 1.32378
480 1.10528
485 1.15658
490 1.08513
495 1.39825
500 2.9285
505 3.57956
510 2.65018
515 1.83115
520 1.60585
525 1.2668
530 0.997801
535 0.863296
540 0.911723
545 0.994163
550 0.74206
555 0.657045
560 0.535874
565 0.559857
570 0.502776
575 0.36695
580 0.259549
585 0.241624
590 0.211271
595 0.227141
600 0.0258477
Ex : 448
200 0.0794359
205 0.0503552
210 0.0442824
215 0.0455868
220 0.0394744
225 0.0616779
230 0.0560376
235 0.0597158
240 0.07654
245 0.0720153
250 0.0844154
255 0.0367908
260 0.0484258
265 0.0585725
270 0.0504093
275 0.0699447
280 0.0350852
285 0.0804831
290 0.0993076
295 0.0642403
300 0.0384064
305 0.114381
310 0.0436799
315 0.064339
320 0.0652192
325 0.0412826
330 0.0560304
335 0.0974778
340 0.0734082
345 0.113068
350 0.0892367
355 0.103593
360 0.148035
365 0.103722
370 0.0773325
375 0.0664783
380 0.0874353
385 0.101724
390 0.0634089
395 0.139682
400 0.174752
405 0.105324
410 0.152455
415 0.184714
420 0.238378
425 0.267189
430 0.501419
435 24.795
440 418.933
445 642.355
450 159.462
455 19.5804
460 3.43121
465 1.48258
470 1.448
475 1.50018
480 1.22254
485 1.06329
490 1.13636
495 1.04297
500 1.32315
505 1.96506
510 3.37684
515 2.72114
520 1.74328
525 1.66694
530 1.24253
535 1.12904
540 0.915303
545 0.726082
550 0.794192
555 0.639174
560 0.620253
565 0.588508
570 0.447474
575 0.287713
580 0.266694
585 0.265145
590 0.232796
595 0.168287
600 0.314552
Ex : 453
200 0.0590575
205 0.0600391
210 0.0417158
215 0.0554238
220 0.115138
225 0.0651727
230 0.0559044
235 0.0566647
240 0.0595103
245 0.0797921
250 0.076239
255 0.0650498
260 0.0876442
265 0.0546161
270 0.0966795
275 0.0725539
280 0.0540284
285 0.0737667
290 0.0587522
295 0.0840235
300 0.070686
305 0.0540586
310 0.0759652
315 0.0825509
320 0.0668746
325 0.066212
330 0.0644052
335 0.0591946
340 0.0629646
345 0.123804
350 0.0856968
355 0.0913778
360 0.0822655
365 0.055188
370 0.0409111
375 0.0620501
380 0.0868678
385 0.108404
390 0.068089
395 0.0733681
400 0.0760451
405 0.0973341
410 0.104502
415 0.0973569
420 0.143722
425 0.179557
430 0.287886
435 0.552413
440 25.2803
445 457.847
450 674.007
455 159.165
460 19.6966
465 3.52497
470 1.33612
475 1.26904
480 1.46438
485 1.5089
490 1.05925
495 1.0195
500 1.01086
505 1.03533
510 1.58773
515 2.91634
520 3.06214
525 1.7383
530 1.41891
535 1.29934
540 1.07072
545 0.865582
550 0.785308
555 0.707578
560 0.646826
565 0.556454
570 0.414137
575 0.411716
580 0.355362
585 0.300725
590 0.211837
595 0.171718
600 0.664053
Ex : 458
200 0.0419803
205 0.0618688
210 0.043653
215 0.0746433
220 0.056953
225 0.0465335
230 0.0613798
235 0.0420167
240 0.0432551
245 0.057125
250 0.0614671
255 0.0439141
260 0.0701044
265 0.0466047
270 0.0696943
275 0.0372166
280 0.0511396
285 0.0526584
290 0.0861727
295 0.0578529
300 0.0487142
305 0.0714761
310 0.0640111
315 0.0836275
320 0.0600937
325 0.0537657
330 0.0542102
335 0.0527711
340 0.0652886
345 0.0819213
350 0.0655684
355 0.05347
360 0.0622823
365 0.108806
370 0.0452917
375 0.0514658
380 0.0576199
385 0.0645524
390 0.076666
395 0.105283
400 0.0940931
405 0.0898216
410 0.111446
415 0.122127
420 0.131083
425 0.195663
430 0.26914
435 0.33229
440 0.694217
445 29.3625
450 481.077
455 715.987
460 173.657
465 21.4832
470 3.68899
475 1.50245
480 1.25116
485 1.4469
490 1.33142
495 1.07571
500 0.874473
505 0.861303
510 0.979502
515 1.08174
520 2.39912
525 3.22271
530 2.13886
535 1.3578
540 1.26911
545 1.01957
550 0.905724
555 0.845239
560 0.548279
565 0.520656
570 0.487019
575 0.294975
580 0.287094
585 0.275741
590 0.238905
595 0.208235
600 0.0843162
Ex : 463
200 0.0517879
205 0.0611311
210 0.0379562
215 0.0745577
220 0.0372195
225 0.0550667
230 0.0536657
235 0.0838021
240 0.059771
245 0.0436651
250 0.0795713
255 0.0457631
260 0.0561777
265 0.065257
270 0.0503868
275 0.0596286
280 0.0747241
285 0.0577583
290 0.0497025
295 0.0525069
300 0.0451153
305 0.153911
310 0.0541356
315 0.0556531
320 0.0860511
325 0.0478926
330 0.0420619
335 0.0676429
340 0.0570285
345 0.0761569
350 0.0673588
355 0.0545298
360 0.0471648
365 0.0547995
370 0.0470369
375 0.0332431
380 0.0305179
385 0.0594667
390 0.0439169
395 0.0657161
400 0.0953218
405 0.100782
410 0.0652232
415 0.159028
420 0.131541
425 0.164269
430 0.169337
435 0.23784
440 0.335353
445 0.639612
450 28.5527
455 502.68
460 776.404
465 187.049
470 22.8226
475 3.912
480 1.44037
485 1.09385
490 1.26181
495 1.29291
500 1.06102
505 0.918155
510 0.818284
515 0.993289
520 1.09485
525 1.94264
530 2.92024
535 2.45132
540 1.4509
545 1.27874
550 1.17501
555 0.849965
560 0.615837
565 0.516007
570 0.554503
575 0.402569
580 0.325995
585 0.271728
590 0.272838
595 0.160352
600 0.211601
Ex : 468
200 0.0774286
205 0.0470329
210 0.0477968
215 0.0580361
220 0.0741828
225 0.0485341
230 0.0806339
235 0.0780359
240 0.0576886
245 0.0416176
250 0.0472514
255 0.0608408
260 0.0663625
265 0.0671479
270 0.0533673
275 0.0401286
280 0.0675073
285 0.0490513
290 0.0578167
295 0.0658409
300 0.0639389
305 0.0947482
310 0.0542518
315 0.0446362
320 0.0377967
325 0.0519177
330 0.0626898
335 0.0493202
340 0.0553359
345 0.0686227
350 0.0690832
355 0.0751094
360 0.0618128
365 0.0644496
370 0.0551381
375 0.0706772
380 0.056337
385 0.0780018
390 0.0816261
395 0.0628186
400 0.106932
405 0.0692361
410 0.085886
415 0.112602
420 0.115773
425 0.140973
430 0.138834
435 0.174
440 0.223315
445 0.376292
450 0.683659
455 32.2793
460 516.382
465 809.661
470 195.296
475 23.567
480 3.89281
485 1.50477
490 1.14122
495 1.25406
500 1.27671
505 1.09701
510 0.878354
515 0.866287
520 1.03269
525 1.07793
530 1.43556
535 2.5486
540 2.55222
545 1.58873
550 1.19382
555 1.06435
560 0.912548
565 0.652091
570 0.536285
575 0.376526
580 0.329754
585 0.270001
590 0.237744
595 0.199646
600 0.0227189
Ex : 473
200 0.0551776
205 0.0513547
210 0.038696
215 0.0735688
220 0.0842234
225 0.0727842
230 0.0694379
235 0.0522212
240 0.0546466
245 0.0882586
250 0.0616082
255 0.0535759
260 0.051062
265 0.0480578
270 0.087742
275 0.0934353
280 0.0580837
285 0.0560645
290 0.0583756
295 0.0726238
300 0.0833799
305 0.0620971
310 0.0493512
315 0.0555682
320 0.0604147
325 0.107194
330 0.0559773
335 0.0854429
340 0.0573506
345 0.0473544
350 0.0372034
355 0.0686814
360 0.048056
365 0.104387
370 0.109059
375 0.0711109
380 0.115693
385 0.0935517
390 0.0533464
395 0.0811059
400 0.0760156
405 0.0680572
410 0.0921947
415 0.117987
420 0.0942977
425 0.0840041
430 0.108496
435 0.217811
440 0.148316
445 0.218506
450 0.352905
455 0.773628
460 37.8133
465 576.958
470 812.106
475 189.935
480 23.1554
485 3.79959
490 1.41031
495 1.05701
500 1.29005
505 1.29362
510 1.056
515 0.988718
520 1.00649
525 0.93746
530 0.993188
535 1.17964
540 2.17852
545 2.5266
550 1.67287
555 1.18946
560 0.953339
565 0.764754
570 0.688444
575 0.44383
580 0.354971
585 0.329431
590 0.24117
595 0.204183
600 0.667058
Ex : 478
200 0.0834726
205 0.0906659
210 0.0883629
215 0.0918885
220 0.0629845
225 0.0498401
230 0.0887203
235 0.092627
240 0.106631
245 0.0947723
250 0.0561929
255 0.0873114
260 0.0673536
265 0.0744538
270 0.102662
275 0.0596579
280 0.0903705
285 0.0584268
290 0.0576902
295 0.0830428
300 0.0557003
305 0.0914945
310 0.0373272
315 0.0612835
320 0.073124
325 0.10431
330 0.0706326
335 0.0946692
340 0.0476051
345 0.0957173
350 0.0611617
355 0.0742431
360 0.0931861
365 0.0465465
370 0.0992803
375 0.0919091
380 0.0810805
385 0.0538048
390 0.0971182
395 0.0699243
400 0.0872439
405 0.109556
410 0.107314
415 0.0778869
420 0.111936
425 0.14217
430 0.1777
435 0.17354
440 0.246505
445 0.19263
450 0.272809
455 0.437481
460 0.906465
465 41.2605
470 595.974
475 839.525
480 202.28
485 24.5166
490 3.8568
495 1.32732
500 1.04165
505 1.20824
510 1.12096
515 1.07344
520 0.905127
525 0.901576
530 0.96701
535 0.958883
540 0.899956
545 1.5787
550 2.23369
555 1.9036
560 1.13899
565 0.89775
570 0.790589
575 0.509124
580 0.386531
585 0.342137
590 0.236305
595 0.249812
600 0.221614
Ex : 483
200 0.0508236
205 0.0562005
210 0.0783811
215 0.117052
220 0.100656
225 0.096016
230 0.0799811
235 0.0526442
240 0.033835
245 0.0568679
250 0.0943618
255 0.0724157
260 0.0698806
265 0.0797384
270 0.114158
275 0.0839136
280 0.0732544
285 0.117296
290 0.10666
295 0.0571674
300 0.0952799
305 0.0871084
310 0.0787225
315 0.0679895
320 0.0765037
325 0.15594
330 0.0603826
335 0.0450342
340 0.155727
345 0.0896874
350 0.0689917
355 0.0760714
360 0.11873
365 0.116155
370 0.129579
375 0.0680478
380 0.0907286
385 0.0824265
390 0.058454
395 0.0820515
400 0.091323
405 0.0792586
410 0.12714
415 0.125003
420 0.102897
425 0.129658
430 0.157628
435 0.14331
440 0.117869
445 0.222005
450 0.243853
455 0.273745
460 0.484422
465 0.975848
470 33.5366
475 599.983
480 915.251
485 219.586
490 26.4042
495 4.10527
500 1.43038
505 0.899231
510 0.937901
515 1.12021
520 1.16694
525 1.02003
530 0.995021
535 0.885101
540 0.840013
545 0.775548
550 1.12339
555 2.05327
560 1.98758
565 1.26731
570 0.803741
575 0.627382
580 0.507329
585 0.379312
590 0.273568
595 0.212781
600 0.0242136
Ex : 488
200 0.0841368
205 0.0505276
210 0.0488162
215 0.0661092
220 0.0768823
225 0.0734977
230 0.0677392
235 0.106139
240 0.0802854
245 0.0712201
250 0.0859902
255 0.0690944
260 0.0517844
265 0.0671933
270 0.0838772
275 0.0456468
280 0.0767299
285 0.0907329
290 0.106043
295 0.0913984
300 0.125219
305 0.0991875
310 0.103872
315 0.135536
320 0.120924
325 0.0737453
330 0.0731577
335 0.0866662
340 0.0435561
345 0.070074
350 0.0618666
355 0.0658365
360 0.0626197
365 0.0930875
370 0.0636459
375 0.092315
380 0.0591761
385 0.0718049
390 0.0924785
395 0.127054
400 0.107357
405 0.0682881
410 0.0822405
415 0.0694347
420 0.0812362
425 0.1024
430 0.165536
435 0.135477
440 0.190328
445 0.159781
450 0.171291
455 0.189847
460 0.402325
465 0.571878
470 0.960777
475 41.0318
480 657.024
485 923.076
490 216.65
495 26.064
500 4.01779
505 1.26187
510 0.853406
515 0.951691
520 1.12131
525 1.13085
530 1.06716
535 0.912893
540 0.787694
545 0.79312
550 0.751135
555 0.755283
560 1.49132
565 1.98064
570 1.22753
575 0.730954
580 0.467288
585 0.411648
590 0.288106
595 0.248043
600 0.15434
Ex : 493
200 0.0998017
205 0.0638902
210 0.147164
215 0.0975083
220 0.0534419
225 0.0590707
230 0.0636998
235 0.0704632
240 0.0503299
245 0.0382279
250 0.0706931
255 0.109103
260 0.090577
265 0.0618103
270 0.0767415
275 0.118023
280 0.0801219
285 0.0505501
290 0.0870843
295 0.134164
300 0.0953643
305 0.125556
310 0.147392
315 0.102233
320 0.0951939
325 0.153389
330 0.0591358
335 0.10475
340 0.0812927
345 0.129488
350 0.128341
355 0.109546
360 0.0827241
365 0.115514
370 0.0702781
375 0.0850307
380 0.076637
385 0.159208
390 0.0655567
395 0.0987484
400 0.0711387
405 0.149807
410 0.0768576
415 0.113624
420 0.110389
425 0.134952
430 0.152204
435 0.134249
440 0.120697
445 0.154654
450 0.180035
455 0.198277
460 0.317082
465 0.342027
470 0.520284
475 0.849368
480 37.4544
485 647.888
490 968.64
495 223.225
500 26.689
505 4.18277
510 1.45971
515 0.990433
520 0.927588
525 1.2436
530 1.12221
535 0.999794
540 0.892026
545 0.712748
550 0.752926
555 0.725671
560 0.683707
565 0.862089
570 1.45499
575 1.23271
580 0.588728
585 0.460594
590 0.404818
595 0.327676
600 0.0372883
Ex : 498
200 0.111056
205 0.0736265
210 0.0608422
215 0.0503528
220 0.0554178
225 0.144024
230 0.063507
235 0.105625
240 0.1102
245 0.132168
250 0.13664
255 0.0608823
260 0.122482
265 0.109228
270 0.0662384
275 0.144827
280 0.0764661
285 0.0815682
290 0.147063
295 0.0948488
300 0.0860964
305 0.0923586
310 0.0636894
315 0.095575
320 0.0975102
325 0.0767311
330 0.0723387
335 0.0597287
340 0.0538723
345 0.0867997
350 0.0851295
355 0.120018
360 0.124244
365 0.107962
370 0.124933
375 0.110543
380 0.0671506
385 0.0808257
390 0.113129
395 0.0629221
400 0.0877243
405 0.101729
410 0.107306
415 0.120553
420 0.0936607
425 0.124381
430 0.0824408
435 0.107196
440 0.102098
445 0.110769
450 0.189917
455 0.186098
460 0.24264
465 0.25309
470 0.374485
475 0.525236
480 0.941108
485 46.5566
490 688.008
495 944.726
500 219.715
505 26.4535
510 3.9319
515 1.48376
520 1.09006
525 1.19562
530 1.09711
535 1.03357
540 0.944581
545 0.781051
550 0.612356
555 0.729544
560 0.691254
565 0.624121
570 0.645184
575 1.18369
580 1.13202
585 0.607669
590 0.398479
595 0.317636
600 0.123672
Ex : 503
200 0.109542
205 0.0563397
210 0.103898
215 0.0986545
220 0.0997345
225 0.0371329
230 0.0395186
235 0.0574216
240 0.0830169
245 0.0672144
250 0.0776319
255 0.0890092
260 0.0736098
265 0.0541903
270 0.116123
275 0.136643
280 0.109352
285 0.0870518
290 0.0891304
295 0.0630476
300 0.0858899
305 0.157961
310 0.0907972
315 0.0809881
320 0.0795527
325 0.0876933
330 0.0826733
335 0.0626272
340 0.108509
345 0.0713595
350 0.0923997
355 0.104999
360 0.112268
365 0.123962
370 0.111231
375 0.0879493
380 0.0599978
385 0.112545
390 0.0819952
395 0.095522
400 0.114022
405 0.168305
410 0.154215
415 0.122265
420 0.147896
425 0.0824747
430 0.137305
435 0.118935
440 0.135075
445 0.168626
450 0.161955
455 0.102906
460 0.163527
465 0.230143
470 0.270208
475 0.359915
480 0.586486
485 0.940442
490 42.3621
495 698.508
500 984.144
505 228.118
510 27.4691
515 4.22108
520 1.47136
525 1.0449
530 1.05932
535 0.987746
540 1.13144
545 0.88268
550 0.691717
555 0.653773
560 0.55704
565 0.60594
570 0.471432
575 0.457507
580 0.66397
585 0.881384
590 0.663336
595 0.40203
600 0.282848
Ex : 508
200 0.109409
205 0.116589
210 0.0659968
215 0.092072
220 0.101846
225 0.063725
230 0.137584
235 0.0631439
240 0.0663237
245 0.091422
250 0.0609633
255 0.0776103
260 0.127815
265 0.0774486
270 0.066474
275 0.136827
280 0.0713454
285 0.106931
290 0.1066
295 0.0693206
300 0.103377
305 0.0547136
310 0.183894
315 0.152625
320 0.125503
325 0.12029
330 0.0794711
335 0.103414
340 0.106934
345 0.0743669
350 0.112465
355 0.114717
360 0.0984133
365 0.084379
370 0.121335
375 0.0885767
380 0.101489
385 0.0827076
390 0.0820134
395 0.0733817
400 0.153821
405 0.0617758
410 0.100253
415 0.131386
420 0.103784
425 0.096358
430 0.0877851
435 0.158143
440 0.106354
445 0.0953052
450 0.0535575
455 0.250297
460 0.20281
465 0.214842
470 0.208147
475 0.255725
480 0.426541
485 0.651843
490 1.046
495 45.192
500 704.361
505 990.296
510 238.956
515 28.8145
520 4.42843
525 1.55788
530 0.873605
535 0.794837
540 0.881512
545 0.819948
550 0.802734
555 0.670651
560 0.647048
565 0.543118
570 0.432593
575 0.428101
580 0.388764
585 0.576913
590 0.706705
595 0.54639
600 0.764753
Ex : 513
200 0.103701
205 0.108706
210 0.083877
215 0.137716
220 0.132415
225 0.0806614
230 0.111217
235 0.0564253
240 0.0936587
245 0.0906722
250 0.0712987
255 0.133515
260 0.146505
265 0.0815863
270 0.114967
275 0.0970733
280 0.0706108
285 0.057424
290 0.105467
295 0.137667
300 0.0721856
305 0.0652798
310 0.0444119
315 0.0459818
320 0.0374599
325 0.0971136
330 0.141905
335 0.0757116
340 0.0518718
345 0.0862757
350 0.0763353
355 0.070392
360 0.0971325
365 0.11575
370 0.0663442
375 0.0913297
380 0.0657308
385 0.137516
390 0.149038
395 0.118521
400 0.0684332
405 0.106421
410 0.220278
415 0.114506
420 0.170514
425 0.147673
430 0.136725
435 0.125375
440 0.143675
445 0.141036
450 0.139754
455 0.134455
460 0.220957
465 0.229714
470 0.205562
475 0.223618
480 0.27542
485 0.480221
490 0.621285
495 0.997375
500 42.4087
505 687.692
510 1008.15
515 246.929
520 29.6441
525 4.44801
530 1.48593
535 1.01824
540 0.865277
545 0.806695
550 0.72132
555 0.733423
560 0.598582
565 0.514569
570 0.506387
575 0.390843
580 0.412915
585 0.414758
590 0.310902
595 0.418463
600 0.172437
Ex : 518
200 0.0789474
205 0.0984117
210 0.0925923
215 0.0637007
220 0.0445671
225 0.0953207
230 0.0852992
235 0.0759103
240 0.0641669
245 0.120712
250 0.117224
255 0.102419
260 0.102679
265 0.135802
270 0.105416
275 0.0939019
280 0.125908
285 0.0616573
290 0.101455
295 0.104577
300 0.095522
305 0.131479
310 0.135158
315 0.120226
320 0.0785554
325 0.0588375
330 0.106577
335 0.0767779
340 0.132099
345 0.117936
350 0.0988749
355 0.141429
360 0.0964533
365 0.126732
370 0.174431
375 0.0998726
380 0.117771
385 0.0850184
390 0.0938646
395 0.102612
400 0.153445
405 0.0962783
410 0.101799
415 0.082309
420 0.0841399
425 0.172397
430 0.108003
435 0.111481
440 0.103773
445 0.177527
450 0.155604
455 0.190672
460 0.139506
465 0.119472
470 0.212621
475 0.143749
480 0.177374
485 0.288173
490 0.354359
495 0.527507
500 0.975776
505 43.1869
510 690.5
515 1026.32
520 250.897
525 30.1629
530 4.60265
535 1.61256
540 1.04895
545 0.806115
550 0.705455
555 0.752979
560 0.661617
565 0.606174
570 0.443996
575 0.387536
580 0.364229
585 0.322703
590 0.299608
595 0.202547
600 0.151484
Ex : 523
200 0.0720752
205 0.0677168
210 0.176761
215 0.065542
220 0.138877
225 0.0923022
230 0.124274
235 0.103521
240 0.137572
245 0.0880888
250 0.0850975
255 0.101378
260 0.178864
265 0.129367
270 0.0828829
275 0.114526
280 0.0614134
285 0.108677
290 0.0731715
295 0.0777046
300 0.172845
305 0.0908311
310 0.124188
315 0.12148
320 0.0500604
325 0.0659733
330 0.173539
335 0.139613
340 0.137184
345 0.0592555
350 0.0862999
355 0.107425
360 0.127963
365 0.0903443
370 0.0573611
375 0.110458
380 0.0797222
385 0.0712987
390 0.0890822
395 0.138487
400 0.127428
405 0.116064
410 0.165161
415 0.185741
420 0.084565
425 0.167866
430 0.168674
435 0.160067
440 0.126947
445 0.109004
450 0.114209
455 0.203997
460 0.195077
465 0.184795
470 0.228537
475 0.141832
480 0.233885
485 0.247348
490 0.258115
495 0.228146
500 0.486582
505 1.10748
510 39.8206
515 663.583
520 1017.13
525 261.761
530 31.4609
535 4.46602
540 1.38745
545 0.851663
550 0.681935
555 0.622707
560 0.605837
565 0.712715
570 0.631089
575 0.456313
580 0.303389
585 0.407546
590 0.330643
595 0.34113
600 0.410243
Ex : 528
200 0.0986449
205 0.124147
210 0.124063
215 0.0944246
220 0.0723371
225 0.0559696
230 0.14447
235 0.118427
240 0.0605306
245 0.111128
250 0.110653
255 0.107898
260 0.0816306
265 0.0866433
270 0.129626
275 0.0914427
280 0.0795911
285 0.0725216
290 0.101457
295 0.10243
300 0.120412
305 0.091338
310 0.097341
315 0.0933682
320 0.102987
325 0.0956205
330 0.089108
335 0.0913963
340 0.130827
345 0.0895701
350 0.0888621
355 0.107985
360 0.12461
365 0.18975
370 0.176151
375 0.163654
380 0.0736974
385 0.121277
390 0.117244
395 0.075914
400 0.146464
405 0.108667
410 0.0966524
415 0.106147
420 0.133127
425 0.107853
430 0.219446
435 0.132295
440 0.0998878
445 0.0540664
450 0.116207
455 0.110611
460 0.168725
465 0.149074
470 0.145064
475 0.213623
480 0.134186
485 0.173319
490 0.273483
495 0.299615
500 0.309041
505 0.499173
510 1.07634
515 37.0301
520 654.225
525 1006.34
530 253.052
535 30.3683
540 4.29258
545 1.31822
550 0.811128
555 0.583221
560 0.585725
565 0.541444
570 0.524956
575 0.439104
580 0.30018
585 0.396722
590 0.322335
595 0.212788
600 0.358802
Ex : 533
200 0.0899849
205 0.0612316
210 0.0918697
215 0.154106
220 0.0935066
225 0.0858148
230 0.0612508
235 0.0695033
240 0.0868478
245 0.0876339
250 0.0795684
255 0.10676
260 0.117122
265 0.0477197
270 0.0740847
275 0.133013
280 0.134097
285 0.0864164
290 0.0970476
295 0.0925659
300 0.142655
305 0.150227
310 0.107976
315 0.11201
320 0.0900707
325 0.106833
330 0.104423
335 0.112023
340 0.118171
345 0.0952146
350 0.124325
355 0.126464
360 0.112509
365 0.086812
370 0.125334
375 0.0780198
380 0.0968814
385 0.0945543
390 0.0683071
395 0.071719
400 0.116404
405 0.0674057
410 0.0856798
415 0.146899
420 0.154809
425 0.14441
430 0.175871
435 0.0962039
440 0.111222
445 0.151978
450 0.102069
455 0.156575
460 0.106796
465 0.143676
470 0.125823
475 0.157063
480 0.185339
485 0.19441
490 0.206964
495 0.211531
500 0.310659
505 0.290076
510 0.487875
515 0.888271
520 37.6067
525 644.774
530 1012.29
535 259.78
540 31.1051
545 4.30161
550 1.14194
555 0.63298
560 0.437661
565 0.391005
570 0.447213
575 0.389017
580 0.361753
585 0.314548
590 0.217654
595 0.293632
600 0.270367
Ex : 538
200 0.105972
205 0.0888997
210 0.0661176
215 0.105759
220 0.0812044
225 0.142645
230 0.133272
235 0.148898
240 0.121333
245 0.152371
250 0.0772304
255 0.117133
260 0.0838058
265 0.109916
270 0.110011
275 0.0958362
280 0.153296
285 0.0927057
290 0.0668496
295 0.0628296
300 0.0846492
305 0.134122
310 0.10481
315 0.0677408
320 0.0510002
325 0.0670689
330 0.0876862
335 0.201584
340 0.0886099
345 0.10627
350 0.072088
355 0.122575
360 0.134396
365 0.114609
370 0.117437
375 0.075857
380 0.189209
385 0.109932
390 0.11026
395 0.0834666
400 0.120562
405 0.121609
410 0.175347
415 0.166941
420 0.126472
425 0.121024
430 0.133803
435 0.117161
440 0.138116
445 0.218384
450 0.17794
455 0.177585
460 0.157897
465 0.105335
470 0.138867
475 0.196538
480 0.264352
485 0.154271
490 0.128403
495 0.163006
500 0.341628
505 0.321254
510 0.39169
515 0.528335
520 0.809386
525 32.3765
530 620.188
535 1018.66
540 273.245
545 32.4463
550 4.45717
555 1.13091
560 0.628763
565 0.432532
570 0.31701
575 0.419923
580 0.324404
585 0.319685
590 0.405659
595 0.276333
600 0.226792
Ex : 543
200 0.189885
205 0.131553
210 0.136388
215 0.0607663
220 0.141299
225 0.0743353
230 0.08327
235 0.0788164
240 0.0709688
245 0.0653578
250 0.102617
255 0.120756
260 0.0833642
265 0.11309
270 0.0732814
275 0.132937
280 0.088572
285 0.101424
290 0.0760642
295 0.104918
300 0.111445
305 0.144437
310 0.0901181
315 0.142129
320 0.196245
325 0.083179
330 0.101828
335 0.105895
340 0.174438
345 0.12199
350 0.137368
355 0.131758
360 0.150695
365 0.10795
370 0.179925
375 0.0985053
380 0.130104
385 0.11997
390 0.153879
395 0.0975466
400 0.0957771
405 0.118228
410 0.117518
415 0.131746
420 0.094663
425 0.0717143
430 0.0856902
435 0.107466
440 0.121095
445 0.138147
450 0.1231
455 0.153195
460 0.224344
465 0.16782
470 0.175276
475 0.188251
480 0.162863
485 0.160891
490 0.185292
495 0.104813
500 0.16607
505 0.284181
510 0.286557
515 0.3307
520 0.414715
525 0.750908
530 29.4813
535 591.604
540 1017.26
545 281.65
550 33.7511
555 4.56539
560 1.11437
565 0.472531
570 0.40284
575 0.245163
580 0.346108
585 0.251781
590 0.249876
595 0.273243
600 0.0803276
Ex : 548
200 0.116425
205 0.113027
210 0.15383
215 0.0751127
220 0.0761414
225 0.0868232
230 0.139126
235 0.108368
240 0.0946448
245 0.0952989
250 0.0806417
255 0.054514
260 0.106875
265 0.150608
270 0.124539
275 0.148707
280 0.0676526
285 0.109526
290 0.061073
295 0.0799873
300 0.0743695
305 0.128785
310 0.0890424
315 0.137028
320 0.0850611
325 0.0811319
330 0.103356
335 0.209277
340 0.120556
345 0.071366
350 0.0620449
355 0.127382
360 0.136823
365 0.185375
370 0.170253
375 0.102025
380 0.0770509
385 0.123156
390 0.116625
395 0.0741744
400 0.146827
405 0.0972502
410 0.147574
415 0.134857
420 0.0847492
425 0.104126
430 0.0827307
435 0.0731657
440 0.192156
445 0.130152
450 0.212839
455 0.15217
460 0.124152
465 0.101373
470 0.129948
475 0.123108
480 0.210375
485 0.166242
490 0.119941
495 0.160679
500 0.163033
505 0.225796
510 0.180616
515 0.25625
520 0.458956
525 0.476882
530 0.868191
535 32.6106
540 606.489
545 1005.64
550 278.259
555 33.0843
560 4.34147
565 0.963209
570 0.612735
575 0.425652
580 0.226896
585 0.265197
590 0.254869
595 0.222308
600 0.193371
Ex : 553
200 0.105453
205 0.126034
210 0.140136
215 0.121745
220 0.0844945
225 0.0916153
230 0.0740113
235 0.12562
240 0.120393
245 0.114991
250 0.118655
255 0.145215
260 0.0744632
265 0.12883
270 0.103105
275 0.101247
280 0.159868
285 0.101227
290 0.0789711
295 0.166109
300 0.0939621
305 0.0844594
310 0.0583712
315 0.113766
320 0.092765
325 0.0823127
330 0.0801232
335 0.0728481
340 0.134711
345 0.0967144
350 0.168737
355 0.0738778
360 0.128858
365 0.144177
370 0.104989
375 0.117478
380 0.146753
385 0.128479
390 0.0630935
395 0.123634
400 0.19279
405 0.0893919
410 0.15216
415 0.1958
420 0.143777
425 0.167765
430 0.115568
435 0.148912
440 0.110303
445 0.208186
450 0.138485
455 0.166754
460 0.120008
465 0.100097
470 0.138404
475 0.194372
480 0.231851
485 0.136956
490 0.178362
495 0.167767
500 0.279983
505 0.239465
510 0.280344
515 0.201058
520 0.226062
525 0.271552
530 0.505775
535 0.80372
540 28.7431
545 577.505
550 999.976
555 284.215
560 33.8299
565 4.33248
570 0.988766
575 0.566711
580 0.35188
585 0.336742
590 0.328477
595 0.296117
600 0.857711
Ex : 558
200 0.104411
205 0.138186
210 0.0687811
215 0.174443
220 0.0733131
225 0.0985947
230 0.161785
235 0.186495
240 0.138032
245 0.135622
250 0.141647
255 0.0757523
260 0.111188
265 0.067228
270 0.111665
275 0.0982849
280 0.0893903
285 0.122103
290 0.112089
295 0.0932251
300 0.123323
305 0.181174
310 0.117499
315 0.0821281
320 0.157521
325 0.123296
330 0.17349
335 0.156232
340 0.0728659
345 0.101999
350 0.075625
355 0.151701
360 0.0775832
365 0.136514
370 0.107117
375 0.0978632
380 0.0708995
385 0.105296
390 0.0927463
395 0.187254
400 0.158879
405 0.115027
410 0.122894
415 0.0942205
420 0.161485
425 0.0884147
430 0.138543
435 0.172912
440 0.162012
445 0.102602
450 0.102282
455 0.183259
460 0.158173
465 0.161705
470 0.122737
475 0.187293
480 0.150973
485 0.142845
490 0.185777
495 0.10067
500 0.11778
505 0.238355
510 0.220176
515 0.158573
520 0.277905
525 0.26993
530 0.330045
535 0.410676
540 0.8035
545 26.8914
550 559.453
555 1001.1
560 284.387
565 33.8982
570 4.3868
575 0.939914
580 0.420459
585 0.30504
590 0.390432
595 0.381662
600 0.0434317
Ex : 563
200 0.0877036
205 0.121172
210 0.0920108
215 0.130159
220 0.148272
225 0.0818343
230 0.0782051
235 0.0866506
240 0.0549059
245 0.135063
250 0.0796144
255 0.118133
260 0.11709
265 0.100365
270 0.1645
275 0.0774542
280 0.133908
285 0.107931
290 0.173738
295 0.122896
300 0.141612
305 0.102759
310 0.0812051
315 0.130452
320 0.0851025
325 0.103166
330 0.133156
335 0.101657
340 0.166771
345 0.230132
350 0.124908
355 0.166989
360 0.117276
365 0.0941524
370 0.106041
375 0.102205
380 0.173394
385 0.151204
390 0.149331
395 0.111072
400 0.0792973
405 0.0858227
410 0.175578
415 0.16668
420 0.2148
425 0.214554
430 0.269141
435 0.132283
440 0.268235
445 0.127641
450 0.2076
455 0.0880607
460 0.210049
465 0.131742
470 0.119133
475 0.272044
480 0.142215
485 0.148874
490 0.149063
495 0.127136
500 0.172234
505 0.135504
510 0.203581
515 0.181484
520 0.318778
525 0.190776
530 0.206832
535 0.2579
540 0.431755
545 0.770713
550 26.964
555 542.317
560 959.225
565 277.347
570 33.0697
575 4.19214
580 0.802361
585 0.375836
590 0.320765
595 0.221017
600 0.0251508
Ex : 568
200 0.175274
205 0.174592
210 0.103511
215 0.108458
220 0.086377
225 0.114307
230 0.0618252
235 0.203006
240 0.157125
245 0.0912829
250 0.112245
255 0.103511
260 0.0898407
265 0.101285
270 0.237963
275 0.186783
280 0.10502
285 0.0540136
290 0.0596232
295 0.0596495
300 0.131252
305 0.0981289
310 0.0518674
315 0.236224
320 0.1418
325 0.125292
330 0.161958
335 0.214218
340 0.153006
345 0.132979
350 0.153658
355 0.204207
360 0.153182
365 0.134048
370 0.118897
375 0.157202
380 0.144019
385 0.0981033
390 0.119009
395 0.114513
400 0.178559
405 0.117886
410 0.247707
415 0.129547
420 0.0930577
425 0.084578
430 0.14777
435 0.139629
440 0.241233
445 0.116415
450 0.0948843
455 0.105148
460 0.152262
465 0.188837
470 0.208638
475 0.150362
480 0.190099
485 0.151227
490 0.11425
495 0.116176
500 0.12772
505 0.149729
510 0.146609
515 0.187076
520 0.196031
525 0.22843
530 0.282018
535 0.27058
540 0.343406
545 0.51675
550 0.573184
555 20.2043
560 501.215
565 944.07
570 282.744
575 33.9318
580 4.35924
585 0.834151
590 0.326773
595 0.203289
600 0.566291
Ex : 573
200 0.0846544
205 0.154476
210 0.18376
215 0.0727078
220 0.1137
225 0.0805845
230 0.181766
235 0.113611
240 0.0900817
245 0.128099
250 0.211165
255 0.1692
260 0.123272
265 0.146272
270 0.0919184
275 0.0836341
280 0.128374
285 0.180868
290 0.157671
295 0.142942
300 0.111459
305 0.0653462
310 0.093871
315 0.0864685
320 0.16327
325 0.138839
330 0.143478
335 0.118287
340 0.190019
345 0.140361
350 0.0836401
355 0.148968
360 0.0962187
365 0.127145
370 0.116171
375 0.148936
380 0.0813634
385 0.0965932
390 0.191182
395 0.193019
400 0.0912261
405 0.13227
410 0.288476
415 0.284825
420 0.120735
425 0.162553
430 0.176963
435 0.120958
440 0.0746198
445 0.135539
450 0.174719
455 0.155689
460 0.168135
465 0.162949
470 0.155361
475 0.171494
480 0.0882823
485 0.160547
490 0.176982
495 0.240492
500 0.113691
505 0.14845
510 0.121918
515 0.176965
520 0.137226
525 0.157307
530 0.225018
535 0.317893
540 0.336206
545 0.347075
550 0.604572
555 0.680455
560 17.8302
565 434.809
570 880.578
575 271.517
580 32.5419
585 4.1622
590 0.910205
595 0.383036
600 0.043588
Ex : 578
200 0.192133
205 0.138202
210 0.0784437
215 0.0959723
220 0.0974827
225 0.100033
230 0.147304
235 0.0988025
240 0.0872286
245 0.0797405
250 0.167112
255 0.118262
260 0.111795
265 0.0603704
270 0.100835
275 0.0761471
280 0.112582
285 0.127795
290 0.134607
295 0.136586
300 0.151456
305 0.19641
310 0.120158
315 0.0926219
320 0.161715
325 0.106746
330 0.0898535
335 0.119586
340 0.0714012
345 0.129946
350 0.0892424
355 0.206281
360 0.085536
365 0.0960296
370 0.097415
375 0.132057
380 0.09876
385 0.108638
390 0.135961
395 0.101018
400 0.123234
405 0.138559
410 0.1901
415 0.064993
420 0.0849515
425 0.124789
430 0.236302
435 0.155941
440 0.0899697
445 0.0869834
450 0.0761484
455 0.199596
460 0.116861
465 0.138291
470 0.0982862
475 0.121707
480 0.0995878
485 0.113217
490 0.0928146
495 0.210221
500 0.19711
505 0.145461
510 0.204235
515 0.231649
520 0.117104
525 0.218508
530 0.204404
535 0.19433
540 0.204461
545 0.267345
550 0.283166
555 0.422473
560 0.600247
565 15.4084
570 390.341
575 767.856
580 236.033
585 28.04
590 3.61326
595 0.75256
600 0.116197
Ex : 583
200 0.184788
205 0.0866007
210 0.203819
215 0.156822
220 0.15745
225 0.229488
230 0.147653
235 0.221977
240 0.116798
245 0.079196
250 0.0992876
255 0.0850744
260 0.104904
265 0.102431
270 0.147754
275 0.109139
280 0.0739802
285 0.108433
290 0.0585487
295 0.0650838
300 0.117901
305 0.173393
310 0.145667
315 0.0826707
320 0.120071
325 0.255938
330 0.12421
335 0.0842205
340 0.135971
345 0.207355
350 0.0758403
355 0.17428
360 0.130458
365 0.274787
370 0.180954
375 0.131479
380 0.234227
385 0.207036
390 0.195615
395 0.0945546
400 0.16662
405 0.129867
410 0.0774498
415 0.168045
420 0.0892713
425 0.133749
430 0.173288
435 0.159575
440 0.0948556
445 0.0909241
450 0.0882598
455 0.0941731
460 0.203077
465 0.177605
470 0.15447
475 0.145248
480 0.179157
485 0.168014
490 0.247321
495 0.148173
500 0.160356
505 0.182283
510 0.19538
515 0.109829
520 0.145249
525 0.153633
530 0.224892
535 0.148564
540 0.170051
545 0.240677
550 0.190771
555 0.234818
560 0.361643
565 0.533888
570 13.2364
575 355.765
580 678.341
585 198.956
590 23.6566
595 3.02675
600 1.20567
Ex : 588
200 0.0711196
205 0.118888
210 0.113198
215 0.143794
220 0.135008
225 0.123859
230 0.152588
235 0.199213
240 0.143347
245 0.0881458
250 0.149307
255 0.112383
260 0.0439625
265 0.119561
270 0.183822
275 0.106601
280 0.177459
285 0.104933
290 0.0950565
295 0.0722539
300 0.144384
305 0.149924
310 0.155299
315 0.157477
320 0.0806481
325 0.143877
330 0.0865701
335 0.126688
340 0.160058
345 0.0869685
350 0.0777223
355 0.166632
360 0.158564
365 0.177937
370 0.108467
375 0.146124
380 0.084109
385 0.199196
390 0.115302
395 0.210175
400 0.123673
405 0.0925725
410 0.179865
415 0.249809
420 0.236119
425 0.111977
430 0.180757
435 0.108523
440 0.123995
445 0.108249
450 0.180634
455 0.212826
460 0.162204
465 0.136084
470 0.0796655
475 0.14437
480 0.117232
485 0.118661
490 0.166286
495 0.128363
500 0.100149
505 0.179311
510 0.121827
515 0.17825
520 0.170601
525 0.199221
530 0.115294
535 0.266167
540 0.223794
545 0.151824
550 0.303114
555 0.217803
560 0.32811
565 0.488384
570 0.500069
575 12.3109
580 304.796
585 582.426
590 175.614
595 20.7054
600 2.3562
Ex : 593
200 0.0338312
205 0.0841938
210 0.0670409
215 0.126099
220 0.234857
225 0.113634
230 0.168009
235 0.262925
240 0.117739
245 0.0604292
250 0.0961102
255 0.104162
260 0.0752109
265 0.0983843
270 0.167282
275 0.0873171
280 0.138906
285 0.162271
290 0.117433
295 0.197226
300 0.12973
305 0.154877
310 0.142542
315 0.113044
320 0.160055
325 0.100819
330 0.119098
335 0.102497
340 0.0778919
345 0.173017
350 0.146497
355 0.261384
360 0.120397
365 0.0824914
370 0.0922266
375 0.0497133
380 0.189751
385 0.0551076
390 0.097569
395 0.115115
400 0.189372
405 0.273255
410 0.149427
415 0.113953
420 0.205951
425 0.183537
430 0.0854019
435 0.107471
440 0.168486
445 0.0912274
450 0.142615
455 0.153669
460 0.175311
465 0.184694
470 0.0915164
475 0.119674
480 0.0808279
485 0.102279
490 0.136089
495 0.281927
500 0.119688
505 0.195608
510 0.153233
515 0.140463
520 0.097795
525 0.164083
530 0.118583
535 0.129506
540 0.159071
545 0.101269
550 0.153978
555 0.244341
560 0.250245
565 0.143716
570 0.306379
575 0.362182
580 10.2935
585 273.169
590 505.47
595 153.877
600 22.7352
Ex : 598
200 0.128133
205 0.176737
210 0.119818
215 0.109532
220 0.198024
225 0.0611456
230 0.0968186
235 0.167357
240 0.157292
245 0.153641
250 0.0698511
255 0.0493633
260 0.154837
265 0.203549
270 0.16198
275 0.186547
280 0.15636
285 0.103506
290 0.0849793
295 0.121293
300 0.100632
305 0.117057
310 0.0933322
315 0.0929329
320 0.157403
325 0.10606
330 0.0899138
335 0.124291
340 0.106634
345 0.0844708
350 0.186211
355 0.179761
360 0.122957
365 0.110623
370 0.103825
375 0.104699
380 0.0891298
385 0.118077
390 0.117197
395 0.14095
400 0.216715
405 0.116466
410 0.151812
415 0.162134
420 0.0966398
425 0.13673
430 0.122033
435 0.085148
440 0.10868
445 0.243711
450 0.248523
455 0.149296
460 0.219035
465 0.211316
470 0.121156
475 0.107551
480 0.11478
485 0.0592778
490 0.16463
495 0.121939
500 0.103083
505 0.174119
510 0.191897
515 0.213052
520 0.169632
525 0.159382
530 0.275367
535 0.210387
540 0.135159
545 0.159039
550 0.279758
555 0.358775
560 0.160785
565 0.23297
570 0.223426
575 0.207093
580 0.431422
585 10.4215
590 250.834
595 448.649
600 297.785
Ex : 603
200 0.110188
205 0.159506
210 0.116207
215 0.0932443
220 0.0476091
225 0.0691709
230 0.141961
235 0.143561
240 0.18095
245 0.233888
250 0.169369
255 0.121076
260 0.113048
265 0.143958
270 0.0925083
275 0.160125
280 0.0935833
285 0.0981583
290 0.13767
295 0.168363
300 0.109721
305 0.11983
310 0.131266
315 0.0828095
320 0.169595
325 0.0674166
330 0.0583018
335 0.0656088
340 0.139465
345 0.110802
350 0.134062
355 0.167489
360 0.0797561
365 0.190053
370 0.130866
375 0.12279
380 0.219548
385 0.197803
390 0.158065
395 0.0988233
400 0.069702
405 0.125074
410 0.151877
415 0.192551
420 0.108877
425 0.10549
430 0.095368
435 0.30468
440 0.133957
445 0.106877
450 0.184251
455 0.13591
460 0.122586
465 0.216807
470 0.31229
475 0.138273
480 0.177484
485 0.147249
490 0.18303
495 0.315176
500 0.222787
505 0.107506
510 0.168282
515 0.188369
520 0.0729818
525 0.119455
530 0.127524
535 0.142521
540 0.19948
545 0.219008
550 0.169591
555 0.110481
560 0.104648
565 0.130338
570 0.185466
575 0.150914
580 0.219302
585 0.360575
590 9.04604
595 217.201
600 427.756
