File format V 1.0
jeu. 5. janv. 23:22:38 2017
Operator : 
Comments : 

=============================================
SpectroFluorometer parameters
Mode : 3D measurement
Data : Fluorescence
Phospho. : Ordinary
Spectrum : Fluorescence

Scan speed : 2400 nm/mn
Response : 100 ms
PM Voltage : 700 V
Shutter : On

Lambda Ex. Start : 203
Lambda Ex. End : 603
Lambda Ex. Step : 5
Ex. Slit : 5 nm

Lambda Em. Start : 200
Lambda Em. End : 600
Lambda Em. Step : 5
Em. Slit : 5 nm

Repetition : 1
Decal lambda em : 10
=============================================
DATA
Ex : 203
200 2.20714
205 3.26889
210 3.30283
215 2.87121
220 2.92036
225 3.35808
230 6.13967
235 8.16296
240 7.88124
245 4.50941
250 5.97493
255 4.59944
260 4.72033
265 3.36078
270 3.12603
275 2.94536
280 2.68607
285 3.86222
290 4.51724
295 3.39716
300 2.77597
305 3.05183
310 4.81994
315 3.41729
320 2.29009
325 5.14567
330 3.68187
335 2.26976
340 3.86853
345 2.48082
350 5.00873
355 4.25472
360 2.94267
365 3.40908
370 2.78986
375 4.68862
380 3.46575
385 6.21801
390 4.68908
395 3.6381
400 4.19554
405 4.81864
410 4.73609
415 7.26914
420 6.43367
425 5.58571
430 7.44605
435 4.35134
440 5.94449
445 3.83498
450 7.49128
455 10.113
460 6.96534
465 4.63285
470 6.60323
475 7.09542
480 5.49574
485 4.44942
490 5.73312
495 3.26966
500 3.20239
505 5.27932
510 2.74291
515 3.55552
520 5.42842
525 4.43008
530 4.744
535 9.27265
540 4.5148
545 4.05301
550 2.05975
555 6.669
560 7.09248
565 4.75213
570 6.58638
575 5.13993
580 7.09532
585 6.25638
590 4.3264
595 2.74329
600 0.312175
Ex : 208
200 6.81928
205 6.62032
210 5.37385
215 1.8976
220 1.82037
225 3.74573
230 6.08387
235 3.21417
240 1.27345
245 4.58169
250 6.50179
255 3.64907
260 2.13459
265 5.8834
270 6.14312
275 5.3904
280 5.49967
285 3.49141
290 3.19053
295 2.95126
300 5.61983
305 3.57649
310 3.98391
315 3.17105
320 4.53867
325 4.31768
330 2.79789
335 2.51883
340 3.82009
345 3.67231
350 5.93734
355 6.79678
360 6.01977
365 4.33446
370 3.64885
375 5.26719
380 6.04068
385 12.7178
390 3.48134
395 2.86024
400 4.05345
405 4.90395
410 6.43498
415 4.11542
420 3.25528
425 4.22489
430 3.02043
435 4.40598
440 4.4609
445 4.4398
450 5.56837
455 5.45583
460 4.25312
465 4.14938
470 3.37507
475 2.10177
480 3.8005
485 3.25521
490 4.61422
495 2.22316
500 3.82621
505 3.27817
510 3.57884
515 4.96167
520 6.30812
525 5.74569
530 5.85618
535 4.80616
540 5.34075
545 4.05474
550 3.18691
555 2.05093
560 1.98247
565 5.61988
570 4.20194
575 5.13073
580 5.21894
585 5.42829
590 5.96353
595 3.288
600 0.374162
Ex : 213
200 7.78064
205 3.39632
210 2.55165
215 3.03103
220 5.44783
225 5.22229
230 5.47948
235 4.65123
240 4.40503
245 4.28426
250 4.55364
255 3.65355
260 1.67072
265 6.98066
270 8.1372
275 5.53996
280 2.7512
285 5.20721
290 2.56737
295 4.72933
300 6.68253
305 4.12802
310 3.99184
315 5.50019
320 5.26185
325 6.31509
330 4.81013
335 4.17507
340 3.90557
345 4.51159
350 3.83667
355 5.4466
360 3.87704
365 9.64322
370 6.10117
375 4.64241
380 2.99117
385 4.89887
390 7.61061
395 3.8437
400 1.38233
405 1.8161
410 3.2557
415 5.21189
420 5.1847
425 3.53997
430 4.79239
435 4.20306
440 4.71435
445 3.74822
450 8.03312
455 3.85374
460 5.15905
465 3.71956
470 3.91953
475 1.76191
480 2.89409
485 2.28973
490 4.44935
495 4.62833
500 7.55
505 7.86623
510 4.8886
515 4.47366
520 8.99132
525 4.06159
530 4.85076
535 6.53699
540 5.62102
545 3.17252
550 6.20297
555 3.63035
560 3.55313
565 4.55699
570 5.74834
575 3.80299
580 3.50494
585 7.49451
590 5.33739
595 3.46919
600 0.394781
Ex : 218
200 2.79375
205 7.33023
210 5.08561
215 2.73921
220 1.8641
225 6.663
230 2.45434
235 2.92772
240 5.04146
245 3.43262
250 4.64776
255 8.40115
260 3.84146
265 1.8958
270 2.4339
275 1.76813
280 2.68605
285 5.02848
290 5.18503
295 3.54595
300 5.44552
305 3.2358
310 5.58877
315 2.96156
320 1.91119
325 3.41553
330 6.32405
335 3.82137
340 3.07632
345 3.23703
350 2.35124
355 5.23683
360 6.88192
365 5.69592
370 3.15266
375 4.92658
380 4.93626
385 2.67997
390 4.19975
395 4.59201
400 4.95936
405 9.17922
410 4.13461
415 4.69267
420 3.19841
425 2.54382
430 4.51233
435 4.01399
440 3.54698
445 7.45077
450 6.06929
455 4.84183
460 3.48975
465 2.74187
470 1.65254
475 2.82973
480 3.1669
485 3.66506
490 3.70949
495 6.13066
500 2.42602
505 3.77331
510 4.85442
515 6.08064
520 4.85544
525 3.72764
530 3.53685
535 2.9107
540 6.71903
545 7.16149
550 5.11531
555 4.6849
560 2.50184
565 3.89812
570 3.6794
575 5.92102
580 6.44269
585 4.66119
590 2.027
595 7.46304
600 0.849265
Ex : 223
200 3.01124
205 3.3456
210 4.0081
215 6.54876
220 3.59891
225 1.87394
230 2.29975
235 6.53374
240 3.02958
245 5.25702
250 2.63223
255 5.34486
260 5.37017
265 4.991
270 5.51065
275 4.85885
280 2.88878
285 5.97245
290 4.68917
295 4.14098
300 5.07748
305 2.61152
310 3.84775
315 5.33101
320 6.79471
325 4.43204
330 7.94075
335 4.06944
340 2.31963
345 3.7402
350 3.90001
355 2.84763
360 3.48379
365 3.76052
370 2.65412
375 2.80488
380 3.21759
385 5.1084
390 4.4674
395 5.29909
400 3.9206
405 5.68485
410 5.40756
415 4.31277
420 2.32149
425 2.06377
430 2.83701
435 3.7654
440 5.96866
445 3.69908
450 3.8942
455 3.40085
460 6.14218
465 5.26719
470 5.11349
475 5.56609
480 2.33148
485 5.15565
490 6.18436
495 2.93509
500 7.9681
505 5.11621
510 5.92981
515 6.51867
520 3.69406
525 7.35492
530 3.53854
535 4.05826
540 4.72782
545 5.24597
550 4.18666
555 5.95431
560 5.57533
565 3.84042
570 6.52055
575 4.10368
580 4.03315
585 2.6552
590 2.85618
595 3.50239
600 0.398558
Ex : 228
200 4.45506
205 4.02587
210 2.49846
215 4.09705
220 2.38893
225 2.39874
230 2.85429
235 5.21439
240 5.36679
245 3.16568
250 3.88933
255 6.12739
260 3.6954
265 5.37497
270 1.74578
275 3.08972
280 4.50568
285 5.20264
290 6.01054
295 3.42315
300 5.97695
305 3.271
310 3.55945
315 2.64791
320 5.87104
325 3.78908
330 3.3408
335 3.07549
340 3.35099
345 1.38977
350 1.65992
355 5.75124
360 5.49975
365 3.69388
370 3.28612
375 3.49871
380 3.56458
385 2.93692
390 4.82497
395 2.95379
400 8.01841
405 4.7824
410 2.92931
415 7.87702
420 3.98245
425 1.61047
430 3.86569
435 4.49495
440 2.55428
445 3.50843
450 6.11634
455 3.91299
460 3.56514
465 3.81266
470 5.76701
475 3.22771
480 3.02079
485 2.63266
490 4.82573
495 5.60051
500 4.58917
505 3.53424
510 2.48957
515 4.30287
520 4.34464
525 3.61747
530 4.2218
535 5.74841
540 3.85692
545 2.82157
550 5.92078
555 1.55997
560 4.04778
565 4.81009
570 3.6199
575 3.77733
580 2.70495
585 3.90569
590 3.09327
595 2.67396
600 0.304286
Ex : 233
200 6.09375
205 3.76333
210 2.7064
215 5.52728
220 2.99738
225 6.40708
230 7.16123
235 6.32523
240 2.49219
245 4.02329
250 1.93647
255 5.11162
260 5.02307
265 1.26473
270 2.75246
275 3.77363
280 3.52379
285 2.53684
290 4.59994
295 3.85052
300 2.86013
305 2.73156
310 1.76281
315 5.23366
320 4.26426
325 3.52299
330 5.17163
335 4.09258
340 4.83238
345 5.33151
350 5.53061
355 2.79666
360 5.38438
365 2.29796
370 4.44531
375 3.24504
380 4.35719
385 4.02117
390 3.07746
395 8.45679
400 3.04445
405 3.22179
410 3.66311
415 2.34624
420 3.83656
425 6.21152
430 4.54543
435 2.8174
440 2.31581
445 7.4356
450 3.18344
455 2.97776
460 2.42952
465 3.50515
470 2.81494
475 6.96188
480 5.29102
485 4.34947
490 2.05167
495 5.47192
500 2.39008
505 9.1198
510 3.34292
515 3.24866
520 1.66634
525 2.93011
530 5.37254
535 3.64049
540 1.66065
545 2.52622
550 5.27118
555 4.04452
560 8.92897
565 4.92496
570 3.04381
575 4.2353
580 4.24833
585 2.04042
590 6.28792
595 3.03833
600 0.34575
Ex : 238
200 2.83415
205 2.64828
210 1.63742
215 1.54635
220 4.97796
225 4.55657
230 3.94211
235 3.952
240 2.87676
245 2.02453
250 1.90482
255 6.0078
260 1.7588
265 1.30997
270 4.77749
275 2.62521
280 2.44724
285 3.20126
290 3.83994
295 6.71908
300 2.22858
305 2.48424
310 4.22773
315 4.02592
320 2.06979
325 1.2659
330 3.06382
335 4.09412
340 1.5831
345 2.11569
350 4.33394
355 4.33486
360 4.16156
365 4.82366
370 2.54802
375 2.54757
380 3.26033
385 3.43357
390 1.68772
395 1.59297
400 3.78173
405 2.22365
410 6.65524
415 2.61965
420 3.45232
425 3.97796
430 3.02267
435 4.33623
440 2.96408
445 1.3501
450 0.998429
455 1.86954
460 3.78739
465 2.88607
470 3.73073
475 1.80789
480 3.43404
485 2.26166
490 2.89852
495 4.01934
500 2.12262
505 5.55877
510 2.6128
515 2.61749
520 2.38914
525 2.84014
530 2.12011
535 1.02043
540 3.58822
545 4.60476
550 6.54133
555 6.32025
560 6.43433
565 5.82572
570 4.75275
575 4.14648
580 2.62918
585 5.8143
590 3.73094
595 3.38862
600 5.34835
Ex : 243
200 3.332
205 2.12924
210 3.85969
215 1.36973
220 5.17893
225 3.02062
230 1.13485
235 1.9468
240 1.5709
245 3.45229
250 3.66646
255 2.60752
260 4.29979
265 3.14791
270 3.54707
275 3.96002
280 2.00241
285 2.21327
290 2.42743
295 2.96193
300 1.45907
305 5.13255
310 2.43566
315 3.3242
320 1.48698
325 3.67741
330 3.06951
335 3.47158
340 2.42173
345 2.15495
350 1.30867
355 2.7786
360 2.41154
365 4.87965
370 2.62679
375 2.90647
380 3.1102
385 5.28344
390 3.97548
395 5.71591
400 2.81219
405 2.40785
410 2.47609
415 3.52867
420 2.04681
425 2.44843
430 3.20309
435 3.52274
440 2.83116
445 3.79189
450 2.95153
455 1.36357
460 1.60766
465 5.08117
470 1.98658
475 2.08558
480 3.60787
485 3.04683
490 2.55067
495 2.02971
500 3.96434
505 3.86987
510 3.10975
515 4.45799
520 2.99765
525 1.44614
530 2.12661
535 1.46323
540 2.9941
545 1.84101
550 3.85401
555 3.08592
560 1.71122
565 0.872415
570 1.8643
575 4.23212
580 4.09514
585 3.60091
590 1.92262
595 2.30025
600 40.584
Ex : 248
200 3.76619
205 2.88193
210 3.19471
215 2.32018
220 3.926
225 1.92377
230 1.26764
235 1.28764
240 1.79681
245 1.29251
250 1.45843
255 1.08439
260 2.38677
265 2.4714
270 3.4541
275 2.2024
280 1.70878
285 2.98814
290 2.29471
295 2.39458
300 1.93252
305 1.245
310 1.59467
315 1.58254
320 2.12481
325 1.3873
330 2.48998
335 2.54349
340 2.31806
345 3.4897
350 1.92163
355 2.95139
360 3.38315
365 4.45657
370 3.16895
375 3.55406
380 2.3475
385 3.51549
390 2.17554
395 3.93075
400 2.92615
405 3.2784
410 2.0883
415 1.91644
420 1.99049
425 3.0831
430 2.78872
435 2.8578
440 2.74049
445 1.70632
450 3.17794
455 2.55955
460 2.90356
465 3.43689
470 3.13989
475 2.43943
480 1.67542
485 3.21852
490 1.55959
495 2.89644
500 3.52858
505 2.1706
510 2.17848
515 1.75773
520 3.32489
525 1.22025
530 1.33195
535 2.45451
540 2.3157
545 2.14118
550 2.40638
555 2.25959
560 3.45058
565 4.18841
570 5.6677
575 2.61717
580 1.88168
585 0.932586
590 2.54019
595 2.06473
600 5.10908
Ex : 253
200 1.13165
205 3.74891
210 2.372
215 3.5893
220 1.72658
225 1.27678
230 2.44286
235 2.98498
240 2.40494
245 2.57883
250 3.344
255 1.22694
260 0.912073
265 1.1905
270 0.932034
275 2.72972
280 1.45838
285 4.6488
290 4.2354
295 2.09348
300 1.15978
305 1.16096
310 1.42114
315 1.61326
320 2.84977
325 2.20189
330 1.93942
335 1.54373
340 1.23655
345 2.20765
350 2.83994
355 2.49144
360 1.84542
365 1.7779
370 1.11873
375 1.60518
380 4.20945
385 3.10375
390 2.51447
395 2.26661
400 1.43701
405 2.91794
410 2.18886
415 2.6191
420 1.19931
425 4.2074
430 2.6161
435 1.92152
440 2.0389
445 1.64131
450 3.22183
455 2.9529
460 2.19502
465 1.58788
470 1.86063
475 2.19704
480 2.23245
485 2.31931
490 1.64598
495 3.21098
500 4.73957
505 2.79467
510 1.17367
515 2.18228
520 0.897349
525 1.42227
530 1.64478
535 2.86376
540 2.82337
545 3.2936
550 1.84492
555 1.85285
560 2.00398
565 2.15208
570 1.60056
575 0.974924
580 0.722659
585 1.87743
590 1.96812
595 1.97196
600 0.224401
Ex : 258
200 1.34483
205 0.435475
210 2.08094
215 2.32114
220 0.75825
225 2.3268
230 1.01635
235 0.700262
240 1.63105
245 0.90975
250 0.58691
255 0.916656
260 1.45481
265 2.71065
270 1.03032
275 1.13599
280 1.34197
285 1.85726
290 1.99584
295 2.30084
300 2.31822
305 1.27862
310 2.49923
315 1.97418
320 0.676966
325 1.786
330 1.47664
335 1.84642
340 2.55774
345 1.22999
350 1.45802
355 1.88875
360 2.46762
365 1.44577
370 0.81848
375 1.90601
380 2.10271
385 2.01376
390 1.85421
395 1.40808
400 1.96285
405 0.82873
410 1.80857
415 2.59918
420 1.96714
425 1.81096
430 2.60945
435 1.72944
440 2.73577
445 2.17375
450 2.33769
455 1.77719
460 1.57606
465 2.57672
470 1.511
475 1.13781
480 2.14794
485 1.79888
490 1.67644
495 3.18222
500 1.37977
505 1.6479
510 1.59757
515 2.52595
520 1.82353
525 0.755613
530 2.06939
535 1.28846
540 1.89828
545 1.53502
550 2.51637
555 1.35641
560 1.95055
565 1.95845
570 0.934542
575 1.65215
580 1.47148
585 1.1532
590 1.01945
595 0.796119
600 0.0905953
Ex : 263
200 0.811189
205 1.36437
210 1.0708
215 0.543112
220 0.82954
225 1.21323
230 0.622728
235 0.847898
240 0.467757
245 1.2936
250 1.39573
255 1.48347
260 0.995414
265 1.31161
270 1.24333
275 1.34296
280 1.27248
285 0.663709
290 1.08084
295 1.41041
300 0.702944
305 0.679342
310 0.562121
315 2.24313
320 1.23215
325 1.04974
330 1.5264
335 1.10491
340 1.15653
345 1.38254
350 1.37723
355 1.80657
360 1.4587
365 1.37317
370 1.60726
375 2.30278
380 0.707445
385 1.34451
390 1.21362
395 1.28252
400 0.883923
405 2.16943
410 2.23178
415 1.7061
420 1.05862
425 1.91491
430 1.52305
435 1.06109
440 1.2676
445 0.854739
450 1.14431
455 0.783377
460 1.50245
465 2.17157
470 2.15111
475 0.907902
480 0.998897
485 0.793304
490 0.989094
495 2.05002
500 1.3892
505 1.38795
510 1.3903
515 1.93694
520 1.46517
525 1.54035
530 0.889127
535 0.79793
540 1.39834
545 0.887642
550 1.19739
555 1.14273
560 0.762599
565 0.913259
570 0.960008
575 1.35678
580 1.02021
585 1.23171
590 1.31542
595 1.61351
600 0.183611
Ex : 268
200 0.896648
205 0.989458
210 0.427174
215 1.37301
220 1.76249
225 1.0682
230 0.604714
235 1.21696
240 1.66266
245 1.17857
250 0.486389
255 0.769567
260 1.02627
265 0.862613
270 0.684751
275 0.435622
280 0.585217
285 1.11393
290 1.44921
295 1.4561
300 1.30387
305 0.838314
310 0.881903
315 0.615478
320 0.943708
325 1.43054
330 1.05881
335 1.26579
340 1.21149
345 1.63721
350 0.997742
355 0.970447
360 0.523421
365 0.961993
370 1.40278
375 1.31777
380 1.13407
385 1.55926
390 1.20563
395 0.956657
400 1.08479
405 1.16004
410 1.34471
415 1.84231
420 0.799209
425 0.596822
430 1.33905
435 1.53201
440 0.740625
445 1.33396
450 0.684024
455 0.859276
460 1.46318
465 0.657476
470 1.36735
475 1.06261
480 1.15216
485 1.00986
490 1.08134
495 1.0202
500 0.806722
505 0.887676
510 1.06519
515 1.51418
520 0.831406
525 1.09236
530 0.669662
535 0.365732
540 1.83738
545 0.919029
550 1.29603
555 1.39751
560 1.12193
565 0.628407
570 0.375564
575 1.09565
580 1.12425
585 1.08992
590 0.61361
595 1.17179
600 0.133345
Ex : 273
200 0.703495
205 0.444962
210 1.0077
215 0.33399
220 1.02268
225 0.535165
230 0.465993
235 0.25185
240 0.637426
245 0.608077
250 0.597105
255 0.42243
260 0.592738
265 0.604725
270 0.539393
275 0.546659
280 0.963214
285 1.38812
290 0.810431
295 0.654988
300 0.990345
305 1.10581
310 0.952026
315 0.800967
320 0.786886
325 1.21327
330 0.740563
335 1.3058
340 0.764516
345 0.952222
350 0.97053
355 0.507638
360 0.729195
365 0.655999
370 0.903905
375 0.956802
380 1.195
385 1.00626
390 1.32788
395 1.38084
400 1.38274
405 1.29348
410 0.953283
415 1.73135
420 1.55759
425 1.06247
430 1.16769
435 0.5018
440 0.807582
445 0.895919
450 0.732252
455 0.872494
460 0.810044
465 0.55764
470 0.66499
475 1.36406
480 1.08797
485 0.854925
490 1.35912
495 0.940523
500 0.833293
505 0.784428
510 0.998605
515 0.428355
520 0.676102
525 1.17997
530 1.99176
535 0.929061
540 0.735186
545 1.43151
550 0.819711
555 1.27186
560 0.863598
565 0.646829
570 0.870094
575 1.26007
580 1.16915
585 0.491631
590 1.04303
595 0.889263
600 0.101195
Ex : 278
200 0.799637
205 0.549043
210 0.690413
215 0.377762
220 0.545277
225 0.303156
230 0.555988
235 0.691444
240 0.842031
245 0.434351
250 0.771789
255 0.313435
260 0.474261
265 0.875545
270 0.92536
275 0.91244
280 1.20458
285 0.915961
290 0.326392
295 0.48506
300 0.875098
305 0.733978
310 0.765404
315 0.704929
320 0.333654
325 1.1632
330 0.883485
335 0.714187
340 0.772169
345 0.2902
350 0.416569
355 0.475391
360 0.495165
365 0.505907
370 0.900031
375 1.02602
380 0.452429
385 0.647952
390 0.568942
395 0.73022
400 0.789795
405 0.87012
410 0.490369
415 1.11
420 0.717925
425 0.418805
430 0.654569
435 0.943586
440 0.975661
445 0.83228
450 1.21702
455 0.894301
460 0.861139
465 0.679771
470 0.966826
475 0.413977
480 1.01733
485 0.872244
490 0.599837
495 0.462579
500 0.32968
505 1.00222
510 0.653055
515 0.907672
520 0.76733
525 0.79839
530 0.497743
535 0.879545
540 1.10009
545 0.713024
550 0.706316
555 1.26847
560 0.42098
565 0.833496
570 1.24132
575 0.417843
580 0.969104
585 1.08177
590 0.542329
595 0.683039
600 2.66817
Ex : 283
200 0.276423
205 0.43802
210 0.670522
215 0.627025
220 0.457561
225 0.602539
230 0.239198
235 0.247774
240 0.451142
245 0.44116
250 0.463541
255 0.187592
260 0.687165
265 0.496608
270 0.581719
275 0.517572
280 0.885434
285 0.521138
290 0.371846
295 0.492397
300 0.633127
305 0.298969
310 0.340732
315 0.406
320 0.413522
325 0.656031
330 0.753649
335 0.409061
340 0.354269
345 0.844401
350 0.585376
355 0.811078
360 0.760113
365 0.944419
370 0.595253
375 0.836708
380 0.58829
385 1.21763
390 0.711278
395 0.567272
400 1.24705
405 0.751426
410 0.686121
415 1.0185
420 0.605187
425 0.554249
430 0.506844
435 0.915186
440 0.912822
445 0.719757
450 0.642524
455 0.820002
460 0.447131
465 0.615072
470 0.331112
475 0.65048
480 0.793561
485 0.803509
490 0.738378
495 0.588706
500 0.618176
505 0.56053
510 0.444254
515 0.493995
520 0.75361
525 0.870529
530 0.526352
535 0.591083
540 0.263527
545 0.314192
550 0.266619
555 1.21933
560 1.23332
565 0.722212
570 0.543359
575 0.480152
580 0.286518
585 0.232824
590 0.509515
595 0.285574
600 0.0324972
Ex : 288
200 0.455446
205 0.308113
210 0.229352
215 0.489548
220 0.599693
225 0.247166
230 0.467297
235 0.212948
240 0.656919
245 0.320985
250 0.400083
255 0.407175
260 0.3477
265 0.336803
270 0.259324
275 0.714938
280 0.344823
285 0.669552
290 0.942432
295 0.378306
300 0.572985
305 0.278072
310 0.780304
315 0.239815
320 0.31222
325 0.439059
330 0.44926
335 0.727641
340 0.692994
345 0.376674
350 0.818085
355 0.364961
360 0.587576
365 0.416826
370 0.800762
375 0.479906
380 0.40469
385 0.616667
390 0.456871
395 0.641307
400 0.472019
405 0.566257
410 0.563384
415 0.623644
420 1.03915
425 0.735807
430 0.361372
435 0.742911
440 0.684603
445 0.690623
450 0.721999
455 0.785242
460 0.479332
465 0.424683
470 0.543673
475 0.404968
480 0.494731
485 0.649158
490 0.550033
495 0.537583
500 0.429231
505 0.613246
510 0.61446
515 0.607657
520 0.685128
525 0.539518
530 0.542589
535 0.840174
540 0.591168
545 0.248845
550 0.32966
555 0.502854
560 0.485723
565 0.51008
570 0.644029
575 1.08094
580 0.352764
585 0.366493
590 0.881822
595 0.470892
600 0.0535857
Ex : 293
200 0.130203
205 0.394483
210 0.238527
215 0.0771173
220 0.433168
225 0.712168
230 0.527719
235 0.203325
240 0.335328
245 0.331057
250 0.293164
255 0.358192
260 0.484804
265 0.264385
270 0.252349
275 0.246347
280 0.184201
285 0.51746
290 0.33834
295 0.27422
300 0.176125
305 0.22629
310 0.290713
315 0.46999
320 0.286247
325 0.517379
330 0.498882
335 0.286598
340 0.365891
345 0.395457
350 0.592251
355 0.679639
360 0.391815
365 0.818829
370 0.633387
375 0.464627
380 0.42472
385 0.596708
390 0.86833
395 0.459648
400 0.730769
405 0.853689
410 0.516481
415 0.677889
420 0.460987
425 0.535929
430 0.59442
435 0.460931
440 0.464914
445 0.473308
450 0.308686
455 0.605974
460 0.446066
465 0.663381
470 0.883569
475 0.461012
480 0.863274
485 0.634213
490 0.40043
495 0.362441
500 0.486706
505 0.207211
510 0.222928
515 0.507197
520 0.275933
525 0.431209
530 0.620614
535 0.679505
540 0.296381
545 0.505485
550 0.652903
555 0.263893
560 0.277806
565 0.248662
570 0.330368
575 0.768274
580 0.880669
585 0.424656
590 0.84771
595 0.212285
600 0.0241572
Ex : 298
200 0.341475
205 0.55934
210 0.585308
215 0.345453
220 0.423743
225 0.386137
230 0.241515
235 0.207563
240 0.20425
245 0.351589
250 0.583483
255 0.376159
260 0.311004
265 0.417546
270 0.389189
275 0.425614
280 0.34682
285 0.246807
290 0.191939
295 0.293221
300 0.28162
305 0.251132
310 0.172197
315 0.182258
320 0.336509
325 0.341675
330 0.527435
335 0.438641
340 0.332598
345 0.578007
350 0.518138
355 0.534108
360 0.530332
365 0.445404
370 0.447285
375 0.412725
380 0.352232
385 0.481351
390 0.720246
395 0.558167
400 0.447539
405 0.605937
410 0.455437
415 0.450332
420 0.502964
425 0.533435
430 0.357616
435 0.393779
440 0.504868
445 0.320531
450 0.371896
455 0.337035
460 0.59284
465 0.605501
470 0.295914
475 0.435524
480 0.607005
485 0.299348
490 0.523061
495 0.727058
500 0.41778
505 0.328583
510 0.29775
515 0.497051
520 0.439102
525 0.279266
530 0.532459
535 0.353545
540 0.338375
545 0.225161
550 0.296269
555 0.192114
560 0.346053
565 0.343115
570 0.178352
575 0.130404
580 0.240726
585 0.388334
590 0.435836
595 0.406785
600 0.0462905
Ex : 303
200 0.143253
205 0.219716
210 0.240012
215 0.341943
220 0.224183
225 0.15759
230 0.287663
235 0.274363
240 0.234473
245 0.335527
250 0.194094
255 0.250534
260 0.0976563
265 0.0992378
270 0.422566
275 0.329275
280 0.250061
285 0.333211
290 0.403951
295 0.66053
300 0.210504
305 0.247708
310 0.156618
315 0.170067
320 0.132696
325 0.313693
330 0.365324
335 0.21782
340 0.446586
345 0.326218
350 0.41824
355 0.474207
360 0.416437
365 0.34279
370 0.628158
375 0.576062
380 0.417496
385 0.717393
390 0.363724
395 0.749147
400 0.445259
405 0.363447
410 0.654337
415 0.556544
420 0.492152
425 0.526257
430 0.458376
435 0.714059
440 0.425635
445 0.357221
450 0.426855
455 0.388333
460 0.659709
465 0.524591
470 0.560241
475 0.571886
480 0.651661
485 0.414109
490 0.468974
495 0.404565
500 0.17274
505 0.417104
510 0.390693
515 0.284118
520 0.35433
525 0.382133
530 0.229417
535 0.463371
540 0.169896
545 0.41869
550 0.51269
555 0.518105
560 0.428093
565 0.259478
570 0.374811
575 0.6665
580 0.161698
585 0.411647
590 0.306599
595 0.357762
600 0.300461
Ex : 308
200 0.170858
205 0.164492
210 0.266806
215 0.19059
220 0.222431
225 0.312043
230 0.188626
235 0.189175
240 0.116467
245 0.263709
250 0.218216
255 0.197667
260 0.275029
265 0.386398
270 0.279594
275 0.377932
280 0.154795
285 0.182798
290 0.239313
295 0.396951
300 0.298373
305 0.391419
310 0.142767
315 0.137526
320 0.280862
325 0.213476
330 0.395451
335 0.369026
340 0.195458
345 0.414563
350 0.362436
355 0.365721
360 0.495414
365 0.408147
370 0.360335
375 0.492813
380 0.427315
385 0.473137
390 0.818989
395 0.626218
400 0.331601
405 0.426823
410 0.541078
415 0.572927
420 0.319899
425 0.402153
430 0.532551
435 0.448721
440 0.449468
445 0.399443
450 0.433708
455 0.375361
460 0.296048
465 0.406192
470 0.339134
475 0.427213
480 0.303962
485 0.346839
490 0.305921
495 0.439035
500 0.471023
505 0.369214
510 0.421552
515 0.470208
520 0.303726
525 0.250944
530 0.187428
535 0.396771
540 0.354507
545 0.223006
550 0.243058
555 0.119303
560 0.358074
565 0.590488
570 0.369809
575 0.296971
580 0.334553
585 0.496088
590 0.393612
595 0.121369
600 0.0138114
Ex : 313
200 0.345749
205 0.348341
210 0.181747
215 0.232636
220 0.182735
225 0.145193
230 0.20424
235 0.273609
240 0.177932
245 0.294057
250 0.206261
255 0.148031
260 0.142592
265 0.195255
270 0.144604
275 0.191944
280 0.140166
285 0.0767047
290 0.181593
295 0.166554
300 0.184896
305 0.206835
310 0.216688
315 0.238149
320 0.297885
325 0.305152
330 0.304021
335 0.336951
340 0.357824
345 0.497044
350 0.412447
355 0.406332
360 0.53599
365 0.479673
370 0.346755
375 0.631981
380 0.806684
385 0.60755
390 0.773777
395 1.06536
400 1.07035
405 0.947707
410 0.707392
415 0.651237
420 0.812701
425 0.876432
430 0.637954
435 0.568161
440 0.530836
445 0.533573
450 0.661452
455 0.54323
460 0.687723
465 0.626012
470 0.587964
475 0.540218
480 0.302265
485 0.356158
490 0.386452
495 0.481497
500 0.401169
505 0.416162
510 0.333728
515 0.157447
520 0.281215
525 0.260917
530 0.413921
535 0.404447
540 0.291267
545 0.420045
550 0.204934
555 0.231903
560 0.41199
565 0.159524
570 0.277483
575 0.337544
580 0.163358
585 0.143357
590 0.132283
595 0.224035
600 0.0254944
Ex : 318
200 0.192668
205 0.250429
210 0.119526
215 0.21676
220 0.239547
225 0.368591
230 0.179761
235 0.281273
240 0.205594
245 0.23572
250 0.190003
255 0.152786
260 0.109203
265 0.0894984
270 0.124471
275 0.12287
280 0.11844
285 0.073759
290 0.0925405
295 0.100212
300 0.13187
305 0.21465
310 0.347098
315 0.90942
320 0.566445
325 0.523146
330 0.556471
335 0.600688
340 0.637852
345 1.36633
350 1.92885
355 2.70431
360 3.00981
365 3.86908
370 4.39834
375 6.01926
380 7.32085
385 7.5042
390 7.93075
395 9.00181
400 9.45192
405 8.79208
410 9.2413
415 9.21118
420 9.0852
425 8.79842
430 8.63411
435 8.08914
440 7.75975
445 7.33353
450 6.67201
455 5.9309
460 5.62249
465 5.12686
470 4.76277
475 4.18798
480 3.53818
485 3.71935
490 3.29584
495 2.82963
500 2.40659
505 2.09852
510 1.66616
515 1.58979
520 1.19454
525 1.17664
530 0.961922
535 0.827221
540 0.775569
545 0.504628
550 0.634666
555 0.51987
560 0.524351
565 0.37066
570 0.314264
575 0.220885
580 0.337537
585 0.187106
590 0.0984579
595 0.199477
600 0.0226998
Ex : 323
200 0.262595
205 0.20904
210 0.139724
215 0.0809425
220 0.102292
225 0.146983
230 0.159489
235 0.200313
240 0.131118
245 0.157926
250 0.241329
255 0.216753
260 0.203446
265 0.152154
270 0.203208
275 0.135126
280 0.147351
285 0.321632
290 0.149448
295 0.188848
300 0.165801
305 0.122715
310 0.222508
315 8.15403
320 38.0274
325 15.6283
330 3.15341
335 2.75378
340 3.83049
345 5.61035
350 8.38671
355 12.1182
360 14.644
365 17.3805
370 21.1832
375 23.9372
380 27.4218
385 29.8621
390 33.0512
395 34.4181
400 35.7393
405 36.6347
410 36.4595
415 36.4679
420 35.2149
425 35.1872
430 32.9545
435 31.0333
440 30.5214
445 28.0927
450 27.0403
455 24.7599
460 23.2628
465 21.5292
470 19.7242
475 17.8173
480 17.2804
485 14.9109
490 13.5234
495 11.719
500 11.0816
505 9.2086
510 8.34165
515 7.05501
520 6.03903
525 5.00877
530 4.14897
535 3.83673
540 2.98862
545 2.38452
550 2.36324
555 1.79584
560 1.67627
565 1.52571
570 0.802947
575 0.788727
580 0.623191
585 0.434504
590 0.388437
595 0.221017
600 0.0251509
Ex : 328
200 0.0857387
205 0.31612
210 0.117959
215 0.138714
220 0.0667538
225 0.154278
230 0.140764
235 0.231675
240 0.108681
245 0.235541
250 0.101756
255 0.0894451
260 0.135596
265 0.120635
270 0.157643
275 0.295547
280 0.308846
285 0.198459
290 0.231012
295 0.18834
300 0.17044
305 0.0861734
310 0.179346
315 1.79454
320 86.2267
325 207.386
330 61.4532
335 10.469
340 6.45212
345 7.04143
350 9.13675
355 13.0348
360 18.1742
365 21.2183
370 23.8492
375 25.8967
380 29.6823
385 33.1178
390 36.2303
395 38.6161
400 39.6888
405 39.6611
410 39.6115
415 39.7009
420 37.6587
425 36.8166
430 35.7761
435 33.402
440 32.1893
445 29.9712
450 28.4498
455 26.3035
460 24.449
465 22.8858
470 21.2883
475 19.0246
480 17.0932
485 15.8313
490 13.9979
495 12.5079
500 10.8337
505 9.81533
510 8.70634
515 7.66673
520 6.7509
525 5.61911
530 5.02233
535 4.20064
540 3.19879
545 2.96624
550 2.31642
555 1.67494
560 1.86618
565 1.53096
570 0.973437
575 0.889622
580 0.758427
585 0.65873
590 0.569618
595 0.42844
600 0.240367
Ex : 333
200 0.0962473
205 0.0694392
210 0.19208
215 0.108254
220 0.203696
225 0.184165
230 0.19124
235 0.247678
240 0.12578
245 0.170999
250 0.131951
255 0.132642
260 0.0936164
265 0.210646
270 0.141645
275 0.198384
280 0.147439
285 0.236554
290 0.255505
295 0.167187
300 0.124996
305 0.120932
310 0.13351
315 0.270107
320 11.6116
325 243.694
330 411.367
335 108.265
340 16.1409
345 6.678
350 5.90787
355 6.52502
360 10.312
365 15.1461
370 15.9887
375 15.694
380 17.2729
385 19.9068
390 21.6907
395 22.8618
400 23.5902
405 24.3487
410 24.3338
415 24.1732
420 22.896
425 21.9697
430 21.0305
435 19.6825
440 18.9943
445 17.4335
450 16.0723
455 14.8599
460 14.3627
465 12.8085
470 11.937
475 10.8156
480 10.1813
485 9.15631
490 8.03742
495 7.14458
500 6.40231
505 5.56072
510 4.9391
515 4.28968
520 3.71465
525 3.28607
530 2.78108
535 2.51992
540 2.0198
545 1.73847
550 1.69765
555 1.4428
560 1.08527
565 1.00796
570 1.02007
575 0.672558
580 0.479196
585 0.345049
590 0.406048
595 0.459105
600 1.62291
Ex : 338
200 0.21965
205 0.174481
210 0.156352
215 0.116506
220 0.226908
225 0.147368
230 0.174783
235 0.0885091
240 0.141146
245 0.217551
250 0.133226
255 0.134109
260 0.120003
265 0.145744
270 0.0916604
275 0.118615
280 0.118437
285 0.240494
290 0.177617
295 0.111878
300 0.0928222
305 0.121299
310 0.285232
315 0.260993
320 0.336922
325 23.334
330 365.858
335 537.338
340 133.354
345 18.1408
350 5.41136
355 4.1494
360 3.85404
365 6.45724
370 10.7968
375 10.5002
380 9.79019
385 11.4572
390 12.888
395 13.9108
400 13.6295
405 14.3147
410 14.2178
415 14.8812
420 13.9963
425 12.951
430 12.3211
435 11.5588
440 10.9414
445 11.1334
450 9.27915
455 9.30921
460 8.23512
465 7.27004
470 7.16448
475 6.24913
480 5.36763
485 5.09378
490 4.57327
495 4.2371
500 4.01118
505 3.13788
510 2.94201
515 2.5304
520 2.15119
525 2.00195
530 1.82075
535 1.69008
540 1.37247
545 1.32193
550 1.11739
555 0.845105
560 0.817458
565 0.789427
570 0.675429
575 0.534323
580 0.515146
585 0.357237
590 0.332057
595 0.253834
600 0.161155
Ex : 343
200 0.0694223
205 0.175832
210 0.204918
215 0.0869386
220 0.102719
225 0.202581
230 0.117327
235 0.115257
240 0.227548
245 0.16608
250 0.104439
255 0.103975
260 0.124393
265 0.128694
270 0.0984477
275 0.143519
280 0.269328
285 0.175291
290 0.166418
295 0.116639
300 0.139566
305 0.198344
310 0.276142
315 0.202154
320 0.217667
325 0.554966
330 27.4252
335 421.733
340 613.484
345 146.953
350 19.3679
355 5.21116
360 3.25637
365 2.45684
370 3.46292
375 7.47062
380 9.271
385 9.78069
390 10.8196
395 10.8989
400 10.2041
405 10.7136
410 12.0704
415 12.533
420 11.2787
425 10.4351
430 9.55252
435 9.27688
440 9.00895
445 8.92792
450 7.93269
455 7.46711
460 6.69255
465 6.2791
470 5.62377
475 5.32211
480 5.0447
485 4.14573
490 4.02563
495 3.62649
500 3.19903
505 2.9264
510 2.62029
515 2.29761
520 1.80539
525 1.78775
530 1.58614
535 1.47429
540 1.35297
545 0.908574
550 1.00984
555 0.887363
560 0.935452
565 0.822098
570 0.668138
575 0.629676
580 0.45482
585 0.345857
590 0.373249
595 0.380492
600 0.648073
Ex : 348
200 0.118652
205 0.0994682
210 0.0823993
215 0.0950492
220 0.0698081
225 0.0891097
230 0.193223
235 0.080393
240 0.120452
245 0.101983
250 0.0635493
255 0.0865381
260 0.195111
265 0.125496
270 0.136976
275 0.193354
280 0.153707
285 0.0725261
290 0.152204
295 0.172565
300 0.178465
305 0.106922
310 0.135723
315 0.144972
320 0.205545
325 0.258549
330 0.574134
335 28.1819
340 436.064
345 657.613
350 165.713
355 21.2914
360 4.78657
365 2.84099
370 1.96969
375 2.5943
380 7.17867
385 12.1746
390 14.153
395 13.2097
400 11.8157
405 12.0552
410 13.8228
415 15.2324
420 14.0431
425 11.871
430 11.1972
435 10.8033
440 10.7461
445 9.86555
450 8.55369
455 7.97568
460 7.36011
465 6.81784
470 6.4889
475 5.62051
480 5.03503
485 4.69905
490 4.352
495 3.88449
500 3.43846
505 3.18793
510 3.00584
515 2.47857
520 1.97945
525 1.94571
530 1.78362
535 1.4992
540 1.38483
545 1.11564
550 1.0432
555 0.95973
560 0.875437
565 0.741718
570 0.614489
575 0.614762
580 0.46431
585 0.398469
590 0.381867
595 0.357821
600 0.255389
Ex : 353
200 0.0431645
205 0.0901543
210 0.158164
215 0.115254
220 0.0651307
225 0.0899711
230 0.130503
235 0.0901689
240 0.180911
245 0.11239
250 0.103517
255 0.0687099
260 0.168017
265 0.163719
270 0.235658
275 0.107802
280 0.15799
285 0.170583
290 0.0900202
295 0.0796022
300 0.104241
305 0.126069
310 0.0693074
315 0.155751
320 0.143594
325 0.313813
330 0.329767
335 0.656373
340 29.8583
345 452.173
350 655.067
355 161.442
360 20.5021
365 4.5621
370 2.41374
375 2.29709
380 3.43343
385 9.02927
390 16.5299
395 17.0265
400 14.0598
405 13.4523
410 14.8829
415 16.089
420 15.6353
425 13.7802
430 11.928
435 11.2342
440 11.8382
445 11.1295
450 9.99234
455 8.82817
460 7.37793
465 7.28502
470 6.78499
475 6.08651
480 5.58241
485 5.26736
490 4.79442
495 4.16131
500 3.91395
505 3.19821
510 2.92257
515 2.62372
520 2.40918
525 2.28927
530 1.66252
535 1.77045
540 1.65647
545 1.46299
550 1.18575
555 0.966671
560 0.971142
565 0.809238
570 0.724498
575 0.463397
580 0.452439
585 0.38518
590 0.282552
595 0.298405
600 0.0339574
Ex : 358
200 0.0508518
205 0.0696522
210 0.142255
215 0.0683779
220 0.0852473
225 0.0911593
230 0.138321
235 0.100347
240 0.0845668
245 0.0554458
250 0.0387691
255 0.159187
260 0.116142
265 0.100775
270 0.0963511
275 0.100288
280 0.133239
285 0.0531667
290 0.108388
295 0.0978182
300 0.0920881
305 0.169005
310 0.135844
315 0.0930814
320 0.128572
325 0.257752
330 0.190108
335 0.390744
340 0.656749
345 28.4919
350 440.214
355 674.465
360 167.397
365 21.0039
370 4.34395
375 2.79925
380 3.47091
385 6.22913
390 11.7219
395 16.9047
400 15.1271
405 13.4114
410 13.9662
415 15.6476
420 14.8159
425 12.6321
430 11.6003
435 11.2138
440 10.9988
445 10.8882
450 9.68195
455 8.48302
460 7.50318
465 7.18713
470 6.64763
475 6.05526
480 5.44641
485 5.24614
490 4.64408
495 4.20291
500 3.78204
505 3.56499
510 3.44773
515 2.68299
520 2.37715
525 2.29226
530 1.69352
535 1.73169
540 1.44564
545 1.43018
550 1.21698
555 0.910592
560 0.861163
565 0.667092
570 0.623982
575 0.540227
580 0.453812
585 0.454503
590 0.339356
595 0.384807
600 0.0437895
Ex : 363
200 0.0829586
205 0.110298
210 0.146463
215 0.105541
220 0.0707371
225 0.0888262
230 0.0642012
235 0.0941094
240 0.120304
245 0.109556
250 0.064865
255 0.0508383
260 0.0675172
265 0.088113
270 0.054926
275 0.160382
280 0.126138
285 0.0736379
290 0.12587
295 0.0678314
300 0.14866
305 0.0429318
310 0.112317
315 0.0886722
320 0.166679
325 0.143876
330 0.168068
335 0.294037
340 0.356245
345 0.738674
350 25.6886
355 432.168
360 679.417
365 176.044
370 22.0359
375 4.86125
380 4.64433
385 8.33807
390 12.019
395 13.4938
400 15.6303
405 17.2574
410 17.4579
415 17.507
420 16.211
425 13.4359
430 12.8981
435 12.0285
440 12.0701
445 10.9312
450 10.1258
455 9.01127
460 8.21867
465 7.8576
470 7.10722
475 6.86951
480 6.01295
485 5.91257
490 5.01755
495 4.71774
500 4.14056
505 3.50007
510 3.4322
515 2.90294
520 2.69295
525 2.52561
530 2.23512
535 1.92888
540 1.51506
545 1.45546
550 1.43658
555 1.05936
560 0.931815
565 0.879916
570 0.767849
575 0.61533
580 0.522829
585 0.340348
590 0.385281
595 0.280714
600 0.35984
Ex : 368
200 0.058843
205 0.0911248
210 0.0702696
215 0.116101
220 0.0775547
225 0.0976146
230 0.128272
235 0.106212
240 0.101151
245 0.0710177
250 0.101418
255 0.110833
260 0.148291
265 0.0792976
270 0.124104
275 0.123666
280 0.0942851
285 0.105032
290 0.0682615
295 0.0441832
300 0.107826
305 0.0904065
310 0.0657127
315 0.0808345
320 0.0981148
325 0.111179
330 0.164442
335 0.209341
340 0.230244
345 0.293867
350 0.758139
355 22.2143
360 422.898
365 702.034
370 186.054
375 23.7872
380 6.80391
385 9.92148
390 15.1332
395 16.5544
400 15.6529
405 18.1864
410 22.3632
415 23.167
420 21.2956
425 17.1562
430 15.4061
435 14.4618
440 14.597
445 13.4534
450 12.0953
455 10.7163
460 9.44984
465 9.30572
470 8.41645
475 7.54206
480 7.06829
485 6.3867
490 5.6327
495 5.09896
500 4.79422
505 4.31846
510 3.71781
515 3.21639
520 3.18
525 2.67834
530 2.29949
535 2.03447
540 1.68479
545 1.49887
550 1.28121
555 1.16554
560 0.899467
565 0.952929
570 0.79648
575 0.597193
580 0.41022
585 0.335027
590 0.361667
595 0.278959
600 0.466641
Ex : 373
200 0.0720401
205 0.10705
210 0.0935337
215 0.0641785
220 0.0588625
225 0.0755869
230 0.086109
235 0.0423731
240 0.0686397
245 0.100914
250 0.0534258
255 0.0753202
260 0.0632371
265 0.186587
270 0.129506
275 0.0820275
280 0.0821257
285 0.0625514
290 0.0987976
295 0.104905
300 0.0759804
305 0.0676146
310 0.0973542
315 0.11443
320 0.135956
325 0.146391
330 0.151186
335 0.151972
340 0.168791
345 0.335167
350 0.443334
355 0.783411
360 25.7236
365 427.913
370 693.655
375 184.84
380 24.5538
385 9.39208
390 14.741
395 18.0628
400 16.0542
405 15.1397
410 19.2554
415 24.4601
420 23.1299
425 18.248
430 15.3969
435 14.1059
440 14.3795
445 13.7583
450 11.9645
455 10.74
460 9.44425
465 8.68441
470 8.47843
475 7.68449
480 7.0937
485 6.18604
490 5.79075
495 5.40578
500 4.67532
505 4.19713
510 3.8787
515 3.36716
520 3.05859
525 2.52446
530 2.31351
535 2.11044
540 1.91259
545 1.56832
550 1.52848
555 1.18515
560 1.17033
565 0.940994
570 0.73273
575 0.687162
580 0.499408
585 0.370797
590 0.334794
595 0.331659
600 0.596011
Ex : 378
200 0.110202
205 0.0352095
210 0.0540792
215 0.0678735
220 0.0564693
225 0.0589306
230 0.0514187
235 0.0730678
240 0.0583121
245 0.0779587
250 0.0781102
255 0.0893321
260 0.0776876
265 0.0672861
270 0.0839701
275 0.0670265
280 0.0492564
285 0.0599849
290 0.0539356
295 0.0648657
300 0.0696457
305 0.0821744
310 0.091464
315 0.0656971
320 0.0809648
325 0.100186
330 0.0992909
335 0.166195
340 0.161387
345 0.226936
350 0.281078
355 0.312708
360 0.774439
365 24.3172
370 436.301
375 720.803
380 191.987
385 27.9653
390 13.0167
395 13.6058
400 12.079
405 11.2412
410 12.7504
415 16.0691
420 18.4483
425 15.4767
430 12.3758
435 11.6276
440 11.3545
445 10.6905
450 9.52729
455 8.21912
460 7.76195
465 7.51431
470 6.87161
475 6.5583
480 6.05041
485 5.69913
490 5.29386
495 4.73051
500 4.27803
505 3.92646
510 3.49009
515 3.09417
520 2.73788
525 2.68125
530 2.24432
535 1.96518
540 1.78844
545 1.6772
550 1.34454
555 1.17889
560 1.01727
565 0.953377
570 0.729645
575 0.652771
580 0.43271
585 0.335037
590 0.231716
595 0.283021
600 0.0322068
Ex : 383
200 0.0519261
205 0.0568634
210 0.0819654
215 0.0935913
220 0.0798351
225 0.08038
230 0.105067
235 0.0665458
240 0.0962852
245 0.0803538
250 0.0480869
255 0.084743
260 0.0871508
265 0.0898606
270 0.0727982
275 0.08633
280 0.0600275
285 0.110171
290 0.0633057
295 0.121345
300 0.150985
305 0.0496721
310 0.073424
315 0.0664135
320 0.106971
325 0.0977636
330 0.129774
335 0.092386
340 0.15297
345 0.148496
350 0.228639
355 0.367093
360 0.361109
365 0.702098
370 22.7233
375 434.594
380 747.246
385 206.319
390 33.8431
395 14.347
400 11.1828
405 11.6145
410 13.4276
415 14.7314
420 13.9633
425 14.0374
430 13.5879
435 12.4598
440 11.8633
445 10.747
450 9.04117
455 8.10157
460 7.67912
465 7.30485
470 6.83964
475 6.56202
480 6.0597
485 5.39606
490 4.86248
495 4.82652
500 4.41148
505 3.81907
510 3.48468
515 3.31508
520 2.88657
525 2.60707
530 2.21432
535 2.06675
540 1.78191
545 1.59622
550 1.47001
555 1.26704
560 1.00121
565 0.993338
570 0.74374
575 0.610921
580 0.561678
585 0.381292
590 0.326121
595 0.231975
600 0.562324
Ex : 388
200 0.0770416
205 0.04755
210 0.068694
215 0.063225
220 0.0883074
225 0.0812402
230 0.081558
235 0.113942
240 0.134735
245 0.0689435
250 0.0712612
255 0.0598584
260 0.100858
265 0.0838402
270 0.115386
275 0.132296
280 0.0658244
285 0.0661726
290 0.133807
295 0.129921
300 0.0780558
305 0.0847574
310 0.114637
315 0.137572
320 0.0970883
325 0.0711587
330 0.129424
335 0.094198
340 0.126836
345 0.151749
350 0.234031
355 0.20384
360 0.285671
365 0.4583
370 0.757624
375 25.5303
380 454.357
385 760.89
390 211.493
395 37.873
400 16.0574
405 14.289
410 16.7266
415 18.1815
420 16.7897
425 14.615
430 15.1258
435 16.1734
440 14.6897
445 13.3419
450 11.1788
455 9.43644
460 8.77576
465 8.37201
470 7.55675
475 7.38867
480 6.49627
485 6.04226
490 5.22269
495 5.03092
500 4.80274
505 4.34912
510 3.86161
515 3.4844
520 3.02412
525 2.76176
530 2.54476
535 2.2739
540 1.8955
545 1.55806
550 1.50463
555 1.33233
560 1.07782
565 0.853001
570 0.767558
575 0.577064
580 0.450995
585 0.36511
590 0.306813
595 0.306911
600 0.53845
Ex : 393
200 0.070899
205 0.07845
210 0.057807
215 0.0736962
220 0.0371483
225 0.0568564
230 0.0403943
235 0.055099
240 0.0850693
245 0.0727504
250 0.0618514
255 0.068391
260 0.0487477
265 0.0677128
270 0.0918208
275 0.0648548
280 0.087591
285 0.0706957
290 0.0972929
295 0.0988617
300 0.0493903
305 0.0780884
310 0.0720448
315 0.0499228
320 0.075794
325 0.0965016
330 0.0869726
335 0.132203
340 0.132889
345 0.158582
350 0.148839
355 0.13318
360 0.145936
365 0.229305
370 0.346903
375 0.879769
380 22.9097
385 458.639
390 787.758
395 225.867
400 39.2411
405 15.9323
410 15.4251
415 18.8674
420 18.5956
425 15.5382
430 13.0804
435 13.057
440 15.5553
445 14.2586
450 11.991
455 10.4261
460 8.83535
465 8.04719
470 7.52832
475 6.87778
480 6.48763
485 5.88877
490 5.27897
495 4.95313
500 4.4237
505 4.18914
510 3.67659
515 3.18229
520 2.88217
525 2.7739
530 2.22784
535 2.13724
540 1.86
545 1.63773
550 1.48604
555 1.27908
560 1.12058
565 0.997883
570 0.848081
575 0.5729
580 0.488342
585 0.387025
590 0.322159
595 0.210141
600 0.126291
Ex : 398
200 0.045675
205 0.0583178
210 0.0694136
215 0.0944659
220 0.0727363
225 0.0597972
230 0.075795
235 0.0926142
240 0.082113
245 0.0873301
250 0.0507103
255 0.0376864
260 0.0581647
265 0.0927213
270 0.122521
275 0.100081
280 0.0608343
285 0.0822965
290 0.0699546
295 0.0878861
300 0.0770091
305 0.0626063
310 0.0474853
315 0.0857242
320 0.077919
325 0.0870571
330 0.096447
335 0.097129
340 0.113731
345 0.0671774
350 0.162817
355 0.172764
360 0.178831
365 0.14098
370 0.278486
375 0.406771
380 1.13927
385 24.5772
390 468.497
395 798.61
400 221.075
405 32.7482
410 11.9679
415 11.9246
420 11.7618
425 9.75225
430 8.01795
435 7.59767
440 9.11912
445 11.2937
450 9.91465
455 7.74667
460 6.61107
465 6.26595
470 5.68851
475 5.59395
480 5.47676
485 4.77594
490 4.28946
495 4.00763
500 3.87079
505 3.49389
510 3.23045
515 2.90319
520 2.61714
525 2.52791
530 2.28377
535 2.01177
540 1.78295
545 1.52619
550 1.39625
555 1.18564
560 0.985604
565 0.844672
570 0.732563
575 0.64589
580 0.416048
585 0.361523
590 0.288739
595 0.210199
600 0.0239199
Ex : 403
200 0.0934687
205 0.134612
210 0.1063
215 0.0634539
220 0.0592734
225 0.0912568
230 0.0781545
235 0.0645942
240 0.0587364
245 0.0497219
250 0.0730614
255 0.0891844
260 0.0910637
265 0.0653233
270 0.0422422
275 0.0592441
280 0.105023
285 0.0840662
290 0.0843126
295 0.072796
300 0.0520984
305 0.0630725
310 0.115468
315 0.101397
320 0.0820601
325 0.0456035
330 0.118554
335 0.0872868
340 0.0702996
345 0.105103
350 0.182704
355 0.125076
360 0.188121
365 0.171473
370 0.185968
375 0.227814
380 0.452321
385 1.07082
390 27.1691
395 480.456
400 794.62
405 217.488
410 29.2015
415 7.96963
420 5.54113
425 5.07366
430 4.40344
435 4.32589
440 4.36235
445 5.14174
450 6.83305
455 7.20434
460 5.57184
465 5.01305
470 4.46262
475 4.21455
480 4.18587
485 3.93236
490 3.85579
495 3.53046
500 3.27324
505 3.05382
510 2.84794
515 2.59465
520 2.43361
525 2.12973
530 1.83335
535 1.94499
540 1.71672
545 1.43633
550 1.27927
555 1.08182
560 0.990319
565 0.921511
570 0.717848
575 0.666724
580 0.504365
585 0.357153
590 0.275224
595 0.241231
600 0.570706
Ex : 408
200 0.0383332
205 0.0509282
210 0.082397
215 0.0795176
220 0.080061
225 0.0393766
230 0.0557616
235 0.0782528
240 0.0290508
245 0.0576267
250 0.0591365
255 0.0704914
260 0.12285
265 0.0445036
270 0.099326
275 0.0559885
280 0.0580975
285 0.0400269
290 0.0499215
295 0.0767519
300 0.0642132
305 0.07508
310 0.0627184
315 0.0766162
320 0.0739349
325 0.0852881
330 0.0744047
335 0.165939
340 0.0891395
345 0.0983229
350 0.153481
355 0.122295
360 0.0972628
365 0.158054
370 0.18494
375 0.198257
380 0.356281
385 0.471295
390 1.0133
395 25.2017
400 481.672
405 798.019
410 212.008
415 28.1982
420 6.81086
425 4.13074
430 3.95707
435 3.77506
440 3.83637
445 4.03169
450 4.21597
455 5.62379
460 6.77519
465 5.61337
470 4.85181
475 4.40514
480 3.88132
485 3.58058
490 3.52899
495 3.38264
500 3.32861
505 3.04925
510 3.0147
515 2.42592
520 2.33974
525 2.1201
530 1.97515
535 1.68161
540 1.57231
545 1.42616
550 1.26585
555 1.2384
560 0.91776
565 0.810305
570 0.752686
575 0.53162
580 0.408586
585 0.31693
590 0.314382
595 0.236071
600 0.307194
Ex : 413
200 0.116686
205 0.0448654
210 0.0445605
215 0.064431
220 0.065298
225 0.108622
230 0.0876661
235 0.058199
240 0.0394373
245 0.0569916
250 0.0618555
255 0.0738164
260 0.0528734
265 0.0740388
270 0.0720753
275 0.0810532
280 0.0627775
285 0.112822
290 0.0554399
295 0.0608499
300 0.0946254
305 0.134795
310 0.0603992
315 0.0780349
320 0.0540234
325 0.079767
330 0.0494927
335 0.0967265
340 0.0702717
345 0.0668127
350 0.0882705
355 0.111289
360 0.134648
365 0.115002
370 0.123668
375 0.173097
380 0.164955
385 0.262857
390 0.403809
395 0.990444
400 28.418
405 501.268
410 812.193
415 211.475
420 27.7401
425 6.28771
430 3.47046
435 3.68634
440 3.60254
445 3.51131
450 3.54503
455 3.5594
460 4.49824
465 6.16683
470 5.36895
475 4.57577
480 4.15269
485 3.47956
490 3.28877
495 3.35846
500 3.00222
505 2.78836
510 2.81473
515 2.50546
520 2.20296
525 2.06063
530 1.83092
535 1.78638
540 1.59219
545 1.35556
550 1.20817
555 0.991441
560 0.90406
565 0.75489
570 0.687593
575 0.437057
580 0.492447
585 0.370004
590 0.318594
595 0.215275
600 0.506259
Ex : 418
200 0.0651817
205 0.0831039
210 0.0544753
215 0.0871361
220 0.0813612
225 0.0851829
230 0.0619715
235 0.10879
240 0.143917
245 0.0831561
250 0.0611972
255 0.0599607
260 0.0556565
265 0.0524293
270 0.0625774
275 0.0257891
280 0.0329731
285 0.0541333
290 0.0503054
295 0.0535762
300 0.0714707
305 0.0730166
310 0.119915
315 0.0616825
320 0.0595261
325 0.0706109
330 0.0872443
335 0.0703685
340 0.0799933
345 0.0670119
350 0.126699
355 0.17211
360 0.072374
365 0.0930807
370 0.14829
375 0.178124
380 0.165195
385 0.230185
390 0.287468
395 0.471835
400 0.831103
405 27.4183
410 500.848
415 822.892
420 221.647
425 27.9581
430 5.42389
435 2.68379
440 2.6935
445 2.59614
450 2.38687
455 2.15457
460 2.4557
465 3.07893
470 5.0217
475 5.09383
480 4.04143
485 3.37522
490 3.21942
495 2.66516
500 2.69672
505 2.49231
510 2.39304
515 2.1518
520 1.94468
525 1.88046
530 1.72563
535 1.60071
540 1.42893
545 1.20847
550 1.26886
555 0.948009
560 0.858756
565 0.837692
570 0.618918
575 0.496094
580 0.478762
585 0.306851
590 0.259664
595 0.229332
600 0.480221
Ex : 423
200 0.0554737
205 0.0688077
210 0.0436848
215 0.0933626
220 0.0378589
225 0.0742607
230 0.0620688
235 0.047573
240 0.0670288
245 0.0588404
250 0.0515519
255 0.0565562
260 0.0646811
265 0.0966134
270 0.0836668
275 0.0556803
280 0.0800998
285 0.139616
290 0.0717632
295 0.071382
300 0.0912913
305 0.0793078
310 0.0567457
315 0.0749032
320 0.0634078
325 0.103065
330 0.0645128
335 0.0711214
340 0.0679468
345 0.0652832
350 0.0788745
355 0.0914374
360 0.121528
365 0.0850496
370 0.0711246
375 0.0957906
380 0.120734
385 0.190688
390 0.25517
395 0.290626
400 0.476765
405 0.90322
410 27.708
415 519.652
420 820.95
425 207.465
430 25.7628
435 4.61091
440 1.98917
445 2.01447
450 1.87424
455 1.60503
460 1.67313
465 1.91572
470 2.2644
475 3.8559
480 4.73517
485 3.59686
490 3.05629
495 2.72923
500 2.34773
505 2.05193
510 1.92134
515 1.96873
520 1.71042
525 1.6994
530 1.66456
535 1.4811
540 1.34424
545 1.28662
550 1.05231
555 1.09314
560 0.815797
565 0.810558
570 0.623408
575 0.509021
580 0.399616
585 0.331289
590 0.25033
595 0.234611
600 0.4698
Ex : 428
200 0.0683781
205 0.0536315
210 0.0688005
215 0.0473869
220 0.0448785
225 0.0676692
230 0.0671419
235 0.0633983
240 0.0845423
245 0.0657121
250 0.0865375
255 0.0719478
260 0.142077
265 0.071233
270 0.0945771
275 0.0933153
280 0.0356202
285 0.0577073
290 0.103727
295 0.103536
300 0.0719261
305 0.0700229
310 0.0668184
315 0.047352
320 0.0670799
325 0.0564323
330 0.100453
335 0.165789
340 0.124143
345 0.0673616
350 0.0776178
355 0.100526
360 0.0923494
365 0.119192
370 0.111629
375 0.138961
380 0.131
385 0.137701
390 0.150319
395 0.190909
400 0.280442
405 0.481854
410 0.846997
415 31.0233
420 520.586
425 824.93
430 213.957
435 26.4251
440 4.46225
445 1.75167
450 1.71288
455 1.83977
460 1.42204
465 1.51376
470 1.54338
475 1.86363
480 3.20541
485 4.45879
490 3.31159
495 2.84873
500 2.56037
505 1.99379
510 1.81429
515 1.8551
520 1.68915
525 1.6697
530 1.51236
535 1.38663
540 1.25455
545 1.14551
550 1.00716
555 0.970017
560 0.892958
565 0.65513
570 0.629697
575 0.480696
580 0.414461
585 0.316952
590 0.2402
595 0.242437
600 0.327897
Ex : 433
200 0.0787019
205 0.0666028
210 0.109842
215 0.0618523
220 0.0493065
225 0.0610876
230 0.053202
235 0.0930291
240 0.0900056
245 0.155317
250 0.115558
255 0.0522965
260 0.0543647
265 0.0601275
270 0.0574906
275 0.0403003
280 0.0747952
285 0.113834
290 0.0712379
295 0.0744755
300 0.0641086
305 0.134822
310 0.0834407
315 0.0574407
320 0.0760315
325 0.0821942
330 0.0730374
335 0.0947564
340 0.136035
345 0.0686124
350 0.0748281
355 0.0953533
360 0.0971685
365 0.160402
370 0.119621
375 0.085808
380 0.08881
385 0.141531
390 0.161693
395 0.169646
400 0.156395
405 0.346294
410 0.501094
415 0.852906
420 33.3413
425 552.246
430 832.726
435 208.019
440 25.3918
445 4.1983
450 1.68851
455 1.61549
460 1.58956
465 1.46702
470 1.37442
475 1.46269
480 1.66173
485 2.53104
490 4.15643
495 3.53775
500 2.57346
505 2.3317
510 1.96326
515 1.8565
520 1.56747
525 1.56986
530 1.3396
535 1.32291
540 1.2491
545 1.0639
550 0.98866
555 1.01047
560 0.78826
565 0.696802
570 0.602016
575 0.525438
580 0.403388
585 0.374268
590 0.319319
595 0.255751
600 0.419988
Ex : 438
200 0.0829311
205 0.121974
210 0.0330368
215 0.0390175
220 0.0340818
225 0.0665628
230 0.0823327
235 0.0646466
240 0.0791479
245 0.0949764
250 0.0614502
255 0.0687293
260 0.104285
265 0.0597473
270 0.0655152
275 0.0818058
280 0.0570463
285 0.0539543
290 0.0972488
295 0.0580285
300 0.0614734
305 0.0332387
310 0.0837948
315 0.0726255
320 0.0810925
325 0.0624797
330 0.0905635
335 0.0634129
340 0.048746
345 0.147498
350 0.0973164
355 0.0975211
360 0.0757356
365 0.110978
370 0.126446
375 0.0960812
380 0.096793
385 0.121508
390 0.161598
395 0.113986
400 0.139055
405 0.262743
410 0.254278
415 0.5457
420 0.915548
425 32.5022
430 559.673
435 895.668
440 224.314
445 27.3346
450 4.50231
455 1.60406
460 1.64758
465 1.7279
470 1.51149
475 1.25832
480 1.33262
485 1.47758
490 2.09233
495 3.57561
500 3.85353
505 2.61252
510 2.07433
515 2.02369
520 1.7612
525 1.48911
530 1.32918
535 1.19533
540 1.27487
545 1.07569
550 0.985232
555 0.856346
560 0.720507
565 0.657835
570 0.657438
575 0.520246
580 0.367112
585 0.400165
590 0.305873
595 0.210474
600 0.203547
Ex : 443
200 0.075703
205 0.0767183
210 0.0716304
215 0.128709
220 0.0982615
225 0.0899
230 0.079666
235 0.0395459
240 0.0519932
245 0.0818139
250 0.0403439
255 0.0688004
260 0.077513
265 0.050742
270 0.0751732
275 0.0661534
280 0.0825562
285 0.0970529
290 0.0727
295 0.0597534
300 0.094029
305 0.0602024
310 0.0746404
315 0.0829791
320 0.0703085
325 0.175485
330 0.0925045
335 0.0785752
340 0.0822934
345 0.0933358
350 0.103662
355 0.0934297
360 0.0598576
365 0.0921815
370 0.0664464
375 0.134996
380 0.0815486
385 0.17989
390 0.155702
395 0.125619
400 0.164877
405 0.22127
410 0.200263
415 0.363025
420 0.483158
425 0.91538
430 36.0294
435 605.048
440 919.708
445 227.876
450 27.8755
455 4.5352
460 1.76195
465 1.52491
470 1.73479
475 1.66767
480 1.28575
485 1.40484
490 1.41538
495 1.70778
500 2.95357
505 3.81242
510 2.74946
515 2.03908
520 1.76585
525 1.50325
530 1.45677
535 1.22491
540 1.08519
545 1.01825
550 0.879773
555 0.909961
560 0.764814
565 0.735268
570 0.568851
575 0.543082
580 0.40779
585 0.409082
590 0.348434
595 0.232273
600 0.0411527
Ex : 448
200 0.0798824
205 0.0522137
210 0.0987909
215 0.128507
220 0.0603115
225 0.0469453
230 0.0466711
235 0.100895
240 0.0894668
245 0.124482
250 0.0592999
255 0.047399
260 0.0589104
265 0.111468
270 0.067684
275 0.0651038
280 0.0805578
285 0.0736391
290 0.07853
295 0.0929883
300 0.122978
305 0.0668639
310 0.0639018
315 0.124892
320 0.0896188
325 0.117492
330 0.0662158
335 0.0612768
340 0.0947631
345 0.069402
350 0.113777
355 0.0845806
360 0.0870326
365 0.106806
370 0.10644
375 0.0887375
380 0.146789
385 0.147057
390 0.121744
395 0.154685
400 0.143001
405 0.257459
410 0.187851
415 0.197028
420 0.279173
425 0.551442
430 1.04979
435 37.515
440 638.834
445 965.496
450 239.654
455 29.3897
460 4.9842
465 1.9676
470 1.64115
475 1.64229
480 1.49976
485 1.24216
490 1.26069
495 1.32651
500 1.52985
505 2.37301
510 3.48747
515 2.81392
520 2.10721
525 1.83692
530 1.60561
535 1.31194
540 1.04946
545 0.948463
550 0.929126
555 0.7433
560 0.723716
565 0.640539
570 0.581222
575 0.506328
580 0.48564
585 0.372798
590 0.285711
595 0.241316
600 0.131197
Ex : 453
200 0.0659876
205 0.0690623
210 0.131821
215 0.110601
220 0.0815465
225 0.058125
230 0.0521937
235 0.117562
240 0.0775852
245 0.0906137
250 0.0674512
255 0.0692649
260 0.0788719
265 0.0732056
270 0.156502
275 0.092576
280 0.089647
285 0.0533109
290 0.0963107
295 0.0566078
300 0.0837012
305 0.0642362
310 0.10524
315 0.0972538
320 0.0803668
325 0.0635726
330 0.0469605
335 0.0666557
340 0.083182
345 0.0744741
350 0.0766392
355 0.0824538
360 0.0801748
365 0.0743272
370 0.0830055
375 0.0895115
380 0.128221
385 0.125249
390 0.140106
395 0.101848
400 0.124025
405 0.0979174
410 0.205494
415 0.222856
420 0.256962
425 0.358832
430 0.502895
435 1.02642
440 39.8272
445 691.538
450 1005.62
455 235.177
460 28.8676
465 5.00725
470 1.71012
475 1.51245
480 1.65238
485 1.59526
490 1.27558
495 1.22124
500 1.09997
505 1.27356
510 1.78403
515 3.23115
520 2.94368
525 2.09272
530 1.79445
535 1.61844
540 1.23726
545 0.978305
550 0.948156
555 0.895849
560 0.786765
565 0.779802
570 0.57707
575 0.615004
580 0.404044
585 0.302761
590 0.341074
595 0.252249
600 0.240502
Ex : 458
200 0.0517295
205 0.0655303
210 0.0492906
215 0.0633569
220 0.0607324
225 0.0668358
230 0.0812113
235 0.0745582
240 0.0559832
245 0.0883778
250 0.113814
255 0.0635185
260 0.0419039
265 0.102401
270 0.102467
275 0.125918
280 0.0767163
285 0.0840279
290 0.104182
295 0.0919065
300 0.0966733
305 0.0711681
310 0.0647119
315 0.0792934
320 0.10572
325 0.0766156
330 0.0963983
335 0.0857458
340 0.0737662
345 0.116033
350 0.079754
355 0.118843
360 0.111009
365 0.082574
370 0.129461
375 0.100678
380 0.0555454
385 0.112213
390 0.0906919
395 0.102495
400 0.0985938
405 0.121377
410 0.167633
415 0.131104
420 0.184239
425 0.240491
430 0.327865
435 0.591552
440 1.05394
445 44.0506
450 712.652
455 1063.45
460 255.369
465 31.2753
470 5.1562
475 1.85566
480 1.40735
485 1.55692
490 1.59052
495 1.45073
500 1.18848
505 1.0411
510 1.03963
515 1.41148
520 2.498
525 3.01515
530 2.34722
535 1.65779
540 1.47996
545 1.36673
550 1.02431
555 0.843591
560 0.836671
565 0.745005
570 0.669261
575 0.511428
580 0.431985
585 0.36727
590 0.259032
595 0.302112
600 0.0343792
Ex : 463
200 0.0453981
205 0.0662052
210 0.0659287
215 0.0310896
220 0.0465455
225 0.126435
230 0.069869
235 0.0640552
240 0.0759791
245 0.0610095
250 0.0513468
255 0.0673733
260 0.0925237
265 0.0677012
270 0.0628569
275 0.0956307
280 0.0955912
285 0.0981516
290 0.0464958
295 0.0574016
300 0.106451
305 0.0594478
310 0.0820599
315 0.099873
320 0.0944753
325 0.106404
330 0.107112
335 0.0690251
340 0.0819049
345 0.106608
350 0.0856657
355 0.123041
360 0.0789999
365 0.0802304
370 0.116999
375 0.111275
380 0.106061
385 0.11557
390 0.107079
395 0.155551
400 0.163639
405 0.0983798
410 0.137842
415 0.192474
420 0.139964
425 0.197509
430 0.258632
435 0.372856
440 0.562047
445 1.12664
450 42.8445
455 742.958
460 1142.32
465 276.804
470 33.7203
475 5.2054
480 1.75921
485 1.46139
490 1.59834
495 1.45852
500 1.16789
505 1.14568
510 1.06811
515 1.01495
520 1.20126
525 1.86232
530 3.01978
535 2.55262
540 1.76292
545 1.4573
550 1.25044
555 1.04389
560 0.857694
565 0.798946
570 0.570307
575 0.559919
580 0.538142
585 0.404243
590 0.337868
595 0.266435
600 0.20317
Ex : 468
200 0.0576836
205 0.063296
210 0.0685383
215 0.0828601
220 0.0444185
225 0.0377997
230 0.0783494
235 0.0722823
240 0.0294814
245 0.0660369
250 0.0427281
255 0.064066
260 0.0646893
265 0.0438532
270 0.0779745
275 0.0615098
280 0.0575983
285 0.085686
290 0.0487003
295 0.0458423
300 0.0785178
305 0.0737452
310 0.0884576
315 0.0879748
320 0.119198
325 0.0866838
330 0.0591431
335 0.119498
340 0.0811868
345 0.100283
350 0.0849221
355 0.0642721
360 0.0650429
365 0.0861843
370 0.145
375 0.0668741
380 0.0705399
385 0.0622975
390 0.0902648
395 0.0998989
400 0.100747
405 0.120211
410 0.138385
415 0.149386
420 0.165288
425 0.169844
430 0.229637
435 0.263522
440 0.322376
445 0.522048
450 1.00188
455 48.8666
460 771.19
465 1205.25
470 292.732
475 35.3532
480 5.51297
485 1.82324
490 1.25884
495 1.47851
500 1.40756
505 1.23534
510 1.13416
515 1.05184
520 1.22576
525 1.28826
530 1.64908
535 2.60085
540 2.76025
545 1.75486
550 1.51336
555 1.28753
560 1.02372
565 0.75726
570 0.708205
575 0.661359
580 0.537382
585 0.377054
590 0.29756
595 0.298716
600 0.690573
Ex : 473
200 0.0512098
205 0.0947732
210 0.101893
215 0.0589753
220 0.0842625
225 0.0488133
230 0.061113
235 0.0509416
240 0.073919
245 0.0582419
250 0.0962417
255 0.0606387
260 0.0997204
265 0.0699276
270 0.0837896
275 0.117342
280 0.0699466
285 0.0908646
290 0.0827134
295 0.0729241
300 0.0587324
305 0.0758139
310 0.0628318
315 0.0814665
320 0.0523282
325 0.0583077
330 0.0754025
335 0.083804
340 0.085323
345 0.0680269
350 0.0664078
355 0.0707123
360 0.12887
365 0.147124
370 0.092546
375 0.080621
380 0.0650244
385 0.0633794
390 0.0752925
395 0.109934
400 0.0871611
405 0.144024
410 0.164716
415 0.183726
420 0.133558
425 0.172882
430 0.137199
435 0.216171
440 0.345922
445 0.40463
450 0.60658
455 1.16935
460 56.5097
465 860.278
470 1206.77
475 280.491
480 33.9965
485 5.40392
490 1.72036
495 1.2581
500 1.38615
505 1.36765
510 1.29285
515 1.13968
520 1.22893
525 1.08882
530 1.07518
535 1.26993
540 2.05141
545 2.65857
550 1.85428
555 1.30137
560 1.16921
565 0.883852
570 0.850801
575 0.593982
580 0.465662
585 0.455303
590 0.371058
595 0.334272
600 0.0793779
Ex : 478
200 0.0911579
205 0.0814807
210 0.08038
215 0.0940652
220 0.0851701
225 0.0577078
230 0.0971716
235 0.0629677
240 0.0441904
245 0.0822745
250 0.0813438
255 0.109213
260 0.109438
265 0.064308
270 0.168102
275 0.106099
280 0.0926376
285 0.191204
290 0.0854718
295 0.0946548
300 0.0794763
305 0.0623849
310 0.0937015
315 0.0762524
320 0.0741486
325 0.147262
330 0.0677733
335 0.13106
340 0.135226
345 0.0605203
350 0.0893019
355 0.120092
360 0.129012
365 0.119701
370 0.0878084
375 0.15949
380 0.134859
385 0.118933
390 0.132474
395 0.159775
400 0.115611
405 0.140364
410 0.134578
415 0.179174
420 0.149377
425 0.119026
430 0.204207
435 0.186668
440 0.284764
445 0.336115
450 0.449844
455 0.735546
460 1.54641
465 62.8165
470 893.027
475 1240.34
480 300.781
485 36.3867
490 5.8208
495 1.78396
500 1.28408
505 1.2583
510 1.24495
515 1.20526
520 1.13007
525 1.07319
530 0.996429
535 1.02038
540 1.10484
545 1.59665
550 2.4999
555 1.95285
560 1.17454
565 1.11893
570 0.851815
575 0.664574
580 0.445338
585 0.37666
590 0.357688
595 0.325824
600 0.0370775
Ex : 483
200 0.140607
205 0.0717162
210 0.113693
215 0.0542665
220 0.0882176
225 0.0911323
230 0.0912993
235 0.104037
240 0.0879954
245 0.0477963
250 0.0625659
255 0.119033
260 0.127173
265 0.0821198
270 0.096066
275 0.101232
280 0.068506
285 0.0712592
290 0.117366
295 0.117979
300 0.0954499
305 0.125526
310 0.0668089
315 0.0589203
320 0.0969164
325 0.116146
330 0.0933735
335 0.0882299
340 0.0977948
345 0.0636379
350 0.0995624
355 0.106563
360 0.175576
365 0.102323
370 0.137547
375 0.145498
380 0.0970269
385 0.111775
390 0.103906
395 0.116632
400 0.117878
405 0.147815
410 0.167086
415 0.178719
420 0.115112
425 0.180562
430 0.205617
435 0.155882
440 0.233755
445 0.254796
450 0.336049
455 0.431534
460 0.90532
465 1.5639
470 50.5753
475 896.787
480 1374.94
485 330.501
490 39.7769
495 5.85963
500 1.87552
505 1.22325
510 1.23772
515 1.42383
520 1.1764
525 1.14053
530 1.13674
535 1.03411
540 1.0063
545 1.04993
550 1.14226
555 2.04776
560 2.20782
565 1.24115
570 0.942631
575 0.989491
580 0.637821
585 0.58387
590 0.354955
595 0.30885
600 1.00386
Ex : 488
200 0.103963
205 0.0534019
210 0.0587825
215 0.131327
220 0.0813854
225 0.116407
230 0.133856
235 0.122053
240 0.103259
245 0.0954651
250 0.0836688
255 0.128298
260 0.0805468
265 0.0861351
270 0.0706301
275 0.10703
280 0.0901217
285 0.0906717
290 0.0932573
295 0.0753828
300 0.0590345
305 0.0691759
310 0.0872663
315 0.0449971
320 0.140575
325 0.0600952
330 0.0796694
335 0.0664216
340 0.121994
345 0.0805193
350 0.0959736
355 0.107044
360 0.0752307
365 0.10477
370 0.107854
375 0.1257
380 0.106292
385 0.182507
390 0.121436
395 0.151051
400 0.115149
405 0.187282
410 0.147333
415 0.118723
420 0.147369
425 0.188204
430 0.214373
435 0.192865
440 0.235844
445 0.223627
450 0.233621
455 0.415424
460 0.561841
465 0.868733
470 1.55619
475 63.2164
480 991.863
485 1374.62
490 323.157
495 38.9209
500 5.98324
505 1.86212
510 1.10259
515 1.29792
520 1.38626
525 1.49286
530 1.21676
535 1.18345
540 1.06276
545 0.87115
550 0.806193
555 0.859363
560 1.58749
565 2.02777
570 1.38471
575 0.784241
580 0.773108
585 0.591901
590 0.454557
595 0.267818
600 0.42013
Ex : 493
200 0.145643
205 0.085618
210 0.0846666
215 0.0569539
220 0.0886606
225 0.0778801
230 0.11836
235 0.105315
240 0.113573
245 0.0937005
250 0.0894185
255 0.1423
260 0.0612231
265 0.109283
270 0.0788712
275 0.0820933
280 0.12467
285 0.0924051
290 0.0856133
295 0.0718184
300 0.115547
305 0.083412
310 0.0851376
315 0.0618132
320 0.0645001
325 0.0706516
330 0.0785426
335 0.146202
340 0.0981189
345 0.102431
350 0.115501
355 0.0960736
360 0.0822366
365 0.163719
370 0.125227
375 0.0874276
380 0.16513
385 0.132378
390 0.134544
395 0.0916756
400 0.122753
405 0.115409
410 0.115443
415 0.173124
420 0.187444
425 0.120578
430 0.144863
435 0.168794
440 0.158247
445 0.24916
450 0.176445
455 0.301198
460 0.374875
465 0.673801
470 0.892762
475 1.55219
480 59.5031
485 992.147
490 1485.03
495 341.098
500 40.9302
505 6.00452
510 1.77918
515 1.21984
520 1.11701
525 1.33389
530 1.21239
535 1.16523
540 0.976932
545 1.0211
550 0.890991
555 0.818465
560 0.780536
565 1.17074
570 1.79708
575 1.505
580 0.763704
585 0.696585
590 0.501776
595 0.47298
600 0.766784
Ex : 498
200 0.0716996
205 0.0823289
210 0.0961138
215 0.108832
220 0.0924329
225 0.111631
230 0.130834
235 0.110567
240 0.085814
245 0.0899159
250 0.0999314
255 0.0782468
260 0.0864813
265 0.116493
270 0.0792957
275 0.127559
280 0.120164
285 0.145639
290 0.0884877
295 0.0637546
300 0.105594
305 0.0652293
310 0.0685709
315 0.0964146
320 0.117983
325 0.0962115
330 0.123051
335 0.151825
340 0.164476
345 0.0867151
350 0.11981
355 0.122205
360 0.133834
365 0.107834
370 0.0977344
375 0.141551
380 0.10558
385 0.105898
390 0.166705
395 0.150618
400 0.163257
405 0.141317
410 0.133279
415 0.122197
420 0.109377
425 0.141015
430 0.225378
435 0.157607
440 0.154363
445 0.198654
450 0.214292
455 0.175951
460 0.334427
465 0.446232
470 0.571899
475 0.852402
480 1.71478
485 71.8105
490 1079.66
495 1473.15
500 340.453
505 40.9906
510 5.98504
515 1.83011
520 1.2123
525 1.23377
530 1.39121
535 1.29347
540 1.11167
545 0.866839
550 0.832639
555 0.77847
560 0.743414
565 0.752031
570 0.842707
575 1.24566
580 1.32608
585 0.756781
590 0.484232
595 0.481063
600 0.703637
Ex : 503
200 0.0978238
205 0.113146
210 0.0983346
215 0.0703207
220 0.104163
225 0.0631545
230 0.14781
235 0.12491
240 0.110996
245 0.0924742
250 0.104802
255 0.113482
260 0.109008
265 0.0696668
270 0.061134
275 0.0811134
280 0.104581
285 0.0994941
290 0.0782372
295 0.10921
300 0.109902
305 0.106068
310 0.101102
315 0.116124
320 0.138409
325 0.102576
330 0.157751
335 0.1053
340 0.0945471
345 0.137494
350 0.132129
355 0.116439
360 0.125186
365 0.134806
370 0.12628
375 0.078449
380 0.148017
385 0.159922
390 0.164901
395 0.154461
400 0.158829
405 0.161579
410 0.194558
415 0.11309
420 0.0947849
425 0.148592
430 0.134067
435 0.196055
440 0.158019
445 0.226108
450 0.201958
455 0.255406
460 0.314779
465 0.390227
470 0.525897
475 0.586347
480 0.953209
485 1.64262
490 65.9558
495 1079.94
500 1517.03
505 349.607
510 41.9515
515 6.44552
520 2.03755
525 1.32338
530 1.13018
535 1.17294
540 1.23234
545 1.07545
550 0.923998
555 0.826382
560 0.788862
565 0.69021
570 0.586113
575 0.677039
580 0.749473
585 1.13184
590 0.695696
595 0.494403
600 0.875804
Ex : 508
200 0.131295
205 0.0970597
210 0.130731
215 0.101642
220 0.107577
225 0.13679
230 0.084649
235 0.20027
240 0.0887962
245 0.199936
250 0.226865
255 0.121473
260 0.14471
265 0.0859812
270 0.113324
275 0.14416
280 0.0689443
285 0.0917046
290 0.143779
295 0.069856
300 0.0805524
305 0.117139
310 0.0699065
315 0.113205
320 0.0892558
325 0.112181
330 0.103446
335 0.094189
340 0.14275
345 0.126144
350 0.144022
355 0.163686
360 0.180887
365 0.0926144
370 0.0997255
375 0.216605
380 0.136019
385 0.159633
390 0.190164
395 0.204631
400 0.185501
405 0.132272
410 0.152832
415 0.103886
420 0.10186
425 0.161386
430 0.202881
435 0.159254
440 0.104392
445 0.132721
450 0.252102
455 0.292536
460 0.270609
465 0.349781
470 0.339675
475 0.457616
480 0.689116
485 0.999812
490 1.63684
495 72.792
500 1097.96
505 1539.56
510 371.698
515 44.6335
520 6.71182
525 1.99011
530 1.41917
535 1.20536
540 1.26264
545 1.10756
550 1.11262
555 0.861008
560 0.634961
565 0.739068
570 0.581805
575 0.554104
580 0.571496
585 0.558575
590 0.85632
595 0.853303
600 0.353741
Ex : 513
200 0.184072
205 0.175524
210 0.115494
215 0.119618
220 0.104013
225 0.102866
230 0.145973
235 0.146452
240 0.133859
245 0.125076
250 0.124314
255 0.0798095
260 0.0640025
265 0.0788735
270 0.0976357
275 0.0865703
280 0.0870984
285 0.109789
290 0.113496
295 0.0699484
300 0.0972765
305 0.108711
310 0.166934
315 0.161138
320 0.137435
325 0.0719065
330 0.090883
335 0.164572
340 0.15877
345 0.124813
350 0.160317
355 0.0829645
360 0.128751
365 0.160877
370 0.227874
375 0.144045
380 0.108109
385 0.183566
390 0.198529
395 0.160024
400 0.119638
405 0.140485
410 0.137252
415 0.0975661
420 0.110976
425 0.152769
430 0.194265
435 0.154719
440 0.188099
445 0.172145
450 0.211709
455 0.203872
460 0.221876
465 0.317534
470 0.283138
475 0.366184
480 0.492473
485 0.703193
490 0.848242
495 1.63341
500 67.5495
505 1088.06
510 1571.07
515 384.61
520 46.1805
525 6.65372
530 2.06762
535 1.33147
540 1.06001
545 1.10664
550 1.16768
555 0.871547
560 0.818204
565 0.677364
570 0.541587
575 0.488523
580 0.441126
585 0.424557
590 0.371329
595 0.60095
600 0.139786
Ex : 518
200 0.114985
205 0.132696
210 0.175624
215 0.150131
220 0.113069
225 0.141021
230 0.145399
235 0.113531
240 0.127579
245 0.0960361
250 0.150506
255 0.105481
260 0.148759
265 0.161912
270 0.0903374
275 0.15053
280 0.120607
285 0.0885719
290 0.0796053
295 0.104204
300 0.116655
305 0.100486
310 0.116777
315 0.0889203
320 0.137145
325 0.148272
330 0.0980337
335 0.118724
340 0.134678
345 0.243724
350 0.148557
355 0.167481
360 0.13564
365 0.173902
370 0.16227
375 0.195008
380 0.137269
385 0.125224
390 0.13048
395 0.161577
400 0.17418
405 0.138862
410 0.161083
415 0.209926
420 0.210013
425 0.139919
430 0.141226
435 0.183067
440 0.192004
445 0.149939
450 0.170649
455 0.227446
460 0.228511
465 0.31478
470 0.283304
475 0.415606
480 0.3606
485 0.415771
490 0.611019
495 0.874538
500 1.48955
505 67.0591
510 1067.05
515 1582.7
520 387.895
525 46.4333
530 6.58605
535 1.78385
540 1.13295
545 0.945746
550 0.854782
555 0.861972
560 0.812773
565 0.711007
570 0.484549
575 0.565279
580 0.419136
585 0.480779
590 0.402084
595 0.373357
600 0.483448
Ex : 523
200 0.102135
205 0.164726
210 0.134154
215 0.121351
220 0.0943445
225 0.0800875
230 0.198765
235 0.161091
240 0.155256
245 0.0890579
250 0.0695034
255 0.142389
260 0.154022
265 0.0909624
270 0.180373
275 0.18703
280 0.158945
285 0.119662
290 0.151315
295 0.144874
300 0.173326
305 0.173517
310 0.205151
315 0.137878
320 0.125728
325 0.149958
330 0.0890707
335 0.132124
340 0.102535
345 0.114983
350 0.153909
355 0.179592
360 0.0888168
365 0.129007
370 0.112786
375 0.127061
380 0.151706
385 0.124797
390 0.184038
395 0.171643
400 0.274393
405 0.225891
410 0.192447
415 0.144004
420 0.114243
425 0.211393
430 0.187905
435 0.153521
440 0.103649
445 0.188025
450 0.144621
455 0.20296
460 0.256503
465 0.190029
470 0.259648
475 0.224685
480 0.287574
485 0.404409
490 0.471184
495 0.687206
500 0.944002
505 1.50775
510 63.332
515 1048.87
520 1596.54
525 408.1
530 48.8919
535 7.15043
540 1.91759
545 0.986293
550 0.844354
555 0.834799
560 0.819509
565 0.721333
570 0.609455
575 0.573779
580 0.403712
585 0.359564
590 0.390388
595 0.437429
600 0.242812
Ex : 528
200 0.120306
205 0.108289
210 0.105728
215 0.143252
220 0.162518
225 0.090483
230 0.120676
235 0.157453
240 0.0940571
245 0.123461
250 0.134367
255 0.156248
260 0.134075
265 0.0860798
270 0.0706881
275 0.159487
280 0.211473
285 0.232487
290 0.173522
295 0.108475
300 0.183573
305 0.134906
310 0.106222
315 0.114852
320 0.113595
325 0.121459
330 0.133611
335 0.132332
340 0.0766777
345 0.167693
350 0.133512
355 0.163727
360 0.0991462
365 0.100358
370 0.128702
375 0.0967982
380 0.130878
385 0.217959
390 0.158475
395 0.158384
400 0.167713
405 0.181775
410 0.1104
415 0.269753
420 0.224015
425 0.107247
430 0.170161
435 0.154739
440 0.179239
445 0.257391
450 0.117129
455 0.188014
460 0.256248
465 0.202115
470 0.229962
475 0.2254
480 0.213329
485 0.306462
490 0.3035
495 0.464254
500 0.661319
505 1.0001
510 1.69607
515 58.2422
520 1031.11
525 1571.14
530 396.785
535 47.5434
540 6.79155
545 1.79269
550 1.18253
555 0.783894
560 0.677623
565 0.735468
570 0.710687
575 0.544631
580 0.424747
585 0.460399
590 0.273262
595 0.307169
600 0.453061
Ex : 533
200 0.0951066
205 0.122159
210 0.146877
215 0.150559
220 0.191729
225 0.16399
230 0.167783
235 0.132697
240 0.132993
245 0.147687
250 0.092142
255 0.102204
260 0.0918985
265 0.140969
270 0.177404
275 0.144281
280 0.115222
285 0.168582
290 0.121067
295 0.0775423
300 0.12553
305 0.122718
310 0.158925
315 0.119972
320 0.156783
325 0.183257
330 0.146633
335 0.122187
340 0.0971229
345 0.113783
350 0.114507
355 0.163159
360 0.15419
365 0.0903051
370 0.235782
375 0.226432
380 0.178615
385 0.153915
390 0.134409
395 0.105589
400 0.123324
405 0.144732
410 0.172476
415 0.16992
420 0.164011
425 0.155149
430 0.193424
435 0.203039
440 0.239201
445 0.222535
450 0.147497
455 0.170501
460 0.243857
465 0.242368
470 0.295078
475 0.251365
480 0.263672
485 0.268247
490 0.226241
495 0.338101
500 0.440104
505 0.694217
510 0.886352
515 1.54742
520 60.4492
525 1012.83
530 1560.16
535 406.173
540 48.3684
545 6.71934
550 1.6681
555 1.03044
560 0.63424
565 0.588968
570 0.645989
575 0.556121
580 0.429901
585 0.413468
590 0.33378
595 0.268132
600 0.301038
Ex : 538
200 0.0820982
205 0.104755
210 0.0971126
215 0.0957761
220 0.125029
225 0.143439
230 0.141795
235 0.118741
240 0.136006
245 0.112082
250 0.129318
255 0.117556
260 0.107924
265 0.105233
270 0.148066
275 0.100924
280 0.0864287
285 0.0976852
290 0.137948
295 0.114755
300 0.133423
305 0.132646
310 0.197433
315 0.0926124
320 0.17035
325 0.108824
330 0.150142
335 0.133403
340 0.0903437
345 0.188879
350 0.138704
355 0.184492
360 0.209106
365 0.151538
370 0.140379
375 0.143853
380 0.266478
385 0.183987
390 0.203111
395 0.214135
400 0.161264
405 0.117189
410 0.119295
415 0.109497
420 0.126064
425 0.179269
430 0.115703
435 0.169664
440 0.146188
445 0.234883
450 0.154994
455 0.205659
460 0.237854
465 0.177245
470 0.21097
475 0.273025
480 0.203261
485 0.425741
490 0.283408
495 0.278367
500 0.288717
505 0.575614
510 0.73766
515 0.826704
520 1.49934
525 52.138
530 955.946
535 1549.62
540 416.611
545 49.9464
550 6.88731
555 1.4282
560 0.836006
565 0.556965
570 0.534943
575 0.463358
580 0.435684
585 0.429628
590 0.388471
595 0.396845
600 0.0841135
Ex : 543
200 0.073403
205 0.0870689
210 0.143496
215 0.0856307
220 0.112778
225 0.127486
230 0.089929
235 0.17247
240 0.178625
245 0.0828852
250 0.145807
255 0.115742
260 0.157335
265 0.166078
270 0.131498
275 0.109944
280 0.0732747
285 0.0897293
290 0.102563
295 0.138524
300 0.123433
305 0.213172
310 0.137589
315 0.134854
320 0.105657
325 0.141697
330 0.143354
335 0.121011
340 0.164057
345 0.147567
350 0.144958
355 0.152426
360 0.144589
365 0.150427
370 0.111045
375 0.214585
380 0.165473
385 0.175909
390 0.132279
395 0.159121
400 0.129357
405 0.115927
410 0.130144
415 0.234119
420 0.167876
425 0.208148
430 0.167607
435 0.289562
440 0.250755
445 0.24583
450 0.17926
455 0.206266
460 0.208314
465 0.155789
470 0.162112
475 0.211716
480 0.234346
485 0.173243
490 0.34299
495 0.239111
500 0.328
505 0.42074
510 0.491277
515 0.619681
520 0.832555
525 1.43085
530 47.3583
535 922.95
540 1549.64
545 425.139
550 50.6996
555 6.84618
560 1.64805
565 0.839978
570 0.5819
575 0.504425
580 0.615666
585 0.42083
590 0.432794
595 0.350673
600 0.414838
Ex : 548
200 0.176838
205 0.112457
210 0.116586
215 0.117505
220 0.154519
225 0.111366
230 0.13796
235 0.127159
240 0.170595
245 0.128875
250 0.140171
255 0.0966034
260 0.164931
265 0.169107
270 0.144432
275 0.121922
280 0.153291
285 0.113794
290 0.121524
295 0.127597
300 0.113176
305 0.1224
310 0.0739359
315 0.148646
320 0.192312
325 0.144145
330 0.0885603
335 0.150615
340 0.146671
345 0.136438
350 0.150734
355 0.164914
360 0.107009
365 0.148301
370 0.122163
375 0.155577
380 0.143781
385 0.121859
390 0.13037
395 0.209517
400 0.139763
405 0.141825
410 0.144468
415 0.252551
420 0.242764
425 0.200068
430 0.161229
435 0.144179
440 0.102466
445 0.141287
450 0.298922
455 0.194567
460 0.166266
465 0.244261
470 0.310257
475 0.287181
480 0.20137
485 0.24069
490 0.189057
495 0.314599
500 0.292538
505 0.240448
510 0.392405
515 0.46379
520 0.642444
525 0.686427
530 1.3724
535 51.5317
540 935.467
545 1531.73
550 426.752
555 50.7432
560 6.76279
565 1.53252
570 0.831542
575 0.547912
580 0.470919
585 0.371929
590 0.356595
595 0.334072
600 0.70395
Ex : 553
200 0.132468
205 0.118203
210 0.105136
215 0.216425
220 0.224359
225 0.124609
230 0.135427
235 0.152445
240 0.0761105
245 0.180721
250 0.118949
255 0.173323
260 0.206306
265 0.188033
270 0.185643
275 0.182868
280 0.169933
285 0.132685
290 0.140933
295 0.172596
300 0.163265
305 0.187147
310 0.122988
315 0.101377
320 0.206589
325 0.101329
330 0.0786675
335 0.0846617
340 0.13559
345 0.153942
350 0.119019
355 0.173485
360 0.148708
365 0.171486
370 0.141913
375 0.144608
380 0.106752
385 0.12535
390 0.126593
395 0.260462
400 0.171618
405 0.224183
410 0.152058
415 0.221362
420 0.135887
425 0.093022
430 0.187423
435 0.156049
440 0.140342
445 0.183458
450 0.172492
455 0.19697
460 0.257038
465 0.283434
470 0.194282
475 0.268032
480 0.196007
485 0.155123
490 0.210687
495 0.184727
500 0.241001
505 0.248976
510 0.345074
515 0.309329
520 0.468861
525 0.672189
530 0.84139
535 1.39759
540 43.5581
545 875.664
550 1486.09
555 417.437
560 49.8874
565 6.74094
570 1.31216
575 0.688818
580 0.475804
585 0.345983
590 0.412629
595 0.429928
600 0.0489242
Ex : 558
200 0.133989
205 0.161793
210 0.168327
215 0.305845
220 0.145499
225 0.146847
230 0.113643
235 0.0953189
240 0.153978
245 0.137199
250 0.131418
255 0.207978
260 0.160414
265 0.132612
270 0.280887
275 0.142273
280 0.133558
285 0.185008
290 0.155702
295 0.107745
300 0.0850341
305 0.160481
310 0.124157
315 0.13106
320 0.107321
325 0.156239
330 0.140032
335 0.128051
340 0.170709
345 0.222643
350 0.0915629
355 0.108829
360 0.129418
365 0.250109
370 0.15013
375 0.18982
380 0.19825
385 0.0782378
390 0.176584
395 0.202434
400 0.151849
405 0.172775
410 0.155441
415 0.143326
420 0.11419
425 0.186613
430 0.14223
435 0.159757
440 0.317515
445 0.18546
450 0.2728
455 0.251883
460 0.191673
465 0.262384
470 0.299875
475 0.179229
480 0.287059
485 0.127246
490 0.180474
495 0.192549
500 0.295465
505 0.344193
510 0.216227
515 0.302842
520 0.416663
525 0.448095
530 0.507675
535 0.667418
540 1.36042
545 40.8517
550 837.024
555 1474.07
560 418.718
565 49.9015
570 6.41866
575 1.3649
580 0.736951
585 0.466971
590 0.318392
595 0.460051
600 0.664638
Ex : 563
200 0.125761
205 0.124672
210 0.132055
215 0.168156
220 0.210711
225 0.225346
230 0.148854
235 0.206945
240 0.163666
245 0.104894
250 0.112128
255 0.164574
260 0.136096
265 0.158763
270 0.165479
275 0.142122
280 0.109352
285 0.193746
290 0.148534
295 0.100921
300 0.100425
305 0.14231
310 0.135378
315 0.18222
320 0.173881
325 0.236084
330 0.203008
335 0.116449
340 0.136291
345 0.108493
350 0.101632
355 0.212842
360 0.175859
365 0.184614
370 0.132466
375 0.143837
380 0.130383
385 0.26162
390 0.201989
395 0.155163
400 0.130674
405 0.181091
410 0.213423
415 0.177583
420 0.178969
425 0.162685
430 0.231779
435 0.257891
440 0.188433
445 0.164796
450 0.204908
455 0.209326
460 0.138161
465 0.237406
470 0.243988
475 0.223012
480 0.278123
485 0.322068
490 0.230449
495 0.231865
500 0.236188
505 0.325302
510 0.268208
515 0.316033
520 0.313457
525 0.352769
530 0.483179
535 0.590176
540 0.742904
545 1.1033
550 40.2298
555 815.586
560 1422.04
565 408.304
570 48.5694
575 6.35427
580 1.24271
585 0.572722
590 0.503213
595 0.317613
600 0.124764
Ex : 568
200 0.225484
205 0.117516
210 0.148953
215 0.147823
220 0.176577
225 0.1482
230 0.13431
235 0.138895
240 0.155992
245 0.215316
250 0.201715
255 0.112484
260 0.134932
265 0.106251
270 0.152651
275 0.162653
280 0.162881
285 0.111921
290 0.230853
295 0.177043
300 0.289097
305 0.171059
310 0.186641
315 0.179495
320 0.144726
325 0.105048
330 0.11627
335 0.152439
340 0.182611
345 0.150848
350 0.192145
355 0.16322
360 0.175011
365 0.209767
370 0.189546
375 0.203179
380 0.126143
385 0.151878
390 0.101925
395 0.137316
400 0.181823
405 0.169602
410 0.181238
415 0.156879
420 0.162651
425 0.182921
430 0.155467
435 0.124857
440 0.220934
445 0.153563
450 0.138364
455 0.260737
460 0.267854
465 0.204434
470 0.303769
475 0.183412
480 0.282251
485 0.250798
490 0.193762
495 0.198713
500 0.232377
505 0.169397
510 0.245512
515 0.266405
520 0.171038
525 0.224225
530 0.468138
535 0.491853
540 0.533411
545 0.78975
550 1.04471
555 30.2499
560 737.519
565 1372.81
570 412.461
575 49.7403
580 6.32744
585 1.24361
590 0.591715
595 0.520975
600 0.243431
Ex : 573
200 0.0575291
205 0.0941993
210 0.181484
215 0.0655414
220 0.124235
225 0.110943
230 0.0857444
235 0.100468
240 0.235853
245 0.241182
250 0.142204
255 0.109377
260 0.171983
265 0.185011
270 0.220825
275 0.152616
280 0.160353
285 0.124756
290 0.231485
295 0.133161
300 0.126922
305 0.112879
310 0.168426
315 0.119728
320 0.120296
325 0.134593
330 0.198718
335 0.155269
340 0.241224
345 0.159023
350 0.0879183
355 0.153
360 0.192614
365 0.16795
370 0.206103
375 0.188513
380 0.155575
385 0.138922
390 0.233177
395 0.231837
400 0.115059
405 0.15205
410 0.284378
415 0.198551
420 0.175783
425 0.174126
430 0.161102
435 0.168628
440 0.123218
445 0.151253
450 0.162431
455 0.159365
460 0.0915484
465 0.196321
470 0.230188
475 0.176399
480 0.165288
485 0.234032
490 0.146103
495 0.192145
500 0.198253
505 0.130714
510 0.210991
515 0.297117
520 0.291921
525 0.28535
530 0.270592
535 0.253928
540 0.364487
545 0.406161
550 0.665518
555 1.10843
560 27.046
565 644.863
570 1278.67
575 392.439
580 47.0486
585 6.18367
590 1.10447
595 0.566251
600 0.0644372
Ex : 578
200 0.166314
205 0.0900778
210 0.128091
215 0.169236
220 0.199013
225 0.206229
230 0.113948
235 0.0900724
240 0.0798926
245 0.0600646
250 0.115128
255 0.0910697
260 0.130388
265 0.115289
270 0.17066
275 0.153769
280 0.169906
285 0.123637
290 0.177352
295 0.118197
300 0.208189
305 0.100942
310 0.063419
315 0.160986
320 0.16368
325 0.180721
330 0.0906244
335 0.136577
340 0.195076
345 0.126125
350 0.157303
355 0.132437
360 0.177905
365 0.212607
370 0.11916
375 0.186701
380 0.145149
385 0.172537
390 0.182928
395 0.108077
400 0.138816
405 0.190153
410 0.177378
415 0.364281
420 0.206609
425 0.194865
430 0.313935
435 0.181328
440 0.151374
445 0.246454
450 0.131412
455 0.182736
460 0.198701
465 0.184373
470 0.175853
475 0.164372
480 0.176259
485 0.273549
490 0.259761
495 0.172356
500 0.116857
505 0.170218
510 0.187137
515 0.163449
520 0.192717
525 0.225336
530 0.157747
535 0.449815
540 0.286092
545 0.406246
550 0.540363
555 0.586767
560 1.10382
565 22.6093
570 576.91
575 1110.51
580 334.695
585 39.7808
590 5.01431
595 0.83374
600 0.25162
Ex : 583
200 0.221258
205 0.130978
210 0.0962832
215 0.11427
220 0.12389
225 0.0533121
230 0.0490497
235 0.150978
240 0.132974
245 0.115141
250 0.0995142
255 0.0693505
260 0.258344
265 0.239786
270 0.199342
275 0.191152
280 0.172437
285 0.0982939
290 0.174508
295 0.168059
300 0.160492
305 0.120345
310 0.176927
315 0.210428
320 0.114473
325 0.0891072
330 0.148708
335 0.163781
340 0.13048
345 0.15401
350 0.0685292
355 0.179568
360 0.274852
365 0.207508
370 0.202618
375 0.313613
380 0.267352
385 0.204195
390 0.184392
395 0.114518
400 0.183455
405 0.356467
410 0.223456
415 0.196429
420 0.152844
425 0.140725
430 0.167917
435 0.206171
440 0.204493
445 0.210124
450 0.163516
455 0.14323
460 0.33331
465 0.227094
470 0.131264
475 0.14696
480 0.166136
485 0.191918
490 0.168646
495 0.140376
500 0.219768
505 0.149092
510 0.324271
515 0.200974
520 0.178892
525 0.239772
530 0.236521
535 0.194737
540 0.240321
545 0.249009
550 0.282625
555 0.426513
560 0.51314
565 1.03895
570 19.9566
575 510.841
580 976.222
585 282.142
590 33.859
595 4.39356
600 0.838451
Ex : 588
200 0.173343
205 0.207638
210 0.125615
215 0.0877189
220 0.11669
225 0.175306
230 0.17759
235 0.0954672
240 0.155547
245 0.084584
250 0.050776
255 0.0915795
260 0.0459871
265 0.185996
270 0.213166
275 0.202237
280 0.146898
285 0.127088
290 0.209134
295 0.167574
300 0.170716
305 0.12685
310 0.160569
315 0.1608
320 0.105051
325 0.255595
330 0.13924
335 0.185382
340 0.144094
345 0.138792
350 0.112571
355 0.141042
360 0.211373
365 0.17612
370 0.137329
375 0.139413
380 0.174154
385 0.129575
390 0.234403
395 0.149272
400 0.239953
405 0.20424
410 0.203264
415 0.176143
420 0.154888
425 0.160079
430 0.123883
435 0.12097
440 0.15464
445 0.16353
450 0.117556
455 0.124927
460 0.140288
465 0.165726
470 0.114698
475 0.163167
480 0.162898
485 0.241551
490 0.139908
495 0.253803
500 0.212123
505 0.185127
510 0.103177
515 0.237399
520 0.155419
525 0.148155
530 0.145387
535 0.231746
540 0.213249
545 0.339814
550 0.378139
555 0.334074
560 0.455569
565 0.663463
570 0.905002
575 17.2635
580 428.154
585 828.673
590 246.876
595 29.5434
600 5.62239
Ex : 593
200 0.0820559
205 0.0919403
210 0.139684
215 0.136947
220 0.176785
225 0.107129
230 0.0973093
235 0.162145
240 0.188448
245 0.10921
250 0.102932
255 0.0914748
260 0.0905807
265 0.156988
270 0.135993
275 0.127637
280 0.289559
285 0.180004
290 0.0945084
295 0.169137
300 0.160505
305 0.0860012
310 0.0868268
315 0.131447
320 0.135855
325 0.122177
330 0.117953
335 0.145271
340 0.100748
345 0.127926
350 0.161214
355 0.133468
360 0.203346
365 0.189684
370 0.0956637
375 0.0870343
380 0.115638
385 0.188142
390 0.135096
395 0.152478
400 0.178143
405 0.0827371
410 0.152916
415 0.281271
420 0.117696
425 0.0729134
430 0.190327
435 0.162474
440 0.101444
445 0.170789
450 0.153718
455 0.139472
460 0.180037
465 0.1939
470 0.212669
475 0.166572
480 0.248753
485 0.113656
490 0.148988
495 0.202983
500 0.301066
505 0.137688
510 0.131281
515 0.229445
520 0.196255
525 0.258074
530 0.217483
535 0.256781
540 0.265757
545 0.279608
550 0.216974
555 0.288434
560 0.423144
565 0.293667
570 0.575077
575 0.696697
580 15.5608
585 379.669
590 711.03
595 212.455
600 30.1535
Ex : 598
200 0.210992
205 0.116428
210 0.0856162
215 0.140926
220 0.165958
225 0.165208
230 0.142519
235 0.18596
240 0.176955
245 0.153042
250 0.217112
255 0.139191
260 0.111526
265 0.199198
270 0.0957744
275 0.190816
280 0.141792
285 0.100104
290 0.101907
295 0.115608
300 0.167439
305 0.107775
310 0.130874
315 0.0851275
320 0.196825
325 0.195237
330 0.241686
335 0.166292
340 0.340379
345 0.156522
350 0.232991
355 0.191487
360 0.130384
365 0.194298
370 0.172122
375 0.137005
380 0.196511
385 0.109116
390 0.157663
395 0.238267
400 0.191069
405 0.184858
410 0.114489
415 0.241209
420 0.278102
425 0.185696
430 0.236593
435 0.13215
440 0.211204
445 0.207091
450 0.110339
455 0.182863
460 0.198589
465 0.245154
470 0.253779
475 0.15398
480 0.161902
485 0.161964
490 0.19933
495 0.116595
500 0.191317
505 0.293813
510 0.19073
515 0.182051
520 0.134843
525 0.20103
530 0.239376
535 0.240735
540 0.253247
545 0.300778
550 0.201014
555 0.150433
560 0.248339
565 0.338153
570 0.505107
575 0.514254
580 0.564609
585 15.0376
590 343.226
595 626.334
600 397.952
Ex : 603
200 0.15001
205 0.170773
210 0.110818
215 0.0869148
220 0.112954
225 0.13805
230 0.147908
235 0.280568
240 0.218497
245 0.22641
250 0.248108
255 0.0998427
260 0.1484
265 0.206033
270 0.235092
275 0.181526
280 0.119882
285 0.221791
290 0.179795
295 0.224479
300 0.160253
305 0.164152
310 0.259379
315 0.198827
320 0.140072
325 0.113959
330 0.177426
335 0.106867
340 0.154164
345 0.232807
350 0.11774
355 0.113267
360 0.118519
365 0.183809
370 0.237055
375 0.19907
380 0.165533
385 0.159504
390 0.100331
395 0.101706
400 0.136287
405 0.292051
410 0.280992
415 0.189574
420 0.148399
425 0.191886
430 0.161383
435 0.171797
440 0.175432
445 0.175752
450 0.179286
455 0.102578
460 0.236807
465 0.193814
470 0.161622
475 0.115888
480 0.125168
485 0.196552
490 0.229165
495 0.103315
500 0.218346
505 0.115928
510 0.159459
515 0.210669
520 0.0940436
525 0.220961
530 0.168524
535 0.147552
540 0.174897
545 0.202902
550 0.148535
555 0.161892
560 0.232213
565 0.395896
570 0.302507
575 0.392826
580 0.488506
585 0.309218
590 13.5643
595 295.457
600 556.469
