File format V 1.0
ven. 6. janv. 02:31:55 2017
Operator : 
Comments : 

=============================================
SpectroFluorometer parameters
Mode : 3D measurement
Data : Fluorescence
Phospho. : Ordinary
Spectrum : Fluorescence

Scan speed : 2400 nm/mn
Response : 100 ms
PM Voltage : 700 V
Shutter : On

Lambda Ex. Start : 203
Lambda Ex. End : 603
Lambda Ex. Step : 5
Ex. Slit : 5 nm

Lambda Em. Start : 200
Lambda Em. End : 600
Lambda Em. Step : 5
Em. Slit : 5 nm

Repetition : 1
Decal lambda em : 10
=============================================
DATA
Ex : 203
200 3.98089
205 2.52926
210 8.2185
215 3.92067
220 2.32061
225 3.12491
230 3.66294
235 4.77155
240 3.46804
245 2.88213
250 2.66332
255 5.91196
260 2.2296
265 4.51226
270 3.51583
275 1.98687
280 2.87281
285 1.8763
290 2.16191
295 2.18838
300 4.91545
305 2.02302
310 4.95095
315 4.09025
320 6.43567
325 3.18356
330 4.68867
335 3.09105
340 5.56801
345 5.10289
350 4.96444
355 5.18722
360 5.76457
365 3.41179
370 7.21656
375 3.01429
380 5.08849
385 7.23112
390 4.90712
395 2.50016
400 3.02474
405 3.07616
410 8.08798
415 5.25783
420 2.29887
425 2.03401
430 3.07234
435 3.67584
440 3.41917
445 4.44697
450 6.35261
455 2.6303
460 4.35222
465 4.10869
470 8.06359
475 4.32558
480 4.50692
485 5.30428
490 4.29021
495 2.82901
500 2.93623
505 2.43271
510 6.75418
515 5.70685
520 3.68382
525 4.36968
530 4.96214
535 2.2249
540 8.07056
545 5.94222
550 3.75971
555 7.17191
560 6.43083
565 5.26338
570 2.63913
575 2.78287
580 5.27601
585 3.1222
590 3.21749
595 5.12168
600 0.582828
Ex : 208
200 2.66667
205 3.32517
210 4.90724
215 4.00019
220 3.30414
225 7.01372
230 5.28416
235 1.98671
240 3.05349
245 3.18802
250 1.78285
255 4.73639
260 2.428
265 5.76717
270 6.12389
275 3.71446
280 4.07385
285 3.43704
290 4.37057
295 1.91885
300 3.38252
305 6.35127
310 4.02107
315 2.75472
320 3.60866
325 3.99575
330 4.72563
335 3.30862
340 3.42643
345 1.98508
350 4.4237
355 7.32603
360 4.36574
365 2.90854
370 6.9126
375 6.61025
380 5.57778
385 3.69041
390 4.69874
395 5.38342
400 1.75445
405 3.00898
410 6.81506
415 2.65802
420 2.01117
425 4.5101
430 5.31739
435 4.0279
440 3.41029
445 2.84477
450 3.19502
455 3.2138
460 2.45938
465 4.82673
470 3.32717
475 3.15863
480 5.15925
485 2.5866
490 4.30589
495 4.06558
500 7.20764
505 2.86206
510 8.76438
515 3.06696
520 2.73736
525 4.38694
530 5.264
535 3.39443
540 2.59868
545 5.23549
550 3.53636
555 6.50738
560 3.60233
565 4.25015
570 4.39517
575 3.18209
580 1.70938
585 3.44996
590 3.3555
595 3.92666
600 0.446839
Ex : 213
200 5.06509
205 3.19177
210 3.50345
215 3.87533
220 2.11284
225 2.75769
230 0.851648
235 5.05043
240 2.39741
245 4.1639
250 3.3751
255 5.44566
260 3.05395
265 2.83964
270 2.29921
275 2.22311
280 4.88487
285 2.06764
290 1.53051
295 2.39243
300 2.96884
305 4.8366
310 2.75619
315 5.51349
320 3.94787
325 4.53061
330 3.86747
335 5.16073
340 2.78552
345 3.36946
350 3.01917
355 3.57147
360 4.92892
365 8.02122
370 6.45156
375 1.65467
380 5.18771
385 3.745
390 7.13351
395 3.43036
400 4.36264
405 4.10412
410 3.44256
415 5.40317
420 6.70881
425 4.38262
430 4.51699
435 5.89985
440 7.00141
445 2.349
450 2.63448
455 3.35424
460 2.33726
465 4.00575
470 2.08832
475 5.15578
480 5.28417
485 3.47327
490 2.3413
495 3.46309
500 5.339
505 2.87809
510 3.75885
515 4.73568
520 3.38568
525 8.19284
530 3.22023
535 5.20341
540 9.22154
545 4.91259
550 3.1056
555 4.55324
560 4.65564
565 2.54172
570 2.68438
575 1.57366
580 7.62319
585 4.36051
590 5.5984
595 2.08331
600 0.768795
Ex : 218
200 2.93289
205 6.42105
210 4.3316
215 1.46774
220 2.88472
225 3.76719
230 1.85526
235 5.21729
240 2.40465
245 6.78752
250 4.00032
255 1.46306
260 1.27698
265 6.00883
270 3.87527
275 3.91892
280 4.47469
285 1.77011
290 5.18157
295 5.2299
300 1.2128
305 1.84136
310 1.96684
315 1.78396
320 2.83247
325 1.8595
330 2.30241
335 2.60578
340 2.28343
345 1.94885
350 4.23397
355 4.91844
360 3.76949
365 3.50039
370 3.79739
375 3.26462
380 8.98983
385 5.63612
390 2.48195
395 6.64804
400 3.80215
405 6.19568
410 3.75447
415 1.76216
420 3.29934
425 5.35898
430 5.66782
435 2.9942
440 2.86507
445 2.16133
450 3.79077
455 3.45203
460 2.1483
465 4.82693
470 2.85779
475 3.01297
480 6.50466
485 4.14601
490 2.8724
495 3.34753
500 2.71192
505 3.28132
510 3.23172
515 3.47226
520 2.59635
525 3.04706
530 4.23283
535 2.99755
540 5.32402
545 5.02572
550 2.37734
555 3.82571
560 1.96824
565 1.65334
570 3.56032
575 3.10568
580 2.86527
585 4.95899
590 9.56596
595 6.65559
600 3.71139
Ex : 223
200 4.92121
205 1.94805
210 3.02231
215 6.19633
220 3.16564
225 8.0351
230 3.47451
235 4.96413
240 2.68625
245 3.34736
250 1.72727
255 5.41345
260 2.5866
265 2.70286
270 2.96043
275 4.21071
280 3.22639
285 4.28122
290 2.6488
295 6.14924
300 5.33738
305 2.13809
310 6.58967
315 5.18608
320 4.42299
325 1.99448
330 2.40882
335 2.71558
340 2.29758
345 1.61186
350 2.78595
355 4.56432
360 5.4139
365 4.96706
370 3.85685
375 3.7813
380 2.99743
385 4.32901
390 4.27624
395 3.24917
400 8.30476
405 3.90464
410 3.86182
415 3.11448
420 3.43662
425 6.89558
430 5.10697
435 2.70079
440 3.90139
445 3.77961
450 1.78895
455 3.33694
460 2.95292
465 2.57426
470 2.56948
475 6.19859
480 7.86318
485 4.2823
490 3.52572
495 4.39188
500 2.96933
505 3.06943
510 3.82593
515 2.44411
520 3.90098
525 5.63624
530 5.4709
535 2.93534
540 2.20119
545 2.21555
550 3.00457
555 4.96584
560 5.47066
565 2.74598
570 3.21228
575 4.83558
580 4.84893
585 1.692
590 4.41863
595 2.89172
600 0.329067
Ex : 228
200 2.3631
205 3.995
210 1.7341
215 2.74259
220 5.14544
225 3.86564
230 4.20875
235 3.80761
240 1.25018
245 4.31109
250 2.18144
255 1.79163
260 4.22548
265 4.0851
270 3.6511
275 4.26968
280 2.33934
285 2.91414
290 3.56146
295 2.64384
300 4.08787
305 1.29832
310 2.86174
315 3.69755
320 3.31413
325 6.20379
330 4.11402
335 2.32598
340 5.39454
345 3.75272
350 1.95638
355 5.05505
360 5.0552
365 5.39066
370 5.07147
375 2.96935
380 4.09739
385 2.06576
390 3.21594
395 4.27475
400 4.80606
405 4.62757
410 3.84471
415 3.51415
420 3.84976
425 5.16628
430 3.87659
435 1.76219
440 2.27011
445 2.42045
450 3.72858
455 2.1369
460 6.09783
465 7.10006
470 4.93989
475 2.68707
480 4.4414
485 2.46223
490 4.05686
495 4.78773
500 8.35855
505 3.11745
510 5.74496
515 2.97476
520 3.79992
525 2.79026
530 2.88861
535 3.69188
540 4.29335
545 2.20661
550 2.82004
555 2.07768
560 4.16993
565 2.89576
570 3.92482
575 4.8559
580 7.13427
585 4.92637
590 3.56755
595 3.10151
600 0.35294
Ex : 233
200 3.05641
205 2.41562
210 1.8186
215 1.67919
220 3.80136
225 5.20406
230 3.32721
235 6.99297
240 2.96626
245 4.04143
250 1.34121
255 4.03628
260 3.62939
265 2.47488
270 1.20495
275 2.71203
280 5.76257
285 4.40435
290 3.53621
295 5.37842
300 4.9654
305 3.84117
310 1.9904
315 3.60515
320 2.93617
325 2.40358
330 1.53261
335 2.90372
340 1.20293
345 4.81045
350 2.6764
355 2.39217
360 5.41313
365 2.75846
370 6.0649
375 3.5192
380 2.66166
385 1.92682
390 4.94912
395 7.98003
400 2.65489
405 3.20848
410 6.59728
415 3.12538
420 3.69083
425 6.77982
430 2.63206
435 4.34797
440 1.99893
445 2.07909
450 5.2693
455 1.98717
460 3.17857
465 4.18375
470 3.43611
475 1.71069
480 3.94689
485 3.13649
490 2.42318
495 5.18355
500 3.62266
505 3.73679
510 2.16905
515 2.7546
520 3.51289
525 2.04292
530 2.5893
535 5.04709
540 4.02294
545 2.16655
550 1.76088
555 2.99312
560 2.84063
565 5.69404
570 1.67577
575 3.23297
580 1.7088
585 1.34607
590 2.55171
595 3.34754
600 6.22988
Ex : 238
200 1.30841
205 2.08477
210 1.586
215 3.56375
220 2.94059
225 3.37044
230 1.8313
235 1.73911
240 1.94592
245 1.75618
250 1.68679
255 2.68981
260 1.89529
265 6.1237
270 1.74146
275 3.50865
280 1.95762
285 2.20155
290 3.74296
295 2.16393
300 2.48266
305 2.38839
310 1.75022
315 2.91343
320 2.99938
325 1.67758
330 3.27557
335 2.08608
340 2.55689
345 3.87305
350 4.42217
355 2.28899
360 2.85125
365 2.22227
370 3.2937
375 1.42805
380 1.82302
385 7.20802
390 4.11795
395 3.03438
400 2.71419
405 3.33292
410 3.07623
415 2.32258
420 1.64678
425 4.01917
430 1.2446
435 3.04115
440 2.11031
445 1.89731
450 2.21206
455 3.72411
460 5.13678
465 3.83108
470 2.14535
475 3.20262
480 1.29346
485 2.65743
490 3.28056
495 3.81058
500 3.64612
505 2.33026
510 2.3273
515 2.62805
520 1.8171
525 5.21049
530 5.3509
535 5.27571
540 3.10913
545 1.76683
550 2.90089
555 2.95414
560 2.18726
565 3.70375
570 3.84675
575 2.79514
580 2.70717
585 2.33247
590 1.9049
595 3.60164
600 0.409853
Ex : 243
200 1.32766
205 2.122
210 2.03274
215 1.803
220 2.59111
225 1.92562
230 1.39816
235 1.60276
240 1.81904
245 1.55963
250 1.69874
255 7.69426
260 4.36031
265 2.20851
270 1.43671
275 2.09811
280 2.08501
285 1.95035
290 2.51522
295 1.88217
300 2.00903
305 1.45884
310 0.761715
315 3.29679
320 2.81033
325 2.77525
330 5.34017
335 5.15281
340 3.04805
345 2.21394
350 2.05097
355 2.15783
360 2.32094
365 2.83056
370 5.2637
375 2.40463
380 2.06539
385 2.5937
390 1.83319
395 3.03509
400 2.91319
405 3.00534
410 1.47023
415 2.87645
420 2.80161
425 1.61606
430 2.2396
435 1.90378
440 1.25838
445 1.73467
450 2.96205
455 3.29706
460 2.42289
465 3.80176
470 2.22255
475 3.23548
480 2.40535
485 2.97037
490 5.45584
495 1.85481
500 2.54063
505 1.54277
510 3.18272
515 3.12969
520 2.58967
525 1.89277
530 1.00599
535 1.35827
540 3.64299
545 5.4797
550 2.90238
555 2.82176
560 2.36922
565 3.85662
570 3.09361
575 3.84783
580 3.88422
585 1.54445
590 2.73788
595 3.68974
600 0.419878
Ex : 248
200 2.5529
205 1.54181
210 2.50757
215 3.36279
220 1.59665
225 2.80163
230 2.29717
235 3.15147
240 3.73494
245 3.06401
250 1.25065
255 2.92531
260 1.2788
265 1.5951
270 0.727115
275 1.04331
280 4.02435
285 1.43604
290 1.47293
295 1.44876
300 1.26572
305 1.88212
310 1.18404
315 2.17301
320 1.33042
325 1.38085
330 3.87608
335 1.94271
340 1.80643
345 1.17679
350 2.6208
355 3.50245
360 1.47054
365 2.19861
370 2.50858
375 3.0161
380 0.723914
385 3.14269
390 1.45818
395 3.36901
400 1.17041
405 1.70733
410 2.54479
415 1.95627
420 4.01795
425 2.36859
430 1.81265
435 3.15632
440 0.984184
445 2.88024
450 3.33065
455 2.59291
460 2.77763
465 3.64247
470 1.36539
475 1.38357
480 3.34477
485 2.81611
490 2.2571
495 1.74742
500 1.41188
505 2.95735
510 3.23208
515 1.97125
520 2.85788
525 2.18593
530 3.82901
535 2.37621
540 1.78706
545 1.9194
550 2.88633
555 1.83591
560 2.11102
565 0.8065
570 1.17457
575 2.92401
580 2.0807
585 1.51145
590 3.03656
595 2.22634
600 3.67156
Ex : 253
200 0.825843
205 2.78433
210 0.810879
215 2.30654
220 1.37335
225 1.82884
230 1.39399
235 2.89596
240 1.43599
245 1.52899
250 1.7458
255 0.896649
260 2.711
265 1.20486
270 2.65294
275 1.62482
280 1.59769
285 1.38507
290 1.74083
295 1.5639
300 1.35785
305 4.62628
310 2.05921
315 2.67266
320 1.05203
325 1.24192
330 2.23764
335 3.60363
340 1.47158
345 1.41155
350 2.00689
355 2.13902
360 2.5837
365 3.11815
370 3.04951
375 4.4387
380 1.92458
385 2.6357
390 2.41474
395 1.63461
400 1.83688
405 4.59999
410 1.23914
415 2.93367
420 1.61336
425 2.98864
430 2.4281
435 1.18727
440 1.86061
445 1.12347
450 2.25883
455 2.59317
460 1.72665
465 1.137
470 3.00396
475 2.71677
480 2.71344
485 1.14006
490 1.88945
495 1.37974
500 1.75717
505 3.04227
510 2.86252
515 1.7482
520 1.86089
525 1.85686
530 1.87945
535 2.30922
540 2.82929
545 1.4816
550 1.60209
555 1.51401
560 2.86069
565 1.73861
570 1.49812
575 1.10099
580 3.0221
585 2.72066
590 1.64759
595 0.708197
600 0.0805902
Ex : 258
200 1.14286
205 1.73449
210 1.24212
215 1.67717
220 1.64494
225 0.960858
230 1.27107
235 2.44183
240 1.07172
245 0.498398
250 1.12579
255 2.39063
260 0.749841
265 1.55373
270 1.14732
275 1.63573
280 1.00568
285 0.922629
290 0.820695
295 1.064
300 1.68192
305 1.81061
310 1.58867
315 1.80179
320 0.660115
325 1.35271
330 0.823599
335 0.574638
340 1.2141
345 1.92423
350 1.01961
355 0.860923
360 0.97054
365 2.23575
370 2.19374
375 2.23068
380 2.37462
385 1.24405
390 1.39031
395 1.23821
400 1.63936
405 1.23917
410 1.8633
415 3.25562
420 1.55675
425 3.13387
430 2.31196
435 2.0355
440 1.51524
445 1.87926
450 2.17631
455 1.73359
460 3.00229
465 1.45921
470 2.9887
475 1.81238
480 2.02777
485 2.00516
490 1.03741
495 1.36238
500 1.19417
505 1.42601
510 1.91664
515 0.980473
520 1.07045
525 1.35778
530 1.2698
535 2.45382
540 0.766549
545 1.27013
550 2.14488
555 0.732312
560 0.625459
565 0.280499
570 3.17354
575 1.4988
580 1.81442
585 1.52396
590 1.12005
595 1.53874
600 0.175103
Ex : 263
200 0.525862
205 1.00685
210 1.01166
215 0.73921
220 1.00382
225 2.30724
230 0.975236
235 1.21755
240 1.79825
245 0.756973
250 0.655626
255 1.04896
260 0.749079
265 0.503381
270 1.17835
275 0.634796
280 0.742024
285 2.2969
290 0.790045
295 0.403508
300 1.82934
305 1.10064
310 0.820888
315 0.504475
320 1.95818
325 1.43474
330 0.836532
335 0.483688
340 0.538285
345 1.69948
350 1.66312
355 0.86024
360 1.48074
365 1.20241
370 1.65428
375 1.43138
380 1.26868
385 1.24898
390 0.710288
395 0.671631
400 1.21139
405 2.64146
410 1.19148
415 0.820589
420 1.11545
425 0.823684
430 0.847783
435 1.39909
440 0.79617
445 1.51837
450 1.36986
455 1.32364
460 1.24627
465 0.673233
470 1.1054
475 0.848625
480 0.8555
485 1.51986
490 1.12849
495 0.911717
500 0.876298
505 0.863852
510 2.01355
515 1.86846
520 2.2542
525 2.59907
530 1.93291
535 0.779585
540 1.14059
545 1.30167
550 0.787052
555 1.29499
560 1.29006
565 1.46177
570 0.940062
575 0.952326
580 0.751906
585 0.595943
590 1.16621
595 0.906041
600 0.752987
Ex : 268
200 0.524005
205 0.432447
210 0.476906
215 1.26341
220 1.55092
225 0.74495
230 0.34095
235 0.800495
240 1.62237
245 1.11999
250 0.945958
255 0.694034
260 0.984447
265 1.57216
270 1.0077
275 1.34524
280 1.0141
285 0.46223
290 0.518191
295 0.936627
300 0.871776
305 0.533189
310 0.394999
315 0.741518
320 1.20587
325 0.877986
330 0.444614
335 1.82784
340 0.768485
345 0.814968
350 0.915473
355 1.03487
360 0.686091
365 1.51709
370 1.40149
375 0.980814
380 1.05389
385 0.73821
390 0.796687
395 0.767621
400 1.18764
405 1.70831
410 0.903854
415 0.644974
420 1.20536
425 0.690733
430 0.42161
435 1.22721
440 0.735715
445 1.37667
450 1.13582
455 0.607384
460 0.68464
465 0.785658
470 0.681413
475 0.843338
480 0.796831
485 1.25526
490 0.49612
495 1.06203
500 0.623156
505 2.16834
510 1.67822
515 1.38474
520 1.24491
525 0.791226
530 0.881552
535 1.3454
540 1.45239
545 0.552159
550 1.25723
555 1.19866
560 1.28159
565 0.644856
570 1.06697
575 1.20892
580 1.05791
585 0.922776
590 1.05713
595 0.457493
600 0.0520609
Ex : 273
200 0.812981
205 0.982639
210 0.997039
215 0.803272
220 0.378559
225 0.659568
230 0.880074
235 0.28153
240 0.1667
245 1.13614
250 0.514469
255 0.560629
260 0.911211
265 0.655835
270 0.552639
275 0.615903
280 1.09554
285 0.80546
290 0.547763
295 0.481444
300 0.422477
305 0.570584
310 0.755935
315 0.753578
320 0.406655
325 1.14348
330 1.51031
335 0.889079
340 1.70859
345 1.01125
350 0.970789
355 0.892417
360 1.64897
365 0.784054
370 0.500499
375 0.475579
380 1.08406
385 1.14508
390 0.449261
395 1.16203
400 1.3341
405 0.654161
410 0.641257
415 0.585218
420 0.986578
425 1.42894
430 0.819164
435 1.19653
440 0.711209
445 0.624154
450 1.54341
455 0.8694
460 0.784265
465 0.916241
470 0.577839
475 1.01623
480 0.408381
485 1.30644
490 0.481486
495 0.592422
500 0.814005
505 1.1366
510 0.503362
515 0.65236
520 0.619517
525 0.588826
530 0.653551
535 0.571003
540 1.75415
545 1.17926
550 1.08667
555 0.807867
560 0.581372
565 0.648098
570 0.935311
575 0.396929
580 1.03168
585 0.436396
590 0.608225
595 1.0885
600 1.16419
Ex : 278
200 1.15756
205 0.775659
210 0.412072
215 0.301696
220 0.444522
225 0.419169
230 0.404545
235 0.283583
240 0.437713
245 0.1943
250 0.262141
255 0.610149
260 0.63309
265 1.36027
270 1.24201
275 0.894971
280 0.343828
285 0.470641
290 0.257881
295 0.657904
300 0.383841
305 0.927462
310 0.547441
315 0.933249
320 0.455723
325 0.232237
330 0.370754
335 0.330853
340 0.549107
345 0.743572
350 0.582161
355 0.625287
360 1.10135
365 0.826808
370 0.690479
375 0.57453
380 0.566037
385 0.641495
390 0.898141
395 0.933923
400 0.806808
405 0.656997
410 0.360842
415 0.768245
420 1.68484
425 0.81479
430 1.12227
435 0.624692
440 1.28366
445 0.660412
450 0.740399
455 0.475907
460 0.519194
465 0.506524
470 0.470668
475 0.919605
480 0.941217
485 0.503461
490 0.452612
495 0.360961
500 0.645085
505 0.495525
510 0.664851
515 0.5483
520 0.803583
525 0.525717
530 0.499304
535 0.335111
540 0.43014
545 0.953498
550 0.919134
555 0.970638
560 0.616743
565 0.375715
570 0.329421
575 0.498313
580 1.00547
585 0.379878
590 0.368544
595 0.253822
600 2.09669
Ex : 283
200 0.110461
205 0.612217
210 0.426255
215 0.332332
220 0.324415
225 0.490538
230 0.423495
235 0.637222
240 0.552706
245 0.409556
250 0.426219
255 0.729445
260 0.372919
265 0.284737
270 0.279853
275 0.585559
280 0.453689
285 1.18418
290 0.459962
295 0.612189
300 0.487475
305 0.675617
310 0.777142
315 0.309654
320 0.315715
325 0.37073
330 0.63914
335 0.551833
340 0.373848
345 0.763533
350 0.64733
355 0.497931
360 0.400671
365 0.52212
370 0.722925
375 0.399861
380 0.685466
385 1.14501
390 0.676714
395 0.526425
400 0.803365
405 0.666524
410 0.718525
415 0.660151
420 0.814956
425 0.70539
430 1.11418
435 0.480736
440 0.80778
445 0.966858
450 1.01138
455 0.542345
460 0.588684
465 0.748685
470 0.873008
475 0.711357
480 0.547167
485 0.312942
490 0.478714
495 0.630574
500 0.784688
505 0.275689
510 0.470512
515 0.522163
520 0.238518
525 0.57493
530 0.53307
535 0.556482
540 0.211026
545 0.57665
550 0.860375
555 0.875717
560 0.959541
565 1.16662
570 0.511349
575 0.433632
580 0.407428
585 0.532687
590 0.436184
595 0.679636
600 0.0773399
Ex : 288
200 0.242553
205 0.314736
210 0.372496
215 0.355687
220 0.246339
225 0.352387
230 0.598101
235 0.365287
240 0.414015
245 0.580588
250 0.534325
255 0.620424
260 0.256738
265 0.242995
270 0.211175
275 0.561292
280 0.53991
285 0.456272
290 0.432661
295 0.397779
300 0.661252
305 0.396115
310 0.308245
315 0.516128
320 0.449255
325 0.299172
330 0.652223
335 0.366876
340 0.729607
345 0.670725
350 0.354058
355 0.473681
360 0.284207
365 0.322452
370 0.729885
375 0.5068
380 0.589613
385 0.503592
390 0.588258
395 0.531881
400 0.587936
405 0.481014
410 0.573705
415 0.992875
420 0.492081
425 0.606073
430 0.528461
435 1.11632
440 0.674928
445 0.582971
450 0.704847
455 0.538761
460 0.501355
465 0.795555
470 0.666185
475 0.745435
480 0.621937
485 0.452304
490 0.364378
495 0.939178
500 0.483291
505 0.296689
510 0.441086
515 0.286551
520 0.641874
525 0.628639
530 0.516029
535 0.163595
540 0.353564
545 0.406561
550 0.478048
555 0.699012
560 0.473168
565 0.443379
570 0.84291
575 0.688373
580 0.273255
585 0.330914
590 0.153907
595 0.123395
600 0.0140419
Ex : 293
200 0.352758
205 0.366367
210 0.167554
215 0.192942
220 0.301588
225 0.198847
230 0.148691
235 0.325289
240 0.477777
245 0.40147
250 0.197459
255 0.14814
260 0.103971
265 0.263562
270 0.297215
275 0.408736
280 0.240921
285 0.569116
290 0.439804
295 0.227662
300 0.354988
305 0.476172
310 0.165431
315 0.140012
320 0.316685
325 0.35906
330 0.605022
335 0.217731
340 0.567994
345 0.404904
350 0.30678
355 0.258339
360 0.852837
365 0.933425
370 0.472436
375 0.684294
380 0.485524
385 0.884371
390 0.676132
395 0.836747
400 0.431107
405 0.438089
410 0.64733
415 0.5745
420 0.576701
425 0.817359
430 0.482527
435 0.557915
440 0.548035
445 0.36988
450 0.361531
455 0.532127
460 0.577039
465 0.530285
470 0.591231
475 0.325135
480 0.313061
485 0.374662
490 0.571656
495 0.282864
500 0.400695
505 0.642045
510 0.298145
515 0.3751
520 0.330619
525 0.18548
530 0.505993
535 0.2595
540 0.210321
545 0.301748
550 0.260533
555 0.124464
560 0.398278
565 0.803192
570 0.539387
575 0.693514
580 0.87824
585 0.438949
590 0.470073
595 0.329386
600 1.30899
Ex : 298
200 0.675295
205 0.259598
210 0.114963
215 0.112583
220 0.444014
225 0.223375
230 0.127108
235 0.19034
240 0.226479
245 0.354853
250 0.293408
255 0.12582
260 0.341881
265 0.275065
270 0.361344
275 0.311803
280 0.321813
285 0.288078
290 0.285409
295 0.314727
300 0.216442
305 0.43957
310 0.315274
315 0.315922
320 0.208369
325 0.167235
330 0.234362
335 0.542168
340 0.454709
345 0.3412
350 0.264004
355 0.388812
360 0.370271
365 0.769058
370 0.539092
375 0.457147
380 0.707359
385 0.501957
390 0.321208
395 0.997555
400 0.542392
405 0.506236
410 0.518908
415 0.579423
420 0.685797
425 0.495435
430 0.52837
435 0.715974
440 0.355209
445 0.496461
450 0.644047
455 0.572361
460 0.601994
465 0.461831
470 0.428594
475 0.826734
480 0.500828
485 0.42338
490 0.249369
495 0.272022
500 0.224345
505 0.301534
510 0.529033
515 0.427633
520 0.240089
525 0.430578
530 0.312585
535 0.381713
540 0.577165
545 0.317663
550 0.276551
555 0.398635
560 0.239245
565 0.156055
570 0.159002
575 0.172164
580 0.29476
585 0.491016
590 0.763312
595 0.698258
600 0.0794592
Ex : 303
200 0.227947
205 0.13409
210 0.0969383
215 0.2218
220 0.297461
225 0.200986
230 0.153278
235 0.357832
240 0.189883
245 0.336641
250 0.194431
255 0.276077
260 0.167163
265 0.0847584
270 0.255832
275 0.199402
280 0.19867
285 0.161758
290 0.179062
295 0.21965
300 0.361515
305 0.354309
310 0.348518
315 0.354546
320 0.270849
325 0.259711
330 0.184868
335 0.389008
340 0.36646
345 0.37499
350 0.587115
355 0.369722
360 0.308107
365 0.714169
370 0.401512
375 0.519674
380 0.458102
385 0.528565
390 0.651893
395 0.576119
400 0.537947
405 0.48587
410 0.532423
415 0.503166
420 0.492678
425 0.532041
430 0.430735
435 0.320353
440 0.383215
445 0.473617
450 0.534141
455 0.576468
460 0.61465
465 0.510047
470 0.495889
475 0.27868
480 0.574666
485 0.577463
490 0.404412
495 0.388457
500 0.270395
505 0.392358
510 0.496508
515 0.285142
520 0.220069
525 0.289545
530 0.213075
535 0.409355
540 0.125513
545 0.300965
550 0.184281
555 0.351152
560 0.315699
565 0.237017
570 0.21151
575 0.224258
580 0.362151
585 0.42816
590 0.233494
595 0.590265
600 0.0671699
Ex : 308
200 0.0890646
205 0.10966
210 0.133478
215 0.236968
220 0.193892
225 0.13184
230 0.0659627
235 0.178083
240 0.191282
245 0.24936
250 0.274932
255 0.205957
260 0.210868
265 0.106262
270 0.192638
275 0.196036
280 0.109491
285 0.168957
290 0.267425
295 0.50385
300 0.562167
305 0.495107
310 0.235251
315 0.348303
320 0.157368
325 0.246387
330 0.217074
335 0.244869
340 0.452543
345 0.332384
350 0.315759
355 0.476743
360 0.551368
365 0.324978
370 0.297827
375 0.458939
380 0.435308
385 0.837984
390 0.556063
395 0.486847
400 0.51753
405 0.525155
410 0.424275
415 0.64921
420 0.555065
425 0.386144
430 0.539956
435 0.361744
440 0.285298
445 0.554551
450 0.324689
455 0.589981
460 0.332359
465 0.384771
470 0.272966
475 0.313861
480 0.47744
485 0.404236
490 0.241469
495 0.227411
500 0.246818
505 0.161094
510 0.212894
515 0.203009
520 0.271753
525 0.306626
530 0.237639
535 0.245142
540 0.235069
545 0.117855
550 0.0980884
555 0.124731
560 0.189413
565 0.179245
570 0.237427
575 0.193657
580 0.103746
585 0.382975
590 0.256063
595 0.238706
600 0.0271638
Ex : 313
200 0.0787355
205 0.164846
210 0.109555
215 0.25394
220 0.111571
225 0.147966
230 0.196408
235 0.243161
240 0.134241
245 0.151164
250 0.15587
255 0.224501
260 0.128956
265 0.14304
270 0.231171
275 0.0976317
280 0.0671175
285 0.0773964
290 0.132257
295 0.154429
300 0.206979
305 0.541157
310 0.691949
315 0.405139
320 0.440091
325 0.426898
330 0.559186
335 0.314415
340 0.565051
345 0.290332
350 0.402712
355 0.461202
360 0.762785
365 0.455943
370 0.728001
375 0.867111
380 0.809951
385 0.948
390 1.15296
395 0.977064
400 1.33169
405 1.17982
410 1.09889
415 1.04541
420 1.27552
425 1.10751
430 0.830552
435 1.01637
440 0.885806
445 0.747701
450 0.721885
455 0.835555
460 0.676563
465 0.601299
470 0.616275
475 0.677935
480 0.438638
485 0.585195
490 0.453572
495 0.595107
500 0.456383
505 0.452078
510 0.281042
515 0.292488
520 0.335532
525 0.422089
530 0.240253
535 0.340874
540 0.455686
545 0.286321
550 0.2717
555 0.16181
560 0.286652
565 0.140629
570 0.152199
575 0.108137
580 0.332733
585 0.310644
590 0.290729
595 0.219653
600 4.0683
Ex : 318
200 0.171543
205 0.108093
210 0.214154
215 0.0927214
220 0.227068
225 0.101357
230 0.195832
235 0.0600919
240 0.0933435
245 0.271647
250 0.178057
255 0.180143
260 0.0538334
265 0.117738
270 0.0608228
275 0.211357
280 0.105895
285 0.280915
290 0.14444
295 0.0952999
300 0.211866
305 0.162318
310 0.509672
315 2.19441
320 1.28251
325 0.619248
330 0.685601
335 0.916705
340 1.18029
345 1.81954
350 2.50735
355 3.27925
360 3.96838
365 5.3884
370 6.56555
375 8.48472
380 9.42229
385 9.79294
390 10.7142
395 11.5504
400 12.0009
405 12.5785
410 12.9326
415 12.5659
420 12.0098
425 11.4682
430 11.3285
435 10.6392
440 9.86045
445 10.0431
450 9.13234
455 8.5241
460 8.2073
465 7.35557
470 7.03095
475 5.95171
480 5.66428
485 4.87916
490 5.10659
495 3.88978
500 3.84408
505 2.92029
510 2.40572
515 2.30651
520 1.73861
525 1.34087
530 0.951278
535 0.83864
540 0.920955
545 0.632798
550 0.609893
555 0.868841
560 0.52921
565 0.449025
570 0.477903
575 0.313048
580 0.294258
585 0.210963
590 0.229045
595 0.225839
600 0.0256996
Ex : 323
200 0.231422
205 0.215032
210 0.250394
215 0.128532
220 0.159711
225 0.0855962
230 0.174239
235 0.187999
240 0.146131
245 0.133475
250 0.14697
255 0.209533
260 0.236524
265 0.187157
270 0.127837
275 0.10382
280 0.144386
285 0.214669
290 0.132887
295 0.0746685
300 0.139481
305 0.141812
310 0.161977
315 14.7053
320 60.2671
325 25.0329
330 4.72476
335 3.30686
340 4.51927
345 6.31463
350 8.76816
355 12.6624
360 15.3467
365 18.7024
370 22.3762
375 25.3793
380 29.4405
385 31.8604
390 35.6702
395 36.4201
400 37.7855
405 39.175
410 39.6394
415 39.0057
420 38.1873
425 37.0993
430 35.4718
435 34.0508
440 31.6525
445 30.5374
450 28.7722
455 27.189
460 24.9607
465 23.4114
470 22.2613
475 20.079
480 18.2293
485 16.0388
490 14.307
495 12.8564
500 11.8741
505 9.89841
510 8.57876
515 7.48754
520 6.41322
525 5.85279
530 4.57305
535 4.10655
540 3.33171
545 3.14073
550 2.31733
555 1.5483
560 1.53407
565 1.348
570 1.13382
575 0.830849
580 0.494626
585 0.505493
590 0.602604
595 0.361506
600 0.041138
Ex : 328
200 0.0527542
205 0.17741
210 0.101099
215 0.132273
220 0.0495721
225 0.130748
230 0.0873427
235 0.11908
240 0.120935
245 0.203433
250 0.198985
255 0.208513
260 0.103563
265 0.126481
270 0.11326
275 0.196551
280 0.151744
285 0.189875
290 0.220442
295 0.265206
300 0.250112
305 0.126992
310 0.0987524
315 3.22882
320 128.071
325 291.182
330 84.4393
335 12.9062
340 6.30071
345 6.67964
350 8.5621
355 12.6039
360 17.0357
365 19.0325
370 20.8244
375 24.3685
380 27.2097
385 31.0045
390 34.2766
395 35.8191
400 35.9299
405 37.8247
410 37.1714
415 37.1049
420 35.5151
425 33.6903
430 32.9344
435 31.2481
440 30.3155
445 28.9235
450 26.7385
455 24.6018
460 22.7625
465 21.7181
470 20.2281
475 18.2091
480 16.1301
485 15.148
490 13.1762
495 11.7272
500 10.8642
505 9.36471
510 8.06444
515 6.97255
520 5.87797
525 5.60235
530 5.10041
535 3.83459
540 3.06101
545 2.882
550 2.16416
555 1.91688
560 1.5062
565 1.43571
570 0.885449
575 0.995887
580 0.627794
585 0.576697
590 0.4136
595 0.358025
600 0.0644795
Ex : 333
200 0.140015
205 0.215821
210 0.116033
215 0.112484
220 0.205002
225 0.149732
230 0.137214
235 0.141523
240 0.14406
245 0.141221
250 0.117267
255 0.141887
260 0.179059
265 0.12133
270 0.166393
275 0.0895967
280 0.124156
285 0.097548
290 0.133425
295 0.13126
300 0.187158
305 0.187883
310 0.181662
315 0.162409
320 15.6461
325 318.769
330 528.351
335 136.746
340 19.2327
345 6.65928
350 5.66382
355 6.3723
360 9.47915
365 14.1863
370 13.9212
375 13.7857
380 15.4019
385 17.6627
390 20.0939
395 20.7323
400 21.2215
405 21.8393
410 22.4528
415 21.9103
420 20.966
425 20.0603
430 19.1983
435 17.2136
440 17.1925
445 15.7159
450 14.7822
455 13.6973
460 12.673
465 11.2539
470 10.9479
475 9.78938
480 8.60311
485 8.21392
490 7.59421
495 6.8118
500 5.73975
505 4.99594
510 4.58727
515 3.76749
520 3.2503
525 3.0466
530 2.59287
535 2.30264
540 1.97752
545 1.86539
550 1.19243
555 1.25162
560 1.07612
565 0.76537
570 0.87888
575 0.534396
580 0.449226
585 0.435153
590 0.380205
595 0.237706
600 0.165853
Ex : 338
200 0.134993
205 0.104923
210 0.202892
215 0.207649
220 0.0987981
225 0.170301
230 0.0751635
235 0.180303
240 0.115011
245 0.157665
250 0.126238
255 0.0927988
260 0.246653
265 0.119173
270 0.0910197
275 0.140131
280 0.189236
285 0.194939
290 0.0800099
295 0.110991
300 0.189903
305 0.126516
310 0.123224
315 0.185088
320 0.34458
325 28.8989
330 458.488
335 676.795
340 166.998
345 22.3026
350 6.04005
355 4.17694
360 3.43241
365 5.24098
370 9.5476
375 10.0128
380 9.76091
385 9.9117
390 11.9663
395 13.0885
400 13.2922
405 12.3734
410 13.3753
415 14.6782
420 13.2319
425 12.2675
430 10.7764
435 10.6914
440 10.2826
445 10.3822
450 8.90945
455 8.21171
460 7.4597
465 6.98581
470 6.55309
475 6.27041
480 5.56931
485 5.19579
490 4.78928
495 3.72361
500 3.34491
505 3.22095
510 3.01277
515 2.60983
520 2.26755
525 2.04749
530 1.77642
535 1.50506
540 1.49026
545 1.14411
550 1.14543
555 0.850091
560 0.744438
565 0.921641
570 0.795037
575 0.46956
580 0.524367
585 0.415407
590 0.343662
595 0.265767
600 0.752335
Ex : 343
200 0.0816392
205 0.101947
210 0.090591
215 0.0826229
220 0.116773
225 0.094061
230 0.0946721
235 0.105643
240 0.105885
245 0.0946774
250 0.113674
255 0.132867
260 0.122886
265 0.0936636
270 0.141104
275 0.0823395
280 0.219974
285 0.0960769
290 0.098396
295 0.127848
300 0.215429
305 0.129736
310 0.208213
315 0.141778
320 0.27015
325 0.561549
330 32.5395
335 518.976
340 761.597
345 182.516
350 23.7452
355 5.43476
360 2.90403
365 2.10802
370 3.14436
375 6.86871
380 8.94097
385 9.37263
390 10.2153
395 10.7675
400 9.77631
405 10.2517
410 11.3891
415 12.1736
420 11.0294
425 9.73597
430 9.81917
435 9.6058
440 9.33704
445 8.75608
450 8.04008
455 7.21543
460 6.56671
465 6.16133
470 5.6011
475 5.07098
480 4.59716
485 4.15944
490 4.15344
495 3.70256
500 3.20504
505 3.0532
510 2.6755
515 2.38131
520 2.12424
525 2.00586
530 1.75683
535 1.38638
540 1.11198
545 0.990671
550 0.980226
555 0.855034
560 0.86093
565 0.768422
570 0.588036
575 0.470307
580 0.423981
585 0.4023
590 0.420432
595 0.383481
600 0.0436387
Ex : 348
200 0.185256
205 0.12053
210 0.0534578
215 0.0814492
220 0.0741
225 0.0645428
230 0.0463915
235 0.0568579
240 0.101223
245 0.121079
250 0.126819
255 0.131034
260 0.0686244
265 0.11586
270 0.154919
275 0.147237
280 0.132659
285 0.0779745
290 0.132523
295 0.13867
300 0.0729758
305 0.225745
310 0.144523
315 0.135958
320 0.192923
325 0.227048
330 0.749037
335 33.6591
340 529.011
345 801.218
350 204.875
355 25.8252
360 5.20905
365 2.89429
370 2.00425
375 2.40958
380 6.54528
385 11.6829
390 13.4182
395 13.1287
400 11.9303
405 11.9518
410 13.448
415 14.2186
420 13.4995
425 11.8802
430 11.1529
435 10.9731
440 10.3317
445 9.91794
450 8.79398
455 7.96814
460 7.36805
465 6.77512
470 6.23569
475 5.82763
480 5.33007
485 4.8233
490 4.49199
495 3.71448
500 3.69143
505 3.25811
510 3.1712
515 2.53607
520 2.27918
525 1.96435
530 1.71122
535 1.6003
540 1.25135
545 1.30782
550 1.15393
555 1.11304
560 0.979749
565 0.745972
570 0.640856
575 0.496025
580 0.461274
585 0.340148
590 0.313262
595 0.380268
600 0.217252
Ex : 353
200 0.0971787
205 0.0577903
210 0.0893
215 0.0692423
220 0.111317
225 0.109318
230 0.080837
235 0.0955983
240 0.173986
245 0.0796316
250 0.114029
255 0.0661386
260 0.0695946
265 0.212681
270 0.113492
275 0.145219
280 0.184078
285 0.114104
290 0.11187
295 0.114202
300 0.135332
305 0.128649
310 0.115782
315 0.186037
320 0.201201
325 0.265396
330 0.31072
335 0.756552
340 36.1635
345 554.778
350 812.41
355 199.508
360 25.1303
365 4.93997
370 2.50343
375 2.05571
380 3.00029
385 8.80617
390 15.5863
395 17.1026
400 13.9851
405 12.9859
410 14.0653
415 16.1636
420 15.6072
425 13.7141
430 12.1586
435 11.4089
440 11.7427
445 10.9555
450 10.0472
455 8.64576
460 7.78823
465 7.29614
470 7.14593
475 6.68531
480 6.06137
485 5.55088
490 4.76545
495 4.32519
500 3.73274
505 3.5648
510 3.2538
515 2.9318
520 2.52191
525 2.31766
530 1.8429
535 1.69626
540 1.39
545 1.19907
550 1.10213
555 1.1255
560 0.935204
565 0.82276
570 0.815055
575 0.608932
580 0.516093
585 0.445889
590 0.328832
595 0.251775
600 0.798382
Ex : 358
200 0.101181
205 0.101481
210 0.0591546
215 0.0954084
220 0.0665059
225 0.105285
230 0.122543
235 0.2104
240 0.07817
245 0.0610779
250 0.0655405
255 0.0947488
260 0.112286
265 0.174836
270 0.106108
275 0.138335
280 0.0555867
285 0.0986857
290 0.0854281
295 0.113086
300 0.191245
305 0.123809
310 0.0958976
315 0.072139
320 0.182826
325 0.176224
330 0.198684
335 0.494907
340 0.845823
345 34.0269
350 536.527
355 826.422
360 205.211
365 25.721
370 4.71879
375 2.97218
380 3.06133
385 5.88222
390 10.8684
395 16.0393
400 14.6945
405 13.401
410 14.0801
415 15.1271
420 14.3755
425 12.4916
430 11.3809
435 10.8998
440 11.1775
445 10.5429
450 8.95422
455 8.44368
460 7.60593
465 7.64317
470 7.06339
475 6.53399
480 5.65238
485 5.41921
490 5.08907
495 4.43749
500 4.27865
505 3.99903
510 3.42991
515 2.88385
520 2.58515
525 2.17711
530 2.09385
535 1.78803
540 1.68943
545 1.47203
550 1.33652
555 1.24729
560 1.03411
565 0.988085
570 0.708072
575 0.589448
580 0.491799
585 0.352079
590 0.359094
595 0.286648
600 0.265831
Ex : 363
200 0.103644
205 0.15086
210 0.122366
215 0.0998942
220 0.0944657
225 0.0587183
230 0.0918836
235 0.0553031
240 0.0811659
245 0.142151
250 0.0717874
255 0.168588
260 0.12894
265 0.0863014
270 0.109688
275 0.128883
280 0.0746982
285 0.0897763
290 0.0789981
295 0.100556
300 0.127245
305 0.160225
310 0.121695
315 0.100956
320 0.0980247
325 0.190728
330 0.158354
335 0.226557
340 0.413588
345 1.07639
350 31.0555
355 526.263
360 833.332
365 216.29
370 27.0373
375 5.19953
380 4.53728
385 7.68885
390 11.2153
395 13.2496
400 15.2439
405 16.7302
410 16.8047
415 17.6131
420 15.3466
425 13.3315
430 12.166
435 11.999
440 11.9312
445 11.2886
450 10.1945
455 9.44338
460 8.38926
465 7.72304
470 7.58956
475 6.7944
480 6.07292
485 5.6302
490 5.22452
495 4.89775
500 4.55616
505 4.0809
510 3.83093
515 3.42131
520 2.9845
525 2.41913
530 2.24782
535 1.87096
540 1.87971
545 1.56266
550 1.53374
555 1.25241
560 1.08091
565 0.987857
570 0.947011
575 0.623996
580 0.452351
585 0.395138
590 0.341739
595 0.251501
600 0.32843
Ex : 368
200 0.0413725
205 0.0902345
210 0.0540327
215 0.108627
220 0.0836957
225 0.0784359
230 0.0891008
235 0.0841701
240 0.056874
245 0.0390719
250 0.0578261
255 0.0573612
260 0.0576337
265 0.103398
270 0.0593788
275 0.112344
280 0.108382
285 0.139694
290 0.0539539
295 0.131287
300 0.0844074
305 0.0884511
310 0.0691914
315 0.10487
320 0.156602
325 0.137029
330 0.141268
335 0.23181
340 0.281304
345 0.366916
350 0.781361
355 25.7288
360 516.731
365 859.915
370 228.611
375 28.9452
380 7.80067
385 9.47842
390 14.2366
395 15.8138
400 15.7973
405 17.4535
410 21.9612
415 23.3393
420 20.7515
425 17.1604
430 15.0451
435 14.7092
440 15.0738
445 13.7728
450 12.1834
455 11.1222
460 9.9555
465 9.32801
470 8.69558
475 7.9513
480 7.50959
485 6.67236
490 5.80095
495 5.4874
500 4.97915
505 4.47346
510 4.1985
515 3.59459
520 3.1655
525 2.84452
530 2.58154
535 2.27414
540 1.66166
545 1.68588
550 1.51643
555 1.32101
560 1.09925
565 1.07325
570 0.866701
575 0.707255
580 0.517383
585 0.360778
590 0.302789
595 0.274828
600 0.0312744
Ex : 373
200 0.10347
205 0.0728792
210 0.0718517
215 0.108524
220 0.0820385
225 0.105222
230 0.0761604
235 0.115912
240 0.0951551
245 0.0781846
250 0.0714516
255 0.0976615
260 0.073746
265 0.0642452
270 0.0516674
275 0.0728509
280 0.0680541
285 0.118776
290 0.111786
295 0.126029
300 0.0929437
305 0.0715727
310 0.0997374
315 0.0816982
320 0.0711273
325 0.0887675
330 0.135186
335 0.147818
340 0.206981
345 0.277839
350 0.508683
355 0.92675
360 31.5315
365 529.898
370 860.067
375 228.42
380 29.6246
385 10.3315
390 14.3228
395 17.2906
400 15.391
405 14.2218
410 18.5028
415 24.2623
420 22.8963
425 18.9084
430 15.4882
435 14.6516
440 14.7149
445 14.1167
450 13.0331
455 10.6398
460 9.89319
465 8.91092
470 8.77572
475 8.37821
480 7.38446
485 6.40498
490 5.84279
495 5.27797
500 5.17699
505 4.72817
510 4.12331
515 3.64759
520 3.43956
525 3.0439
530 2.61488
535 2.24518
540 1.90406
545 1.71947
550 1.62312
555 1.40212
560 1.22113
565 1.00225
570 0.837825
575 0.796375
580 0.529553
585 0.40621
590 0.310499
595 0.286363
600 0.222211
Ex : 378
200 0.0754848
205 0.0973334
210 0.108193
215 0.058528
220 0.0864969
225 0.0666712
230 0.114761
235 0.0759269
240 0.086612
245 0.0778767
250 0.135124
255 0.0478655
260 0.0529347
265 0.0698016
270 0.0941921
275 0.104077
280 0.0670445
285 0.0371052
290 0.119776
295 0.0814136
300 0.14989
305 0.114185
310 0.113619
315 0.0937
320 0.0875782
325 0.0563429
330 0.164163
335 0.123964
340 0.156539
345 0.276557
350 0.273757
355 0.403311
360 0.839279
365 29.4263
370 536.613
375 887.312
380 237.309
385 33.3447
390 13.0187
395 13.0026
400 11.409
405 10.4018
410 12.2983
415 15.9992
420 18.2014
425 15.8056
430 12.8019
435 11.9572
440 11.4808
445 11.3997
450 9.67756
455 8.51764
460 8.28462
465 7.9638
470 7.40933
475 7.05277
480 6.69844
485 5.79215
490 5.45601
495 4.96798
500 4.71379
505 4.30183
510 3.97202
515 3.45385
520 3.24145
525 2.79596
530 2.40498
535 2.34512
540 2.0593
545 1.81455
550 1.56322
555 1.42861
560 1.1655
565 0.976679
570 0.804042
575 0.688432
580 0.462996
585 0.391944
590 0.343777
595 0.240842
600 0.227988
Ex : 383
200 0.0614504
205 0.0573958
210 0.0778698
215 0.0676073
220 0.071214
225 0.0916985
230 0.0873758
235 0.0863775
240 0.0783963
245 0.0731914
250 0.0405773
255 0.0617729
260 0.0695415
265 0.0624799
270 0.0905322
275 0.100264
280 0.102115
285 0.0768194
290 0.114214
295 0.101317
300 0.0668438
305 0.0894695
310 0.0786793
315 0.0778206
320 0.097234
325 0.135529
330 0.096162
335 0.154805
340 0.178737
345 0.182753
350 0.245659
355 0.373707
360 0.493915
365 0.857826
370 27.0129
375 529.523
380 921.561
385 253.434
390 39.0582
395 14.4271
400 11.0151
405 11.1959
410 13.342
415 14.4968
420 13.8704
425 14.6657
430 13.9447
435 12.5142
440 12.0548
445 10.8983
450 9.44693
455 8.55413
460 7.86355
465 7.81315
470 7.24997
475 7.01159
480 6.89849
485 6.28429
490 5.68052
495 5.2997
500 4.67844
505 4.42454
510 4.07019
515 3.44913
520 2.92857
525 2.73539
530 2.41829
535 2.30142
540 2.04607
545 1.68344
550 1.41854
555 1.33803
560 1.16717
565 0.907327
570 0.83527
575 0.644268
580 0.440017
585 0.36183
590 0.327622
595 0.299465
600 0.382977
Ex : 388
200 0.112361
205 0.0885136
210 0.0601676
215 0.0616711
220 0.0772678
225 0.0549864
230 0.0816071
235 0.0462286
240 0.0947786
245 0.0443998
250 0.0343847
255 0.0586426
260 0.100962
265 0.056505
270 0.0914985
275 0.105997
280 0.0980287
285 0.0696789
290 0.10461
295 0.0651571
300 0.0615828
305 0.0494811
310 0.0727625
315 0.0616942
320 0.0982177
325 0.0810933
330 0.0693467
335 0.114836
340 0.162463
345 0.146275
350 0.140855
355 0.198794
360 0.340984
365 0.413197
370 0.873031
375 29.7186
380 552.629
385 926.652
390 255.767
395 42.6184
400 16.4205
405 13.9279
410 16.4024
415 17.7766
420 16.9553
425 15.0234
430 15.0282
435 16.3311
440 15.1918
445 13.857
450 11.5381
455 10.0465
460 9.01819
465 8.72167
470 8.13405
475 7.63763
480 7.18237
485 6.45378
490 5.97731
495 5.50133
500 4.90477
505 4.54088
510 4.04584
515 3.65274
520 3.21782
525 3.00366
530 2.74828
535 2.3815
540 2.21549
545 1.79299
550 1.73313
555 1.33279
560 1.24532
565 1.06497
570 0.783651
575 0.613473
580 0.521336
585 0.415656
590 0.359226
595 0.278639
600 0.315293
Ex : 393
200 0.102134
205 0.0548931
210 0.0698297
215 0.0553819
220 0.0863286
225 0.0605563
230 0.0432355
235 0.0406122
240 0.0595675
245 0.178285
250 0.0520286
255 0.0597437
260 0.121964
265 0.057691
270 0.0389908
275 0.0689077
280 0.0558744
285 0.0938855
290 0.119111
295 0.065536
300 0.0921176
305 0.102196
310 0.130532
315 0.0752892
320 0.094546
325 0.138539
330 0.0982117
335 0.0782813
340 0.12479
345 0.151483
350 0.153383
355 0.219908
360 0.186683
365 0.342427
370 0.568321
375 0.939521
380 26.9493
385 551.66
390 953.297
395 270.821
400 44.2721
405 16.4044
410 15.5024
415 18.6629
420 18.2402
425 15.2171
430 13.0965
435 13.6069
440 15.5394
445 14.8251
450 12.647
455 10.5334
460 8.81611
465 8.33587
470 8.2226
475 7.73583
480 6.96094
485 6.17327
490 5.54724
495 5.33291
500 4.94034
505 4.52581
510 4.00237
515 3.6288
520 3.07539
525 2.90863
530 2.61275
535 2.40963
540 2.0457
545 1.86098
550 1.59107
555 1.48765
560 1.19257
565 1.13591
570 0.894936
575 0.59922
580 0.570574
585 0.362218
590 0.30538
595 0.242539
600 0.203584
Ex : 398
200 0.0553126
205 0.0664079
210 0.083182
215 0.0524245
220 0.0556998
225 0.0682696
230 0.0825996
235 0.0605531
240 0.0496764
245 0.0604645
250 0.0854409
255 0.0759547
260 0.0650499
265 0.0881235
270 0.0530351
275 0.0651832
280 0.0927895
285 0.0513773
290 0.0499266
295 0.0647376
300 0.0672701
305 0.0664117
310 0.0461162
315 0.101411
320 0.0625509
325 0.0567426
330 0.0889713
335 0.0777538
340 0.132508
345 0.140347
350 0.101907
355 0.155372
360 0.227102
365 0.235759
370 0.347127
375 0.520827
380 1.04595
385 29.0278
390 563.286
395 975.496
400 268.311
405 38.3702
410 12.3784
415 11.9248
420 12.1203
425 10.1327
430 8.37771
435 7.61633
440 9.23071
445 10.8845
450 10.1757
455 8.38897
460 7.5142
465 6.27693
470 5.92369
475 6.04125
480 5.74484
485 5.05625
490 4.79125
495 4.4858
500 4.11758
505 3.87009
510 3.6182
515 3.23112
520 3.06226
525 2.56942
530 2.45514
535 2.19678
540 1.97071
545 1.721
550 1.52219
555 1.1852
560 1.15291
565 1.19168
570 0.854385
575 0.685696
580 0.42395
585 0.417538
590 0.365377
595 0.259854
600 0.0626153
Ex : 403
200 0.079042
205 0.0782499
210 0.059093
215 0.0459551
220 0.0607395
225 0.067043
230 0.0931602
235 0.0919556
240 0.0561508
245 0.156996
250 0.041668
255 0.0770491
260 0.0528562
265 0.0833302
270 0.069823
275 0.0722498
280 0.0629463
285 0.0791471
290 0.0894183
295 0.0726129
300 0.0421576
305 0.0600164
310 0.0413656
315 0.0827414
320 0.0529551
325 0.0664374
330 0.0500676
335 0.100796
340 0.0967916
345 0.124176
350 0.142349
355 0.15873
360 0.165049
365 0.186943
370 0.168486
375 0.277089
380 0.474272
385 1.20943
390 32.0282
395 577.613
400 970.211
405 265.242
410 34.8494
415 8.81437
420 5.97699
425 5.70796
430 4.77864
435 4.64463
440 4.54325
445 5.1058
450 7.19132
455 7.31439
460 5.92254
465 5.49146
470 4.92305
475 4.77298
480 4.70225
485 4.52446
490 4.1894
495 4.09177
500 3.62117
505 3.41617
510 3.25248
515 3.05931
520 2.58383
525 2.35766
530 2.46233
535 2.09548
540 1.95164
545 1.73323
550 1.46544
555 1.36468
560 1.26128
565 1.05701
570 0.836484
575 0.677916
580 0.497302
585 0.36559
590 0.263118
595 0.241431
600 0.335982
Ex : 408
200 0.0580318
205 0.0617434
210 0.0524669
215 0.0370069
220 0.0248088
225 0.0341434
230 0.0472054
235 0.104974
240 0.0760645
245 0.0781535
250 0.0946482
255 0.0427899
260 0.0691637
265 0.0589047
270 0.05709
275 0.0863244
280 0.0860474
285 0.0971937
290 0.0641411
295 0.0414671
300 0.0400367
305 0.125205
310 0.0800129
315 0.0571685
320 0.0709951
325 0.0648822
330 0.0805722
335 0.0689455
340 0.0916444
345 0.0852316
350 0.160818
355 0.14926
360 0.0921668
365 0.154612
370 0.24449
375 0.315313
380 0.429395
385 0.520188
390 1.16075
395 30.4092
400 591.545
405 978.843
410 259.33
415 34.0197
420 7.81225
425 4.7169
430 4.17745
435 4.18559
440 4.23706
445 4.29484
450 4.59505
455 6.12176
460 6.87609
465 5.81581
470 5.28195
475 5.15179
480 4.60533
485 4.16287
490 3.93149
495 3.87349
500 3.74911
505 3.32745
510 3.20783
515 2.92148
520 2.78662
525 2.69216
530 2.30776
535 2.04038
540 1.9584
545 1.6842
550 1.41625
555 1.33094
560 1.07096
565 0.987228
570 0.774748
575 0.641163
580 0.495385
585 0.442014
590 0.338662
595 0.247776
600 0.252015
Ex : 413
200 0.0241807
205 0.0974616
210 0.0606033
215 0.127417
220 0.0603291
225 0.0255468
230 0.075157
235 0.0546304
240 0.0724432
245 0.0812026
250 0.0633528
255 0.0354161
260 0.0608018
265 0.0493719
270 0.0406215
275 0.066125
280 0.0561336
285 0.0459816
290 0.0427457
295 0.0408469
300 0.055457
305 0.053401
310 0.0442357
315 0.0713054
320 0.0644839
325 0.110056
330 0.077854
335 0.104738
340 0.10115
345 0.100649
350 0.119272
355 0.113132
360 0.0927852
365 0.145803
370 0.145648
375 0.204718
380 0.208075
385 0.362808
390 0.544184
395 1.20789
400 34.1447
405 609.423
410 992.464
415 255.978
420 33.6672
425 7.16864
430 4.00881
435 3.99151
440 4.12544
445 3.94831
450 3.66696
455 3.81702
460 4.90162
465 6.46868
470 6.05135
475 5.19391
480 4.90957
485 4.19755
490 3.9374
495 3.47946
500 3.24077
505 3.07898
510 3.01033
515 2.76261
520 2.49759
525 2.36046
530 2.17843
535 1.94816
540 1.72244
545 1.5451
550 1.28816
555 1.3154
560 1.1077
565 0.933591
570 0.816153
575 0.640863
580 0.504844
585 0.328781
590 0.309419
595 0.256868
600 0.417131
Ex : 418
200 0.0740944
205 0.050142
210 0.0614054
215 0.0995343
220 0.0524001
225 0.0780314
230 0.0588546
235 0.0537432
240 0.0584473
245 0.0397252
250 0.0524121
255 0.0705994
260 0.0611122
265 0.116942
270 0.0524617
275 0.0755877
280 0.0605701
285 0.0812344
290 0.0644352
295 0.0719178
300 0.0680617
305 0.0346485
310 0.0614804
315 0.103649
320 0.0809318
325 0.0967776
330 0.133596
335 0.0992031
340 0.061037
345 0.099111
350 0.0695906
355 0.119377
360 0.106521
365 0.130727
370 0.119961
375 0.181516
380 0.170136
385 0.346399
390 0.348504
395 0.542803
400 1.02862
405 31.9487
410 604.824
415 997.019
420 265.185
425 33.4784
430 6.08654
435 2.96242
440 2.97091
445 3.06556
450 2.95876
455 2.69693
460 2.9167
465 3.42896
470 5.117
475 5.5464
480 4.34012
485 3.89259
490 3.49332
495 3.21688
500 3.11742
505 2.94799
510 2.79024
515 2.45173
520 2.38534
525 2.05772
530 1.93251
535 1.8254
540 1.67615
545 1.62168
550 1.38497
555 1.12266
560 1.02912
565 0.868124
570 0.655888
575 0.617226
580 0.547225
585 0.367932
590 0.260732
595 0.251661
600 0.0667859
Ex : 423
200 0.0282227
205 0.0679593
210 0.046511
215 0.0554408
220 0.0672259
225 0.0380604
230 0.0593961
235 0.0397428
240 0.0501206
245 0.0688752
250 0.0593346
255 0.073596
260 0.084511
265 0.0648447
270 0.0560831
275 0.0396719
280 0.0700288
285 0.0416916
290 0.0464562
295 0.0439474
300 0.0254262
305 0.0374675
310 0.0562188
315 0.0931138
320 0.049511
325 0.0977425
330 0.0820497
335 0.0847203
340 0.0842048
345 0.0900701
350 0.0940618
355 0.0709038
360 0.0643059
365 0.119299
370 0.13106
375 0.152065
380 0.217672
385 0.215529
390 0.256526
395 0.335939
400 0.665442
405 1.0899
410 32.7851
415 633.041
420 999.617
425 253.762
430 31.4131
435 5.48403
440 2.42422
445 2.34095
450 2.10115
455 1.7728
460 1.92668
465 2.21305
470 2.48996
475 4.05351
480 5.02661
485 3.83401
490 3.54095
495 3.02893
500 2.69563
505 2.44563
510 2.41175
515 2.36677
520 2.15196
525 1.89062
530 1.87736
535 1.76078
540 1.61788
545 1.4649
550 1.34347
555 1.17354
560 0.975494
565 0.864024
570 0.715266
575 0.558544
580 0.490948
585 0.422178
590 0.338926
595 0.225968
600 0.123861
Ex : 428
200 0.037703
205 0.0680077
210 0.0665557
215 0.0543876
220 0.0516318
225 0.0672991
230 0.0772217
235 0.067258
240 0.0402803
245 0.0875772
250 0.0986855
255 0.0784073
260 0.0913534
265 0.0963881
270 0.0508139
275 0.0694418
280 0.0583933
285 0.0603115
290 0.139553
295 0.0516045
300 0.0616356
305 0.072454
310 0.0800175
315 0.0976554
320 0.0835991
325 0.0902254
330 0.128874
335 0.0666199
340 0.0859027
345 0.0664771
350 0.0979924
355 0.0505962
360 0.113305
365 0.0783153
370 0.105915
375 0.156977
380 0.182122
385 0.130336
390 0.229813
395 0.285193
400 0.334963
405 0.609981
410 1.03105
415 36.5881
420 633.856
425 1000.95
430 260.711
435 32.0145
440 5.26573
445 2.04475
450 1.84074
455 1.82885
460 1.65982
465 1.65853
470 1.79123
475 2.01408
480 3.17746
485 4.48995
490 3.68469
495 3.11628
500 2.88719
505 2.58423
510 2.19224
515 2.10292
520 1.91704
525 1.63283
530 1.60465
535 1.57565
540 1.38307
545 1.3136
550 1.1657
555 1.16224
560 0.947815
565 0.817995
570 0.755526
575 0.613657
580 0.397337
585 0.368965
590 0.268916
595 0.181251
600 0.0793146
Ex : 433
200 0.105335
205 0.0528048
210 0.0700292
215 0.0405857
220 0.0402268
225 0.0490202
230 0.0974506
235 0.0623859
240 0.0698091
245 0.0486178
250 0.126021
255 0.0435554
260 0.026477
265 0.0661394
270 0.0604076
275 0.0864887
280 0.0490074
285 0.0374865
290 0.0895216
295 0.0647468
300 0.0714842
305 0.0607338
310 0.0910688
315 0.11628
320 0.0985893
325 0.0607337
330 0.0488927
335 0.0721361
340 0.0800555
345 0.0813487
350 0.0892894
355 0.0874667
360 0.081029
365 0.118176
370 0.207323
375 0.129535
380 0.0942506
385 0.114066
390 0.148816
395 0.255844
400 0.26562
405 0.372601
410 0.63422
415 1.16235
420 40.5714
425 683.201
430 1024.81
435 257.129
440 31.1607
445 5.09261
450 1.75665
455 1.67971
460 1.78543
465 1.60142
470 1.49058
475 1.69284
480 1.94079
485 2.72982
490 4.20663
495 3.80244
500 2.95287
505 2.67931
510 2.33634
515 2.0151
520 1.84159
525 1.77328
530 1.60233
535 1.53584
540 1.35688
545 1.36263
550 1.20706
555 1.18895
560 0.978717
565 0.863292
570 0.625383
575 0.518683
580 0.387919
585 0.383699
590 0.332848
595 0.227155
600 0.175546
Ex : 438
200 0.0525276
205 0.0562268
210 0.082969
215 0.0477107
220 0.0779145
225 0.085416
230 0.103485
235 0.119332
240 0.0766072
245 0.105435
250 0.106621
255 0.0802862
260 0.0738785
265 0.128552
270 0.0558263
275 0.0553985
280 0.0573958
285 0.0524546
290 0.107081
295 0.0838476
300 0.0641642
305 0.0698447
310 0.108648
315 0.0403253
320 0.0731809
325 0.0720053
330 0.0788592
335 0.06983
340 0.0587716
345 0.0820991
350 0.114512
355 0.0796219
360 0.083638
365 0.0885661
370 0.0868541
375 0.0705005
380 0.139115
385 0.114369
390 0.117199
395 0.150455
400 0.227463
405 0.31772
410 0.347071
415 0.526995
420 1.13158
425 39.3111
430 674.749
435 1084.25
440 272.963
445 33.2068
450 5.40597
455 1.86744
460 1.6445
465 1.73169
470 1.53053
475 1.44242
480 1.4862
485 1.68299
490 2.40632
495 3.53617
500 3.86076
505 2.87753
510 2.50881
515 2.35036
520 1.81115
525 1.65344
530 1.67249
535 1.40543
540 1.30937
545 1.18167
550 1.05863
555 1.0553
560 0.809579
565 0.74201
570 0.654646
575 0.543679
580 0.501088
585 0.30879
590 0.316866
595 0.254619
600 0.319485
Ex : 443
200 0.0709457
205 0.0692743
210 0.0461869
215 0.0661499
220 0.0507831
225 0.0576702
230 0.0955125
235 0.0837349
240 0.0505652
245 0.0593816
250 0.0910831
255 0.0751621
260 0.0940372
265 0.0645981
270 0.051018
275 0.0610464
280 0.0594022
285 0.0669644
290 0.0733284
295 0.0888173
300 0.068883
305 0.0473075
310 0.0774973
315 0.0887588
320 0.0835759
325 0.0609023
330 0.0880467
335 0.129439
340 0.0989903
345 0.110963
350 0.120711
355 0.0657357
360 0.130655
365 0.164786
370 0.118866
375 0.0910578
380 0.0870225
385 0.153448
390 0.106047
395 0.12328
400 0.136242
405 0.250458
410 0.273711
415 0.436352
420 0.713134
425 1.12584
430 42.8121
435 720.867
440 1093.64
445 272.172
450 33.0949
455 5.29004
460 1.94614
465 1.72388
470 1.74599
475 1.69082
480 1.47979
485 1.41816
490 1.51028
495 1.83165
500 3.01527
505 3.75588
510 2.9538
515 2.26182
520 2.05446
525 1.71348
530 1.52109
535 1.42047
540 1.37214
545 1.07094
550 1.15671
555 0.934472
560 0.950069
565 0.911088
570 0.571559
575 0.458511
580 0.345018
585 0.376951
590 0.249352
595 0.242262
600 0.0275685
Ex : 448
200 0.0977863
205 0.0760932
210 0.0813849
215 0.0875982
220 0.0726263
225 0.0501936
230 0.0642896
235 0.0741469
240 0.0739056
245 0.0574847
250 0.055356
255 0.0953515
260 0.0554028
265 0.0654942
270 0.0637595
275 0.0556056
280 0.0984349
285 0.0531848
290 0.0399835
295 0.0602273
300 0.0781044
305 0.0825251
310 0.122028
315 0.0709301
320 0.0624938
325 0.0618137
330 0.0444723
335 0.0993651
340 0.0708859
345 0.0563985
350 0.052179
355 0.0889456
360 0.130958
365 0.101852
370 0.079831
375 0.12105
380 0.0872224
385 0.143811
390 0.139228
395 0.122324
400 0.116732
405 0.199786
410 0.187262
415 0.264776
420 0.402467
425 0.586997
430 1.06765
435 44.0965
440 768.919
445 1165.26
450 290.335
455 35.4351
460 5.79644
465 2.11412
470 1.75455
475 2.11047
480 1.74077
485 1.38034
490 1.57367
495 1.49837
500 1.5064
505 2.38668
510 3.64957
515 3.14577
520 2.25794
525 2.09465
530 1.71458
535 1.41987
540 1.16313
545 1.21448
550 0.999674
555 0.98354
560 0.806525
565 0.812878
570 0.617136
575 0.55619
580 0.402986
585 0.335742
590 0.319825
595 0.270578
600 1.0984
Ex : 453
200 0.0993248
205 0.0651627
210 0.056372
215 0.0558121
220 0.0661695
225 0.0482495
230 0.0548556
235 0.0555058
240 0.0481127
245 0.0616655
250 0.0258813
255 0.0500923
260 0.0382848
265 0.0514034
270 0.0732788
275 0.0478704
280 0.0745075
285 0.0729225
290 0.10934
295 0.0547187
300 0.0908281
305 0.0571733
310 0.116474
315 0.0735006
320 0.115627
325 0.0864404
330 0.0588736
335 0.0462952
340 0.0716733
345 0.108773
350 0.130912
355 0.0904161
360 0.0836766
365 0.123249
370 0.114265
375 0.109244
380 0.0768413
385 0.0947217
390 0.131957
395 0.112774
400 0.137885
405 0.127815
410 0.174575
415 0.243494
420 0.233299
425 0.401656
430 0.666379
435 1.13878
440 46.8688
445 834.427
450 1214.62
455 286.282
460 34.8531
465 5.79181
470 1.93867
475 1.56714
480 1.75982
485 1.72592
490 1.56218
495 1.33619
500 1.35882
505 1.49889
510 1.79081
515 3.23468
520 3.05754
525 2.08467
530 1.89978
535 1.72971
540 1.29074
545 1.18804
550 1.01231
555 0.98455
560 0.856395
565 0.697101
570 0.600639
575 0.556227
580 0.381938
585 0.320326
590 0.340353
595 0.290136
600 0.406448
Ex : 458
200 0.0782757
205 0.0771943
210 0.0767729
215 0.0553059
220 0.051927
225 0.0533954
230 0.0781117
235 0.0573293
240 0.0970177
245 0.0579131
250 0.0607207
255 0.0600089
260 0.0739623
265 0.09369
270 0.0624648
275 0.06697
280 0.0343264
285 0.0592766
290 0.0703321
295 0.0812601
300 0.0837792
305 0.059174
310 0.0616357
315 0.0579093
320 0.0639415
325 0.105188
330 0.116877
335 0.0881633
340 0.109856
345 0.0739282
350 0.0550404
355 0.142001
360 0.0679624
365 0.0720199
370 0.0932667
375 0.121476
380 0.134537
385 0.156267
390 0.145295
395 0.15971
400 0.160252
405 0.134458
410 0.176921
415 0.185442
420 0.22872
425 0.293803
430 0.404982
435 0.633477
440 1.24566
445 53.6836
450 864.523
455 1283.67
460 310.5
465 37.958
470 6.08806
475 2.03028
480 1.49365
485 1.69047
490 1.61418
495 1.23954
500 1.25571
505 1.20755
510 1.24358
515 1.54967
520 2.75055
525 3.05898
530 2.26732
535 1.71654
540 1.60574
545 1.23799
550 1.01607
555 0.845363
560 0.897804
565 0.799397
570 0.597882
575 0.541233
580 0.399218
585 0.365499
590 0.380044
595 0.325443
600 0.447154
Ex : 463
200 0.0990945
205 0.0621249
210 0.0559712
215 0.0777302
220 0.0775142
225 0.0592647
230 0.0817721
235 0.0739771
240 0.0833893
245 0.081753
250 0.100503
255 0.0688189
260 0.113754
265 0.080579
270 0.0608389
275 0.0484741
280 0.064212
285 0.0628167
290 0.0758568
295 0.0856227
300 0.0471003
305 0.102834
310 0.0948571
315 0.0711834
320 0.102242
325 0.0649173
330 0.0616487
335 0.0647874
340 0.118286
345 0.126945
350 0.109566
355 0.0895068
360 0.0815898
365 0.0714573
370 0.0694057
375 0.0759434
380 0.0765915
385 0.121011
390 0.125234
395 0.168167
400 0.125103
405 0.175182
410 0.148895
415 0.175956
420 0.184694
425 0.225112
430 0.294355
435 0.454059
440 0.623599
445 1.27716
450 52.3619
455 902.379
460 1377.45
465 334.951
470 40.594
475 6.31002
480 2.03219
485 1.49673
490 1.68247
495 1.62032
500 1.30305
505 1.07754
510 1.22403
515 1.15663
520 1.42913
525 1.89587
530 2.8387
535 2.42957
540 1.66215
545 1.59172
550 1.34755
555 1.10272
560 0.927907
565 0.770715
570 0.725536
575 0.494869
580 0.481713
585 0.397579
590 0.268014
595 0.278633
600 0.06161
Ex : 468
200 0.0409501
205 0.0696328
210 0.0503233
215 0.0740344
220 0.0831273
225 0.0444734
230 0.0437439
235 0.0510709
240 0.0620519
245 0.0639136
250 0.095498
255 0.0569687
260 0.105701
265 0.0754072
270 0.0858892
275 0.0566387
280 0.0658313
285 0.0525584
290 0.0813461
295 0.0502357
300 0.0492441
305 0.0489909
310 0.0305099
315 0.0425495
320 0.064781
325 0.0825838
330 0.066021
335 0.0766054
340 0.0521531
345 0.0509725
350 0.0768385
355 0.0807375
360 0.0502661
365 0.0645294
370 0.0977604
375 0.0761061
380 0.0904774
385 0.0984063
390 0.111566
395 0.196114
400 0.168096
405 0.166606
410 0.114951
415 0.150161
420 0.1419
425 0.187009
430 0.206374
435 0.258039
440 0.465227
445 0.662224
450 1.24245
455 56.5805
460 924.994
465 1457.96
470 352.661
475 42.3044
480 6.50981
485 2.07407
490 1.49933
495 1.60016
500 1.61375
505 1.35083
510 1.14689
515 1.11845
520 1.16215
525 1.31977
530 1.6737
535 2.4905
540 2.77007
545 1.87009
550 1.46752
555 1.35333
560 1.08461
565 0.820799
570 0.776967
575 0.62547
580 0.435467
585 0.425774
590 0.345564
595 0.291288
600 0.346501
Ex : 473
200 0.0443312
205 0.0674457
210 0.0780281
215 0.0596284
220 0.0838413
225 0.0859335
230 0.0885978
235 0.0658109
240 0.0582346
245 0.0460452
250 0.072355
255 0.0470652
260 0.0527677
265 0.0496297
270 0.0689655
275 0.121218
280 0.0448837
285 0.0645503
290 0.104646
295 0.0815049
300 0.0602586
305 0.0746055
310 0.0579002
315 0.081087
320 0.098235
325 0.068948
330 0.0916601
335 0.0762259
340 0.120979
345 0.0958046
350 0.107594
355 0.0754125
360 0.102296
365 0.115886
370 0.124925
375 0.0968308
380 0.0916501
385 0.0980158
390 0.0902814
395 0.129387
400 0.0956632
405 0.124654
410 0.122266
415 0.128436
420 0.18482
425 0.149879
430 0.224563
435 0.217103
440 0.279601
445 0.470739
450 0.829549
455 1.39015
460 67.7937
465 1026.74
470 1440.85
475 335.99
480 40.5112
485 6.21598
490 1.96269
495 1.26886
500 1.33963
505 1.32354
510 1.34372
515 1.15839
520 1.19016
525 1.1112
530 1.1883
535 1.28997
540 2.10336
545 2.54278
550 1.88546
555 1.25858
560 1.29424
565 1.06129
570 0.742696
575 0.613348
580 0.512744
585 0.43567
590 0.361954
595 0.357505
600 0.421956
Ex : 478
200 0.0578987
205 0.0842591
210 0.0836749
215 0.0360469
220 0.0958245
225 0.0934884
230 0.0928529
235 0.0731871
240 0.0560758
245 0.0816375
250 0.0809617
255 0.0983946
260 0.0654513
265 0.0708978
270 0.0558193
275 0.0456878
280 0.0794524
285 0.113081
290 0.122784
295 0.0691692
300 0.100589
305 0.137374
310 0.0753607
315 0.101794
320 0.0759441
325 0.0620801
330 0.0617786
335 0.0881852
340 0.134193
345 0.0781257
350 0.0948172
355 0.102356
360 0.124092
365 0.116361
370 0.0842423
375 0.121985
380 0.138485
385 0.131536
390 0.148827
395 0.177955
400 0.152824
405 0.19633
410 0.164373
415 0.129995
420 0.165268
425 0.184496
430 0.21639
435 0.212765
440 0.303225
445 0.383096
450 0.494326
455 0.908678
460 1.8698
465 74.1278
470 1070.58
475 1492.45
480 358.304
485 43.0657
490 6.53274
495 1.96315
500 1.28589
505 1.2627
510 1.46759
515 1.32778
520 1.22029
525 1.08726
530 1.11944
535 1.08438
540 1.20254
545 1.69064
550 2.16263
555 1.73625
560 1.21078
565 1.09618
570 0.93681
575 0.63485
580 0.596898
585 0.329216
590 0.341142
595 0.283229
600 0.447445
Ex : 483
200 0.0491898
205 0.0525043
210 0.0927112
215 0.100931
220 0.108146
225 0.0910426
230 0.0656509
235 0.0888328
240 0.0722856
245 0.0671535
250 0.075084
255 0.0704836
260 0.0479832
265 0.0835852
270 0.0838882
275 0.0760353
280 0.0479903
285 0.0778163
290 0.063979
295 0.11677
300 0.0736659
305 0.171932
310 0.0989003
315 0.0769511
320 0.0740482
325 0.0806389
330 0.0763725
335 0.0604174
340 0.110044
345 0.0791411
350 0.0939602
355 0.0696109
360 0.102426
365 0.103044
370 0.0684809
375 0.0846744
380 0.118569
385 0.121561
390 0.0834319
395 0.108495
400 0.106487
405 0.136842
410 0.133063
415 0.202837
420 0.152437
425 0.215136
430 0.191188
435 0.195941
440 0.184691
445 0.249079
450 0.42182
455 0.47706
460 0.949693
465 1.94657
470 59.1626
475 1068.39
480 1624.54
485 389.963
490 46.7011
495 6.87963
500 2.05677
505 1.15111
510 1.31669
515 1.34298
520 1.26031
525 1.27189
530 1.03012
535 1.04084
540 1.03702
545 1.03086
550 1.20064
555 1.92791
560 2.12126
565 1.27305
570 0.953719
575 0.776693
580 0.564497
585 0.460215
590 0.370967
595 0.400458
600 0.240103
Ex : 488
200 0.0453131
205 0.118362
210 0.0870359
215 0.0682405
220 0.0544852
225 0.067298
230 0.0664713
235 0.119867
240 0.0837863
245 0.0440523
250 0.0623142
255 0.0834964
260 0.0796305
265 0.141518
270 0.0897295
275 0.119014
280 0.119367
285 0.0886704
290 0.0883875
295 0.0839289
300 0.0889805
305 0.185753
310 0.0574591
315 0.128886
320 0.0920807
325 0.103965
330 0.127327
335 0.122519
340 0.099809
345 0.155479
350 0.157761
355 0.115975
360 0.104523
365 0.122008
370 0.0767038
375 0.15845
380 0.114754
385 0.100504
390 0.104374
395 0.0991957
400 0.134152
405 0.116116
410 0.111825
415 0.262532
420 0.133627
425 0.162284
430 0.233166
435 0.1489
440 0.1878
445 0.207202
450 0.377047
455 0.424861
460 0.734591
465 1.12555
470 1.85939
475 72.6993
480 1170.38
485 1633
490 383.567
495 46.1098
500 6.83509
505 2.1478
510 1.31406
515 1.34589
520 1.43513
525 1.35812
530 1.19098
535 1.01724
540 0.998624
545 0.838723
550 1.01483
555 0.908579
560 1.37303
565 1.97691
570 1.26789
575 0.89738
580 0.736404
585 0.567176
590 0.449134
595 0.387427
600 0.10544
Ex : 493
200 0.123299
205 0.104891
210 0.0648307
215 0.101987
220 0.143935
225 0.067317
230 0.102455
235 0.0962751
240 0.0688375
245 0.0806975
250 0.0492289
255 0.0821777
260 0.0744504
265 0.131258
270 0.0765521
275 0.0447764
280 0.0782822
285 0.0970873
290 0.105814
295 0.125783
300 0.0864034
305 0.155283
310 0.163155
315 0.132014
320 0.125808
325 0.167847
330 0.114149
335 0.0852131
340 0.0735885
345 0.0871816
350 0.0922822
355 0.104916
360 0.0722684
365 0.14014
370 0.0870714
375 0.141361
380 0.22532
385 0.120064
390 0.115735
395 0.0972608
400 0.175186
405 0.131363
410 0.133211
415 0.141158
420 0.166686
425 0.125022
430 0.185493
435 0.161561
440 0.243727
445 0.249649
450 0.226919
455 0.360285
460 0.420099
465 0.641046
470 0.953346
475 1.69066
480 68.9416
485 1177.43
490 1745.51
495 403.467
500 48.303
505 7.06727
510 2.18665
515 1.27955
520 1.20293
525 1.32058
530 1.42628
535 1.15658
540 0.996192
545 1.04434
550 0.801417
555 0.851706
560 0.822442
565 0.961065
570 1.59279
575 1.3631
580 0.725156
585 0.607026
590 0.495988
595 0.408823
600 0.650752
Ex : 498
200 0.0888008
205 0.0579194
210 0.106504
215 0.126429
220 0.0736448
225 0.0745336
230 0.0751108
235 0.0626145
240 0.11216
245 0.116558
250 0.0918701
255 0.0596437
260 0.121168
265 0.142786
270 0.114351
275 0.108496
280 0.147936
285 0.097519
290 0.0898434
295 0.108474
300 0.160163
305 0.107138
310 0.120708
315 0.104022
320 0.118995
325 0.120237
330 0.097733
335 0.0999635
340 0.11946
345 0.123925
350 0.108717
355 0.123678
360 0.108707
365 0.123967
370 0.0834027
375 0.11949
380 0.126145
385 0.129674
390 0.11482
395 0.129546
400 0.169876
405 0.100202
410 0.0813028
415 0.137701
420 0.149341
425 0.152895
430 0.188954
435 0.187866
440 0.254253
445 0.19708
450 0.289107
455 0.224909
460 0.387718
465 0.5321
470 0.705852
475 1.03883
480 1.90895
485 82.9093
490 1252.27
495 1713.59
500 400.224
505 47.9636
510 7.21079
515 2.10681
520 1.38885
525 1.23233
530 1.28542
535 1.39052
540 1.05874
545 1.03075
550 0.849297
555 0.850483
560 0.664191
565 0.792114
570 0.829029
575 1.18159
580 1.14747
585 0.699995
590 0.449624
595 0.426571
600 0.235505
Ex : 503
200 0.102191
205 0.0784784
210 0.0479699
215 0.0463547
220 0.100158
225 0.0795671
230 0.0904791
235 0.102878
240 0.0866397
245 0.0773094
250 0.120795
255 0.113119
260 0.0632536
265 0.112542
270 0.145075
275 0.0840561
280 0.0989453
285 0.10002
290 0.0706878
295 0.0487673
300 0.0723196
305 0.106137
310 0.0648316
315 0.0535527
320 0.11434
325 0.114966
330 0.226367
335 0.209461
340 0.135602
345 0.112469
350 0.0903367
355 0.146972
360 0.12874
365 0.191722
370 0.106101
375 0.145393
380 0.157215
385 0.0968536
390 0.157049
395 0.180129
400 0.131882
405 0.155617
410 0.146428
415 0.138408
420 0.102626
425 0.14533
430 0.187213
435 0.203479
440 0.14793
445 0.214373
450 0.282633
455 0.279286
460 0.279596
465 0.396924
470 0.531389
475 0.651055
480 1.11063
485 2.02579
490 77.699
495 1275.07
500 1795.86
505 412.598
510 49.3983
515 7.2128
520 2.08276
525 1.38071
530 1.19783
535 1.26986
540 1.14944
545 1.00896
550 0.908191
555 0.790427
560 0.647573
565 0.72758
570 0.678809
575 0.551731
580 0.774232
585 0.970189
590 0.725548
595 0.449983
600 0.278639
Ex : 508
200 0.0945419
205 0.100453
210 0.0489994
215 0.100478
220 0.0734877
225 0.0682753
230 0.0704422
235 0.0875447
240 0.12515
245 0.115336
250 0.0683917
255 0.109576
260 0.09219
265 0.0756301
270 0.146208
275 0.144526
280 0.131033
285 0.0731605
290 0.0818608
295 0.137156
300 0.0499093
305 0.0999441
310 0.126296
315 0.145367
320 0.203306
325 0.11917
330 0.136355
335 0.159873
340 0.116844
345 0.163183
350 0.151806
355 0.102174
360 0.141547
365 0.114791
370 0.260122
375 0.122691
380 0.106265
385 0.16773
390 0.15228
395 0.119912
400 0.100756
405 0.113083
410 0.167197
415 0.169258
420 0.132348
425 0.104185
430 0.144786
435 0.219182
440 0.146551
445 0.184753
450 0.184839
455 0.205756
460 0.252818
465 0.236383
470 0.343712
475 0.461997
480 0.77268
485 1.02464
490 2.07991
495 84.0075
500 1292.75
505 1812.62
510 437.887
515 52.4448
520 7.72622
525 2.19616
530 1.13582
535 1.01148
540 1.0306
545 1.05211
550 1.1407
555 0.954502
560 0.736561
565 0.717375
570 0.602283
575 0.487373
580 0.567058
585 0.523869
590 0.710381
595 0.676307
600 0.946904
Ex : 513
200 0.075064
205 0.0950253
210 0.0689496
215 0.0752237
220 0.0556912
225 0.0464475
230 0.113815
235 0.104136
240 0.132569
245 0.136745
250 0.0858568
255 0.0627747
260 0.086511
265 0.0676318
270 0.104055
275 0.0993306
280 0.098621
285 0.0778299
290 0.092476
295 0.14788
300 0.076429
305 0.0933247
310 0.150452
315 0.0989366
320 0.115582
325 0.0913473
330 0.126467
335 0.107844
340 0.0706945
345 0.233686
350 0.167122
355 0.174069
360 0.0863011
365 0.100947
370 0.0857447
375 0.226856
380 0.184102
385 0.103061
390 0.10973
395 0.101476
400 0.154851
405 0.234857
410 0.187528
415 0.12268
420 0.148565
425 0.166371
430 0.176749
435 0.127469
440 0.129833
445 0.21172
450 0.143882
455 0.164989
460 0.22989
465 0.292062
470 0.232542
475 0.344239
480 0.467075
485 0.70511
490 1.06237
495 1.81438
500 77.9467
505 1272.07
510 1858.11
515 458.484
520 55.0001
525 8.03637
530 2.24994
535 1.21736
540 0.994039
545 0.984914
550 1.04141
555 0.870506
560 0.879377
565 0.628351
570 0.604261
575 0.566885
580 0.469531
585 0.407554
590 0.361996
595 0.639344
600 0.409184
Ex : 518
200 0.150154
205 0.114738
210 0.084063
215 0.118634
220 0.0891392
225 0.0671563
230 0.0715377
235 0.0550993
240 0.125911
245 0.0442302
250 0.0922792
255 0.0862074
260 0.170171
265 0.170318
270 0.129696
275 0.0770637
280 0.101452
285 0.0991567
290 0.0774426
295 0.0950434
300 0.0713668
305 0.102995
310 0.0736337
315 0.149947
320 0.166396
325 0.133152
330 0.139884
335 0.106115
340 0.0965538
345 0.104497
350 0.153696
355 0.187831
360 0.165764
365 0.126381
370 0.123342
375 0.177095
380 0.153471
385 0.111769
390 0.160607
395 0.141678
400 0.124875
405 0.131664
410 0.162308
415 0.124782
420 0.131052
425 0.164966
430 0.179976
435 0.204173
440 0.155142
445 0.208021
450 0.159554
455 0.177858
460 0.27581
465 0.219816
470 0.243075
475 0.324045
480 0.409685
485 0.453638
490 0.71602
495 1.08704
500 1.93908
505 79.0926
510 1253.29
515 1859.15
520 457.655
525 54.7782
530 7.88738
535 2.03715
540 1.21846
545 0.912334
550 0.942303
555 0.845242
560 0.866744
565 0.731036
570 0.643923
575 0.60168
580 0.398441
585 0.404646
590 0.329117
595 0.36833
600 1.69984
Ex : 523
200 0.11775
205 0.119939
210 0.102626
215 0.0742202
220 0.0823492
225 0.120449
230 0.212584
235 0.0999613
240 0.140855
245 0.140336
250 0.126732
255 0.119447
260 0.126606
265 0.0737883
270 0.109716
275 0.135062
280 0.0576551
285 0.0688762
290 0.140385
295 0.10992
300 0.0757937
305 0.091946
310 0.10928
315 0.070183
320 0.110451
325 0.0726363
330 0.0851524
335 0.158354
340 0.150678
345 0.168568
350 0.162013
355 0.157139
360 0.124239
365 0.152657
370 0.13871
375 0.131404
380 0.165873
385 0.209353
390 0.146417
395 0.14886
400 0.182443
405 0.190413
410 0.124471
415 0.167769
420 0.175065
425 0.154594
430 0.1814
435 0.146822
440 0.243136
445 0.216401
450 0.175834
455 0.145586
460 0.242928
465 0.222041
470 0.247292
475 0.169004
480 0.299375
485 0.330067
490 0.537519
495 0.70482
500 1.14958
505 1.90028
510 73.6429
515 1216.22
520 1859.37
525 483.165
530 57.7991
535 8.11776
540 1.95431
545 1.35617
550 0.890927
555 0.794066
560 0.784997
565 0.70903
570 0.733284
575 0.511064
580 0.422362
585 0.323811
590 0.430904
595 0.46674
600 0.0531133
Ex : 528
200 0.123943
205 0.148987
210 0.147291
215 0.0980273
220 0.103075
225 0.0802894
230 0.0551789
235 0.0892721
240 0.113218
245 0.117309
250 0.175735
255 0.135405
260 0.130313
265 0.214842
270 0.120987
275 0.0703502
280 0.0703159
285 0.119172
290 0.103371
295 0.11479
300 0.100883
305 0.118631
310 0.151812
315 0.111705
320 0.156549
325 0.124641
330 0.161521
335 0.107155
340 0.0976464
345 0.123372
350 0.12228
355 0.105343
360 0.103791
365 0.086593
370 0.151269
375 0.107133
380 0.145771
385 0.0795693
390 0.0765117
395 0.127809
400 0.123559
405 0.228505
410 0.175626
415 0.195467
420 0.169271
425 0.168322
430 0.156866
435 0.168902
440 0.124293
445 0.167428
450 0.172048
455 0.126375
460 0.235143
465 0.307468
470 0.200277
475 0.179045
480 0.209653
485 0.308911
490 0.343104
495 0.623271
500 0.668583
505 1.1231
510 2.00853
515 69.2573
520 1216.21
525 1856.24
530 467.163
535 55.7315
540 7.72718
545 1.93581
550 1.24532
555 0.779935
560 0.591304
565 0.870822
570 0.701986
575 0.473848
580 0.463364
585 0.550859
590 0.42275
595 0.313249
600 0.0853825
Ex : 533
200 0.129328
205 0.0908306
210 0.0715811
215 0.184667
220 0.0948929
225 0.116803
230 0.189066
235 0.207075
240 0.194014
245 0.113146
250 0.0851412
255 0.108131
260 0.113063
265 0.145119
270 0.144638
275 0.160035
280 0.0722974
285 0.105373
290 0.14081
295 0.0670557
300 0.107369
305 0.156679
310 0.0909427
315 0.135166
320 0.115806
325 0.0876009
330 0.187074
335 0.149055
340 0.0766177
345 0.153667
350 0.0934086
355 0.131486
360 0.118741
365 0.127868
370 0.0908548
375 0.120067
380 0.120114
385 0.13871
390 0.0977262
395 0.241382
400 0.172914
405 0.12105
410 0.139847
415 0.19822
420 0.131087
425 0.211528
430 0.161708
435 0.106082
440 0.155793
445 0.185596
450 0.154636
455 0.145223
460 0.221537
465 0.289749
470 0.217952
475 0.172577
480 0.204811
485 0.270507
490 0.31094
495 0.4023
500 0.54573
505 0.738766
510 1.02149
515 1.85753
520 69.7372
525 1173.98
530 1836.78
535 477.074
540 56.9463
545 7.70728
550 1.90475
555 0.932507
560 0.726796
565 0.698204
570 0.615243
575 0.602048
580 0.512962
585 0.422614
590 0.42743
595 0.342132
600 0.337444
Ex : 538
200 0.0693851
205 0.108932
210 0.181429
215 0.0979385
220 0.0785422
225 0.113292
230 0.165103
235 0.124536
240 0.104292
245 0.115226
250 0.091153
255 0.122043
260 0.0941262
265 0.143126
270 0.0592609
275 0.105326
280 0.100513
285 0.200842
290 0.0857753
295 0.0724476
300 0.0851649
305 0.0950142
310 0.122283
315 0.12902
320 0.0899115
325 0.0967356
330 0.076206
335 0.072607
340 0.139214
345 0.142062
350 0.14328
355 0.143696
360 0.211588
365 0.163562
370 0.147244
375 0.176314
380 0.0916272
385 0.159479
390 0.191633
395 0.118829
400 0.179758
405 0.17299
410 0.172243
415 0.163004
420 0.179541
425 0.123395
430 0.138231
435 0.177856
440 0.136732
445 0.131156
450 0.188195
455 0.181975
460 0.154697
465 0.138244
470 0.19631
475 0.194699
480 0.275291
485 0.277315
490 0.299243
495 0.260477
500 0.429728
505 0.377653
510 0.671162
515 0.989357
520 1.68895
525 59.6886
530 1134.51
535 1854.15
540 500.761
545 59.784
550 8.16806
555 1.89716
560 0.951353
565 0.608908
570 0.510662
575 0.673739
580 0.529713
585 0.428605
590 0.291789
595 0.438353
600 0.0498829
Ex : 543
200 0.0827841
205 0.141857
210 0.177974
215 0.10467
220 0.147668
225 0.200521
230 0.103631
235 0.135446
240 0.194247
245 0.110772
250 0.13251
255 0.0772358
260 0.0795816
265 0.129729
270 0.114256
275 0.108616
280 0.110735
285 0.132479
290 0.109688
295 0.162559
300 0.183809
305 0.104851
310 0.0854481
315 0.0657344
320 0.123051
325 0.124867
330 0.181873
335 0.14309
340 0.16859
345 0.253869
350 0.187584
355 0.123632
360 0.146044
365 0.0930366
370 0.111357
375 0.0983727
380 0.101766
385 0.111237
390 0.139765
395 0.0978616
400 0.0909147
405 0.154776
410 0.150325
415 0.177794
420 0.150354
425 0.230607
430 0.174659
435 0.176921
440 0.207331
445 0.254669
450 0.232814
455 0.161575
460 0.295991
465 0.233679
470 0.174628
475 0.163856
480 0.240613
485 0.19908
490 0.351176
495 0.334773
500 0.334126
505 0.378304
510 0.402584
515 0.676551
520 0.995765
525 1.8298
530 53.4986
535 1090.17
540 1847.53
545 513.123
550 61.5379
555 8.21837
560 1.75486
565 0.859716
570 0.64829
575 0.481644
580 0.367608
585 0.454841
590 0.377037
595 0.26684
600 0.525451
Ex : 548
200 0.157033
205 0.12921
210 0.140348
215 0.1096
220 0.144434
225 0.125764
230 0.0687792
235 0.0837698
240 0.0898328
245 0.124229
250 0.091797
255 0.12349
260 0.081625
265 0.178696
270 0.155393
275 0.140797
280 0.0865845
285 0.126238
290 0.11328
295 0.157798
300 0.132812
305 0.196803
310 0.147264
315 0.174259
320 0.110679
325 0.16736
330 0.195455
335 0.138014
340 0.0702524
345 0.180037
350 0.122546
355 0.201946
360 0.241868
365 0.0883967
370 0.114519
375 0.126815
380 0.161301
385 0.114677
390 0.123567
395 0.145984
400 0.16638
405 0.119149
410 0.153814
415 0.132825
420 0.179065
425 0.157885
430 0.159237
435 0.216136
440 0.233989
445 0.189792
450 0.23143
455 0.214035
460 0.140097
465 0.237036
470 0.181144
475 0.173725
480 0.18103
485 0.203474
490 0.268783
495 0.310889
500 0.317241
505 0.352663
510 0.290655
515 0.464856
520 0.552241
525 1.01318
530 1.84674
535 60.7858
540 1105.81
545 1805.14
550 499.734
555 59.4608
560 7.70714
565 1.76606
570 0.888684
575 0.490194
580 0.507171
585 0.397596
590 0.31506
595 0.396359
600 0.693299
Ex : 553
200 0.132357
205 0.150205
210 0.138075
215 0.0696944
220 0.0927442
225 0.166125
230 0.191183
235 0.157181
240 0.133217
245 0.231512
250 0.22353
255 0.190532
260 0.175712
265 0.117808
270 0.129712
275 0.134487
280 0.0702073
285 0.0918076
290 0.109248
295 0.104931
300 0.102567
305 0.100505
310 0.0815458
315 0.180888
320 0.130375
325 0.115322
330 0.259284
335 0.169492
340 0.0970754
345 0.143447
350 0.178112
355 0.0961964
360 0.13803
365 0.0983929
370 0.134441
375 0.150015
380 0.189922
385 0.197395
390 0.171165
395 0.127747
400 0.153692
405 0.190187
410 0.148046
415 0.190401
420 0.164034
425 0.149757
430 0.155755
435 0.172766
440 0.213521
445 0.237326
450 0.210613
455 0.15012
460 0.150228
465 0.226936
470 0.218808
475 0.219779
480 0.155688
485 0.205809
490 0.22479
495 0.19377
500 0.216115
505 0.387335
510 0.417901
515 0.418874
520 0.54196
525 0.651391
530 1.03406
535 1.80368
540 52.4884
545 1048.07
550 1791.52
555 506.751
560 60.3944
565 7.90758
570 1.54938
575 0.79896
580 0.438135
585 0.408947
590 0.371466
595 0.453969
600 0.7202
Ex : 558
200 0.116044
205 0.0623244
210 0.0872547
215 0.0898583
220 0.0956615
225 0.0929682
230 0.12051
235 0.0955011
240 0.129548
245 0.134807
250 0.187277
255 0.158049
260 0.124107
265 0.100945
270 0.154398
275 0.193802
280 0.176075
285 0.142981
290 0.109671
295 0.119074
300 0.118477
305 0.102929
310 0.0647969
315 0.144942
320 0.112531
325 0.192739
330 0.0741775
335 0.130359
340 0.178908
345 0.264486
350 0.124243
355 0.143107
360 0.143938
365 0.19012
370 0.0950528
375 0.151724
380 0.204304
385 0.146114
390 0.124899
395 0.174607
400 0.242553
405 0.172222
410 0.24745
415 0.241349
420 0.124881
425 0.16423
430 0.164134
435 0.25266
440 0.16213
445 0.150993
450 0.221561
455 0.13628
460 0.150556
465 0.161721
470 0.231773
475 0.21524
480 0.255767
485 0.195917
490 0.294653
495 0.214796
500 0.231946
505 0.21074
510 0.345378
515 0.3739
520 0.304343
525 0.291145
530 0.681217
535 1.00702
540 1.45828
545 49.4424
550 1001.85
555 1784.66
560 508.414
565 60.8363
570 7.88358
575 1.58328
580 0.830037
585 0.550671
590 0.356813
595 0.346076
600 0.0664005
Ex : 563
200 0.166416
205 0.246176
210 0.176866
215 0.247399
220 0.12247
225 0.077513
230 0.0880329
235 0.16647
240 0.111093
245 0.130785
250 0.0662531
255 0.0549527
260 0.164953
265 0.163468
270 0.122398
275 0.135855
280 0.119758
285 0.135643
290 0.104136
295 0.146099
300 0.17002
305 0.0814059
310 0.208396
315 0.164289
320 0.156939
325 0.170436
330 0.15109
335 0.207637
340 0.28496
345 0.174167
350 0.084295
355 0.123482
360 0.117201
365 0.169257
370 0.176298
375 0.104799
380 0.213512
385 0.200628
390 0.120721
395 0.161017
400 0.191595
405 0.20428
410 0.122264
415 0.131516
420 0.193986
425 0.146149
430 0.196088
435 0.158428
440 0.215674
445 0.155377
450 0.238662
455 0.154275
460 0.17711
465 0.174502
470 0.169853
475 0.190411
480 0.288763
485 0.133626
490 0.22615
495 0.181872
500 0.302451
505 0.197877
510 0.301184
515 0.287589
520 0.291075
525 0.451199
530 0.46734
535 0.710981
540 0.819254
545 1.49339
550 48.4029
555 973.038
560 1714.55
565 493.777
570 58.7815
575 7.42396
580 1.42778
585 0.623733
590 0.402339
595 0.330674
600 0.0376294
Ex : 568
200 0.126713
205 0.104326
210 0.196875
215 0.182493
220 0.0804246
225 0.0901145
230 0.131939
235 0.0899551
240 0.092521
245 0.155033
250 0.180058
255 0.147601
260 0.113764
265 0.122696
270 0.154747
275 0.245345
280 0.0829364
285 0.17326
290 0.196654
295 0.137875
300 0.0682587
305 0.140014
310 0.167126
315 0.0871984
320 0.0960073
325 0.115467
330 0.126074
335 0.158616
340 0.0730859
345 0.146098
350 0.158022
355 0.266609
360 0.10653
365 0.155497
370 0.22786
375 0.175136
380 0.118366
385 0.120926
390 0.114873
395 0.0905755
400 0.202149
405 0.154247
410 0.139642
415 0.13822
420 0.187426
425 0.233375
430 0.120214
435 0.147729
440 0.140729
445 0.269863
450 0.146492
455 0.142721
460 0.156558
465 0.16312
470 0.273552
475 0.18351
480 0.275496
485 0.287926
490 0.257983
495 0.158888
500 0.190555
505 0.241759
510 0.177908
515 0.301551
520 0.373158
525 0.280778
530 0.30876
535 0.436817
540 0.550852
545 0.76961
550 1.38101
555 36.7736
560 893.813
565 1675.2
570 502.701
575 60.1798
580 7.75433
585 1.3515
590 0.672105
595 0.418038
600 0.20766
Ex : 573
200 0.181186
205 0.0987378
210 0.137796
215 0.108565
220 0.120187
225 0.178272
230 0.115803
235 0.0763479
240 0.213621
245 0.168885
250 0.154426
255 0.0612859
260 0.165703
265 0.10061
270 0.087677
275 0.114253
280 0.166526
285 0.148068
290 0.160604
295 0.12671
300 0.136523
305 0.136587
310 0.162041
315 0.160946
320 0.152978
325 0.10885
330 0.157342
335 0.152704
340 0.137979
345 0.223871
350 0.158045
355 0.199541
360 0.245916
365 0.21592
370 0.203003
375 0.173959
380 0.177834
385 0.182769
390 0.131873
395 0.177637
400 0.211013
405 0.207862
410 0.249864
415 0.175875
420 0.140015
425 0.205003
430 0.143506
435 0.184186
440 0.0981866
445 0.115083
450 0.175287
455 0.145294
460 0.12027
465 0.15476
470 0.280605
475 0.14582
480 0.205018
485 0.182982
490 0.212556
495 0.143338
500 0.247532
505 0.18314
510 0.188191
515 0.26515
520 0.288155
525 0.334165
530 0.329602
535 0.37359
540 0.373085
545 0.437976
550 0.987092
555 1.11789
560 31.7664
565 777.671
570 1545.18
575 476.665
580 56.7835
585 7.14913
590 1.34218
595 0.602503
600 0.379614
Ex : 578
200 0.202663
205 0.166191
210 0.121339
215 0.161097
220 0.174421
225 0.190032
230 0.120368
235 0.142105
240 0.078284
245 0.0980108
250 0.109701
255 0.147952
260 0.103299
265 0.13397
270 0.104768
275 0.0764502
280 0.0964355
285 0.100775
290 0.155314
295 0.203599
300 0.0814489
305 0.0767681
310 0.22818
315 0.135905
320 0.184287
325 0.0893317
330 0.26391
335 0.124361
340 0.185074
345 0.148727
350 0.281172
355 0.154326
360 0.0980199
365 0.0505508
370 0.139964
375 0.176843
380 0.135931
385 0.173138
390 0.135472
395 0.116264
400 0.0893193
405 0.102344
410 0.146813
415 0.177622
420 0.104947
425 0.0794393
430 0.129799
435 0.180643
440 0.16056
445 0.22679
450 0.144482
455 0.129197
460 0.235012
465 0.182609
470 0.237243
475 0.17169
480 0.22716
485 0.294441
490 0.309496
495 0.184939
500 0.210137
505 0.185976
510 0.190303
515 0.175797
520 0.239482
525 0.243197
530 0.223473
535 0.28944
540 0.414133
545 0.416804
550 0.621857
555 0.765938
560 1.25096
565 27.8066
570 698.553
575 1368.34
580 412.542
585 49.1294
590 6.09113
595 1.20196
600 1.04743
Ex : 583
200 0.0954288
205 0.17809
210 0.0771331
215 0.102258
220 0.096258
225 0.159703
230 0.162712
235 0.107032
240 0.0940841
245 0.27053
250 0.112455
255 0.149919
260 0.163095
265 0.146613
270 0.150215
275 0.221752
280 0.182204
285 0.0911579
290 0.201904
295 0.0909277
300 0.10046
305 0.121236
310 0.200804
315 0.156163
320 0.0907487
325 0.209786
330 0.229181
335 0.141251
340 0.125039
345 0.0933944
350 0.110203
355 0.0574118
360 0.176468
365 0.190032
370 0.127274
375 0.164564
380 0.188483
385 0.136728
390 0.146085
395 0.111325
400 0.150923
405 0.121672
410 0.108139
415 0.10756
420 0.0795729
425 0.152274
430 0.192405
435 0.142482
440 0.181956
445 0.183338
450 0.147442
455 0.127572
460 0.111159
465 0.245586
470 0.213708
475 0.177492
480 0.115745
485 0.171973
490 0.209801
495 0.146486
500 0.143227
505 0.301293
510 0.252261
515 0.146727
520 0.299754
525 0.215835
530 0.279412
535 0.189453
540 0.369384
545 0.323866
550 0.444619
555 0.534156
560 0.754518
565 1.00303
570 23.6603
575 622.25
580 1182.88
585 343.762
590 40.8109
595 5.28722
600 0.915529
Ex : 588
200 0.172289
205 0.117695
210 0.0821212
215 0.0990519
220 0.157664
225 0.150611
230 0.0876078
235 0.127893
240 0.127281
245 0.0958623
250 0.0853511
255 0.127258
260 0.290928
265 0.141833
270 0.0792639
275 0.0813028
280 0.0948635
285 0.104136
290 0.172502
295 0.168616
300 0.198995
305 0.174884
310 0.206527
315 0.090237
320 0.179918
325 0.11176
330 0.14982
335 0.145915
340 0.167934
345 0.190794
350 0.214311
355 0.229134
360 0.13347
365 0.1033
370 0.166005
375 0.0813082
380 0.189701
385 0.120037
390 0.181818
395 0.254828
400 0.268738
405 0.1051
410 0.168013
415 0.149625
420 0.168921
425 0.134787
430 0.102322
435 0.194052
440 0.270741
445 0.204993
450 0.125919
455 0.174907
460 0.148221
465 0.180443
470 0.164958
475 0.233814
480 0.138134
485 0.180106
490 0.152829
495 0.186998
500 0.190601
505 0.183859
510 0.160931
515 0.169567
520 0.122031
525 0.184968
530 0.22772
535 0.189378
540 0.310046
545 0.269642
550 0.202537
555 0.328114
560 0.488934
565 0.532197
570 0.940904
575 21.1242
580 521.985
585 1014.01
590 303.261
595 36.2756
600 4.71882
Ex : 593
200 0.166155
205 0.135302
210 0.114584
215 0.153737
220 0.185302
225 0.172827
230 0.213692
235 0.111501
240 0.0954931
245 0.174734
250 0.105568
255 0.100634
260 0.0929676
265 0.106468
270 0.118893
275 0.136421
280 0.134749
285 0.0988954
290 0.132744
295 0.131674
300 0.19916
305 0.145971
310 0.165817
315 0.193625
320 0.161885
325 0.125772
330 0.175676
335 0.185328
340 0.158576
345 0.216128
350 0.145904
355 0.168373
360 0.229097
365 0.252143
370 0.104303
375 0.127105
380 0.177472
385 0.081086
390 0.192702
395 0.0709658
400 0.267232
405 0.176288
410 0.129566
415 0.0911522
420 0.121128
425 0.0904793
430 0.135662
435 0.190488
440 0.248549
445 0.0788413
450 0.221505
455 0.160014
460 0.227391
465 0.172608
470 0.164529
475 0.194612
480 0.218057
485 0.145155
490 0.155641
495 0.128647
500 0.121081
505 0.170625
510 0.174925
515 0.145516
520 0.196933
525 0.147626
530 0.185623
535 0.252033
540 0.289804
545 0.300709
550 0.302172
555 0.265262
560 0.438423
565 0.350458
570 0.583897
575 0.895329
580 17.7483
585 469.161
590 882.353
595 263.331
600 39.1235
Ex : 598
200 0.106913
205 0.125353
210 0.113051
215 0.111351
220 0.0760558
225 0.320551
230 0.266392
235 0.118562
240 0.0920334
245 0.139121
250 0.100884
255 0.19118
260 0.158185
265 0.11577
270 0.0975585
275 0.100773
280 0.0919236
285 0.155109
290 0.0970048
295 0.143506
300 0.137522
305 0.128634
310 0.163796
315 0.0972515
320 0.177695
325 0.156288
330 0.102609
335 0.0683474
340 0.0904472
345 0.142069
350 0.106186
355 0.11684
360 0.108428
365 0.119429
370 0.113992
375 0.14922
380 0.164291
385 0.136146
390 0.141295
395 0.195744
400 0.181731
405 0.119316
410 0.107862
415 0.140272
420 0.0895601
425 0.1855
430 0.203117
435 0.183359
440 0.161887
445 0.0720497
450 0.142928
455 0.204951
460 0.118684
465 0.180083
470 0.174916
475 0.161304
480 0.171033
485 0.0910292
490 0.151841
495 0.198857
500 0.216133
505 0.122517
510 0.183864
515 0.259964
520 0.25303
525 0.182357
530 0.418712
535 0.230146
540 0.279318
545 0.174841
550 0.178243
555 0.224636
560 0.195745
565 0.357802
570 0.386853
575 0.341964
580 0.598089
585 18.0812
590 422.498
595 770.964
600 492.158
Ex : 603
200 0.0982957
205 0.172954
210 0.139008
215 0.184502
220 0.0956549
225 0.0853383
230 0.186037
235 0.077994
240 0.135426
245 0.236518
250 0.157395
255 0.161857
260 0.277164
265 0.158191
270 0.22681
275 0.130299
280 0.127412
285 0.116295
290 0.101732
295 0.121756
300 0.17203
305 0.120711
310 0.122759
315 0.0914576
320 0.121117
325 0.185919
330 0.138498
335 0.141178
340 0.100977
345 0.104485
350 0.0578348
355 0.174242
360 0.101586
365 0.175905
370 0.107107
375 0.249498
380 0.298956
385 0.172352
390 0.122562
395 0.213859
400 0.195271
405 0.118155
410 0.150189
415 0.181431
420 0.0963105
425 0.275093
430 0.124368
435 0.10038
440 0.133342
445 0.150054
450 0.156115
455 0.138275
460 0.187659
465 0.217918
470 0.202813
475 0.152107
480 0.183384
485 0.188872
490 0.234175
495 0.149089
500 0.179507
505 0.169831
510 0.166851
515 0.156876
520 0.158703
525 0.13402
530 0.181083
535 0.19103
540 0.180352
545 0.220284
550 0.217874
555 0.195515
560 0.310681
565 0.204809
570 0.371747
575 0.416997
580 0.54666
585 0.661289
590 15.6909
595 361.617
600 721.741
