File format V 1.0
ven. 6. janv. 11:38:23 2017
Operator : 
Comments : 

=============================================
SpectroFluorometer parameters
Mode : 3D measurement
Data : Fluorescence
Phospho. : Ordinary
Spectrum : Fluorescence

Scan speed : 2400 nm/mn
Response : 100 ms
PM Voltage : 700 V
Shutter : On

Lambda Ex. Start : 203
Lambda Ex. End : 603
Lambda Ex. Step : 5
Ex. Slit : 5 nm

Lambda Em. Start : 200
Lambda Em. End : 600
Lambda Em. Step : 5
Em. Slit : 5 nm

Repetition : 1
Decal lambda em : 10
=============================================
DATA
Ex : 203
200 10.1813
205 8.22853
210 7.64402
215 9.22259
220 7.34914
225 8.90218
230 7.09135
235 5.11282
240 8.62979
245 6.8191
250 8.27135
255 8.59747
260 9.6761
265 9.26507
270 5.46608
275 8.49131
280 9.55838
285 10.4939
290 9.77533
295 10.2698
300 7.45266
305 8.94239
310 8.10724
315 9.05188
320 6.55758
325 7.81151
330 9.12659
335 8.65895
340 10.9845
345 10.6011
350 10.2696
355 8.82688
360 10.9991
365 9.31514
370 8.70727
375 12.4264
380 9.56814
385 10.5144
390 12.1815
395 10.2063
400 7.00752
405 8.06326
410 12.4177
415 9.11735
420 5.63283
425 10.8503
430 7.83473
435 9.30563
440 11.1254
445 8.19241
450 6.61999
455 7.38525
460 6.84006
465 9.50332
470 8.56025
475 7.00828
480 11.3984
485 12.1376
490 8.07591
495 7.74993
500 10.8589
505 8.417
510 9.54934
515 10.6839
520 9.40487
525 8.53639
530 9.26446
535 11.8539
540 9.4344
545 8.15819
550 8.29183
555 13.1339
560 11.6885
565 8.18076
570 8.91175
575 5.7947
580 8.15843
585 9.98791
590 9.49432
595 10.3052
600 51.6863
Ex : 208
200 10.7059
205 8.85933
210 7.2164
215 8.5731
220 9.68241
225 8.49654
230 6.84852
235 8.32203
240 6.07742
245 9.97725
250 7.83582
255 8.34363
260 10.0416
265 7.03848
270 7.39117
275 10.7942
280 6.99555
285 9.95009
290 9.24031
295 8.41979
300 6.38797
305 7.41187
310 6.28127
315 14.0909
320 10.846
325 12.7443
330 12.8494
335 7.67043
340 7.73846
345 5.93424
350 11.7117
355 6.61607
360 7.95143
365 9.34581
370 7.6665
375 7.68142
380 8.44165
385 8.67671
390 7.53086
395 7.77583
400 10.0761
405 12.4967
410 10.147
415 6.58773
420 8.29733
425 7.9201
430 7.74068
435 11.9435
440 10.6903
445 10.3868
450 7.70555
455 10.2706
460 8.23494
465 10.1848
470 9.19294
475 8.08597
480 9.66558
485 8.74227
490 10.3228
495 7.9155
500 9.45738
505 6.49243
510 8.82542
515 8.38933
520 6.3352
525 9.5384
530 9.0998
535 8.2303
540 11.5502
545 7.97748
550 8.68614
555 9.90027
560 8.38777
565 8.33797
570 6.82239
575 10.5445
580 7.88054
585 6.31085
590 10.8049
595 9.27499
600 11.6899
Ex : 213
200 9.79365
205 8.98891
210 9.3453
215 5.58599
220 8.03693
225 5.71722
230 7.46833
235 6.38017
240 8.68758
245 10.4081
250 9.64902
255 13.7343
260 10.8034
265 11.2206
270 6.98689
275 10.79
280 10.5956
285 9.19611
290 6.28908
295 8.00017
300 7.63428
305 10.6272
310 12.2821
315 8.54889
320 6.55436
325 11.3609
330 7.3154
335 9.08411
340 9.09145
345 8.99175
350 7.12966
355 7.57273
360 9.76644
365 7.21055
370 9.41138
375 7.86037
380 9.24371
385 10.8001
390 11.4011
395 10.387
400 10.2173
405 12.0741
410 11.2707
415 9.38161
420 6.89254
425 6.93238
430 11.0601
435 10.1949
440 6.62425
445 8.04148
450 16.0795
455 10.6309
460 12.8542
465 9.83084
470 11.5441
475 11.7376
480 6.2994
485 7.30799
490 8.33607
495 8.15293
500 9.96406
505 8.63006
510 7.29744
515 8.111
520 11.4491
525 6.96936
530 9.64533
535 8.55327
540 10.1909
545 9.16113
550 9.87101
555 9.3303
560 10.3646
565 8.05831
570 8.67843
575 5.65811
580 9.25205
585 7.8585
590 7.09769
595 9.89631
600 1.12616
Ex : 218
200 8.84153
205 7.11109
210 8.06132
215 8.79625
220 7.9687
225 6.68758
230 9.05911
235 6.08465
240 6.38127
245 9.99722
250 10.3092
255 9.16773
260 6.82537
265 9.32596
270 11.2302
275 14.4465
280 10.6804
285 8.9611
290 11.6449
295 11.6955
300 6.84999
305 5.69817
310 8.99619
315 11.1675
320 8.93861
325 7.78893
330 10.8574
335 8.35271
340 7.28266
345 9.62616
350 6.42649
355 8.05992
360 9.13343
365 6.88106
370 5.17398
375 8.02194
380 10.3384
385 8.58793
390 9.13892
395 9.20436
400 10.5708
405 13.8372
410 9.7986
415 9.15164
420 11.7738
425 9.7212
430 8.09361
435 8.17845
440 5.98886
445 7.74396
450 9.72043
455 10.1557
460 10.3784
465 8.60731
470 9.83178
475 8.48075
480 10.7717
485 5.3504
490 8.73322
495 8.12799
500 10.2872
505 8.27435
510 5.64212
515 9.17304
520 8.69026
525 10.6341
530 10.7811
535 7.71013
540 6.92708
545 7.53775
550 7.77114
555 6.56187
560 7.59154
565 6.72349
570 6.61495
575 9.08944
580 9.67365
585 11.6466
590 6.08496
595 6.8627
600 6.68897
Ex : 223
200 5.92
205 9.74714
210 7.46508
215 8.2493
220 4.94838
225 8.3626
230 5.94791
235 6.58935
240 6.83641
245 11.4509
250 10.1175
255 9.01583
260 11.0857
265 11.8333
270 7.02578
275 4.03463
280 7.1795
285 7.20624
290 7.27317
295 6.15397
300 8.55953
305 7.47947
310 6.67945
315 9.42619
320 10.4304
325 10.6368
330 7.14704
335 8.38548
340 8.36489
345 8.51041
350 7.84252
355 10.0162
360 6.02495
365 5.60574
370 10.8939
375 11.2514
380 8.73406
385 11.0905
390 9.34405
395 8.80193
400 7.24086
405 8.92905
410 7.80432
415 5.81503
420 18.0001
425 9.558
430 11.3037
435 11.9792
440 8.48009
445 12.0299
450 7.72369
455 8.84192
460 6.91703
465 10.9763
470 9.68142
475 11.2793
480 8.38647
485 9.24634
490 8.25798
495 8.15808
500 6.78348
505 12.9669
510 10.4378
515 10.0677
520 7.62428
525 8.8118
530 8.76146
535 10.5363
540 8.7795
545 6.61317
550 7.78155
555 7.88879
560 7.67951
565 7.16595
570 7.12058
575 6.45655
580 5.77893
585 6.94002
590 10.1595
595 9.27644
600 1.05562
Ex : 228
200 7.88725
205 9.23425
210 8.9296
215 9.51225
220 9.95358
225 10.5117
230 9.43267
235 6.79112
240 9.84134
245 7.7513
250 6.0239
255 10.0907
260 6.35784
265 7.72008
270 5.01549
275 5.33461
280 10.3964
285 5.39366
290 9.36947
295 8.71555
300 9.69231
305 10.7399
310 6.11843
315 7.8273
320 7.70732
325 6.28734
330 12.5787
335 5.69863
340 8.35267
345 9.88567
350 6.73041
355 8.37024
360 9.33634
365 6.98102
370 8.07133
375 8.09163
380 8.42746
385 5.69172
390 7.97125
395 6.95021
400 8.4461
405 7.7849
410 8.35346
415 8.8784
420 10.283
425 8.13573
430 6.35498
435 10.5453
440 6.75687
445 8.52762
450 9.16551
455 7.14593
460 7.85412
465 12.4761
470 10.121
475 7.96127
480 8.30812
485 8.63455
490 11.0248
495 8.69202
500 7.27943
505 8.08894
510 7.2866
515 5.92486
520 8.82821
525 9.47867
530 7.4969
535 10.0539
540 7.23152
545 5.69704
550 9.67705
555 5.6881
560 7.54249
565 8.54756
570 6.98106
575 8.29974
580 7.32339
585 8.58874
590 8.31773
595 8.34422
600 0.94954
Ex : 233
200 10.5421
205 6.87777
210 5.90565
215 7.63444
220 9.11484
225 7.33125
230 7.41414
235 7.26348
240 6.82933
245 6.66638
250 7.28945
255 7.41334
260 6.79503
265 5.46344
270 6.68785
275 6.9728
280 6.79679
285 7.80694
290 7.40655
295 6.5866
300 7.67016
305 7.5278
310 6.89816
315 7.10546
320 5.02414
325 5.81027
330 8.35505
335 8.04842
340 6.54656
345 8.94846
350 7.84704
355 8.83994
360 7.11458
365 8.04626
370 5.93329
375 7.23703
380 9.61069
385 10.6819
390 7.31425
395 6.33333
400 9.07163
405 6.50192
410 9.95723
415 8.38684
420 7.52318
425 8.26947
430 8.5718
435 6.2441
440 7.98829
445 8.94051
450 8.87746
455 6.92241
460 6.02291
465 7.59039
470 7.12655
475 7.69579
480 9.37411
485 6.34486
490 6.25764
495 8.63384
500 6.37223
505 4.43991
510 6.48923
515 8.85591
520 6.19959
525 4.77701
530 6.95956
535 9.94381
540 8.12709
545 8.59977
550 9.44679
555 7.76257
560 7.7747
565 7.48157
570 7.82524
575 10.6591
580 6.87612
585 8.40383
590 8.23645
595 8.80182
600 12.345
Ex : 238
200 9.15768
205 7.54588
210 7.91903
215 6.97304
220 6.41881
225 6.24185
230 6.14738
235 6.07095
240 7.49024
245 8.011
250 10.1972
255 6.48513
260 5.00093
265 6.74645
270 8.6124
275 5.75673
280 5.97232
285 7.36929
290 8.40875
295 5.13197
300 9.40767
305 7.13326
310 7.75972
315 9.00155
320 7.4604
325 9.69964
330 6.84934
335 6.95679
340 7.45875
345 7.44083
350 7.36534
355 8.91022
360 10.4643
365 7.81871
370 5.14713
375 5.47462
380 7.69009
385 6.31317
390 9.63609
395 6.78075
400 8.28256
405 5.97423
410 6.40942
415 6.9979
420 8.1764
425 7.94253
430 8.78249
435 6.86199
440 8.78637
445 8.81456
450 6.68633
455 7.30208
460 7.03438
465 7.85272
470 6.99729
475 8.64712
480 6.68744
485 9.14894
490 5.51665
495 7.97113
500 5.50951
505 7.31855
510 8.06198
515 6.80435
520 5.11051
525 7.46668
530 7.14099
535 5.83828
540 4.28273
545 7.73984
550 4.79815
555 5.06196
560 6.77234
565 8.30157
570 7.33801
575 6.52092
580 6.60106
585 6.90595
590 6.25324
595 6.0946
600 2.31825
Ex : 243
200 5.56204
205 5.88174
210 5.11011
215 7.46242
220 6.034
225 4.65159
230 4.66167
235 5.4046
240 7.66841
245 5.1565
250 3.97777
255 3.63908
260 7.63083
265 6.59219
270 9.44493
275 6.67873
280 7.73477
285 6.06081
290 6.29781
295 7.42696
300 6.57213
305 6.2052
310 6.42281
315 3.55301
320 5.71813
325 5.84999
330 6.15683
335 4.39039
340 7.19029
345 5.89376
350 6.2111
355 6.40142
360 11.9193
365 8.97576
370 6.60877
375 4.6329
380 4.62963
385 5.88344
390 7.00446
395 5.37797
400 5.14328
405 8.96187
410 9.53135
415 5.59816
420 7.52241
425 4.79028
430 5.68895
435 4.16922
440 5.98111
445 7.46009
450 6.5824
455 4.79215
460 5.51754
465 7.11829
470 6.11091
475 10.0807
480 5.81171
485 6.35031
490 5.66866
495 4.94808
500 5.73984
505 5.49321
510 6.50447
515 6.07696
520 8.033
525 7.11755
530 7.4328
535 8.77571
540 8.48827
545 6.47103
550 6.83068
555 5.90625
560 5.60857
565 5.52065
570 5.60261
575 4.19872
580 5.32108
585 5.99631
590 7.66164
595 7.25456
600 56.2133
Ex : 248
200 5.92814
205 6.67245
210 4.28223
215 4.32173
220 5.25876
225 5.50557
230 6.64601
235 5.31924
240 3.24736
245 5.28672
250 4.96062
255 4.17965
260 4.3111
265 3.54399
270 6.31132
275 4.61077
280 5.3152
285 6.32489
290 4.95885
295 5.25223
300 3.83006
305 4.06356
310 6.10958
315 3.83855
320 4.83226
325 3.73044
330 5.16598
335 4.34419
340 5.78871
345 6.30071
350 6.49223
355 6.85808
360 5.91875
365 5.84642
370 6.37417
375 5.82314
380 4.6684
385 4.15977
390 4.38647
395 4.82991
400 5.6507
405 5.88421
410 5.07257
415 5.16482
420 8.07968
425 6.72671
430 7.93413
435 3.95801
440 6.41214
445 6.76392
450 6.27108
455 5.02125
460 5.48152
465 4.53366
470 4.36604
475 4.36844
480 5.83713
485 5.08133
490 5.18373
495 3.47005
500 7.0456
505 4.30199
510 6.11638
515 6.84246
520 4.672
525 4.16861
530 5.54939
535 5.417
540 4.35095
545 5.43296
550 6.04306
555 5.46798
560 5.30728
565 5.89163
570 3.12264
575 4.1793
580 4.71989
585 4.33315
590 4.4476
595 3.59625
600 21.3458
Ex : 253
200 4.37467
205 4.32603
210 3.50633
215 4.28717
220 4.1525
225 4.30323
230 4.32751
235 4.74435
240 6.04924
245 3.80745
250 3.74192
255 4.08724
260 2.39283
265 4.23752
270 3.92398
275 3.56671
280 4.37073
285 3.18846
290 4.89467
295 3.20868
300 4.35662
305 4.23725
310 4.16755
315 3.35857
320 2.87509
325 4.83435
330 4.62245
335 4.43603
340 4.88492
345 5.85616
350 4.96145
355 5.09987
360 4.04759
365 4.90366
370 4.68526
375 3.49728
380 4.60439
385 5.41636
390 3.87046
395 5.45437
400 4.6026
405 6.40931
410 5.98311
415 4.84063
420 5.09038
425 4.63248
430 4.40547
435 6.60552
440 4.99197
445 4.68822
450 4.17294
455 4.32937
460 6.25866
465 4.65462
470 3.98729
475 4.48259
480 4.68999
485 4.27833
490 5.8402
495 4.74253
500 5.5994
505 6.1025
510 3.62609
515 5.82935
520 5.25422
525 5.22612
530 4.89011
535 5.74609
540 6.16437
545 3.96401
550 4.40137
555 4.76645
560 3.87043
565 5.12201
570 4.44718
575 4.74174
580 4.59822
585 4.201
590 4.97398
595 4.38664
600 4.30986
Ex : 258
200 2.93319
205 3.62107
210 3.77079
215 3.8457
220 2.79834
225 3.21449
230 3.19556
235 3.40368
240 5.29249
245 4.0472
250 2.77546
255 2.55575
260 3.01558
265 2.96251
270 3.54182
275 2.60083
280 2.37243
285 3.02098
290 2.98028
295 2.75209
300 2.65977
305 2.17063
310 3.03671
315 3.24319
320 4.02372
325 3.53903
330 3.58097
335 3.12558
340 4.27923
345 3.36098
350 3.65808
355 2.90425
360 3.79711
365 5.15033
370 4.54882
375 3.70689
380 4.2948
385 4.71297
390 4.90776
395 4.44501
400 4.37763
405 3.46868
410 3.75967
415 4.59299
420 3.42672
425 4.75095
430 5.24942
435 3.83866
440 3.00254
445 4.98165
450 3.44521
455 4.46747
460 2.61865
465 4.48865
470 2.88819
475 2.67288
480 3.94419
485 3.977
490 3.01398
495 3.27343
500 3.25408
505 4.86516
510 3.86237
515 4.34881
520 3.6689
525 3.93047
530 3.74403
535 2.42377
540 3.90669
545 4.24606
550 4.81489
555 4.43033
560 3.45571
565 2.66298
570 3.77447
575 3.58353
580 3.20692
585 3.5441
590 2.36081
595 3.03208
600 1.8959
Ex : 263
200 2.50081
205 2.48237
210 3.26362
215 2.67084
220 2.99456
225 3.16443
230 2.99699
235 3.23763
240 2.18625
245 2.04361
250 2.25753
255 2.77124
260 1.68055
265 2.5423
270 2.07932
275 2.61507
280 3.05483
285 2.50921
290 2.54812
295 2.58677
300 1.96718
305 2.70315
310 2.30157
315 2.22597
320 3.04381
325 1.97254
330 3.39908
335 2.41054
340 3.10721
345 3.11083
350 2.87076
355 2.91529
360 2.94121
365 3.33042
370 3.03906
375 3.46675
380 3.25706
385 2.92559
390 3.18732
395 3.16435
400 3.63043
405 3.46708
410 3.62555
415 4.12025
420 3.50538
425 2.92922
430 2.42256
435 3.02765
440 4.06277
445 3.63158
450 3.02861
455 4.39672
460 4.48249
465 4.06079
470 4.35049
475 3.84392
480 3.08432
485 2.97579
490 3.19549
495 2.26495
500 3.74634
505 3.91283
510 2.98464
515 3.81709
520 3.64319
525 2.95831
530 3.21355
535 3.34669
540 3.12836
545 1.86133
550 2.29948
555 3.19713
560 2.72457
565 3.03752
570 2.78383
575 3.08747
580 3.43335
585 2.48907
590 3.2463
595 2.94208
600 2.81617
Ex : 268
200 2.20472
205 2.03966
210 1.76724
215 2.36368
220 2.20051
225 1.92707
230 1.66774
235 1.62335
240 1.84754
245 1.40604
250 1.56218
255 2.84575
260 2.04225
265 2.58225
270 2.15535
275 2.61477
280 2.61641
285 1.89384
290 2.04302
295 2.08609
300 1.68839
305 2.37779
310 2.72006
315 2.70791
320 1.77501
325 1.80344
330 2.67906
335 2.89495
340 2.02976
345 3.10676
350 2.18457
355 2.71823
360 1.57733
365 2.63931
370 2.38875
375 2.51796
380 2.85699
385 2.83468
390 3.21377
395 2.68596
400 2.00239
405 2.83497
410 3.25787
415 3.24034
420 2.53861
425 3.02135
430 2.80356
435 2.36549
440 3.20939
445 3.0451
450 2.69304
455 1.88258
460 2.6686
465 2.10103
470 2.53464
475 2.34721
480 2.86695
485 2.68282
490 1.80287
495 2.64251
500 2.71412
505 2.92772
510 1.86526
515 1.87255
520 2.3011
525 2.88019
530 3.21902
535 2.72798
540 2.43216
545 2.50231
550 2.5745
555 2.48765
560 2.53931
565 2.55736
570 2.13905
575 2.17337
580 2.66413
585 3.1801
590 2.28082
595 1.61855
600 0.184185
Ex : 273
200 1.28135
205 1.66944
210 1.36752
215 1.71044
220 1.70601
225 1.76054
230 1.95472
235 2.00428
240 1.14724
245 1.72383
250 1.69264
255 2.74313
260 2.05174
265 2.76522
270 2.26623
275 2.27199
280 2.06068
285 2.40593
290 1.92535
295 1.88808
300 1.78174
305 1.40986
310 1.74088
315 1.7655
320 3.05118
325 1.91249
330 1.90546
335 1.92935
340 2.19015
345 2.12
350 2.72337
355 1.89565
360 1.89504
365 2.03326
370 2.25374
375 1.99581
380 2.95809
385 3.22317
390 2.3591
395 2.78822
400 2.35945
405 2.09717
410 2.49187
415 2.92826
420 2.0629
425 2.16608
430 1.82645
435 2.33718
440 1.82902
445 1.98889
450 1.98841
455 2.36331
460 3.1067
465 1.92848
470 2.37762
475 1.70452
480 1.9673
485 2.5517
490 1.83869
495 2.40499
500 1.86978
505 2.35514
510 1.36194
515 1.85763
520 1.97341
525 2.11607
530 1.59278
535 1.96776
540 2.47366
545 2.35616
550 1.81851
555 1.36711
560 1.94024
565 1.6763
570 1.9971
575 1.73381
580 1.64728
585 1.94962
590 1.47716
595 1.78771
600 1.97584
Ex : 278
200 1.26311
205 1.46954
210 1.51219
215 1.178
220 1.23521
225 1.2141
230 1.25372
235 1.34979
240 1.7385
245 1.4109
250 1.74211
255 1.18949
260 1.13359
265 1.44018
270 1.58989
275 1.55601
280 1.13383
285 1.41244
290 1.10498
295 1.33083
300 1.8091
305 1.46794
310 1.15838
315 0.981614
320 1.1487
325 1.74701
330 2.09848
335 1.02611
340 1.24672
345 1.68999
350 1.52239
355 1.97672
360 1.74946
365 1.59522
370 1.55245
375 1.30372
380 1.50937
385 1.93018
390 1.6698
395 1.78472
400 1.67958
405 1.96891
410 2.55072
415 2.26995
420 2.14149
425 2.10967
430 1.49933
435 1.92594
440 1.99157
445 2.00283
450 2.34384
455 1.74815
460 1.97675
465 1.62622
470 1.23781
475 1.49783
480 1.65186
485 1.27274
490 1.68247
495 1.6353
500 1.80525
505 1.35564
510 1.58738
515 1.69515
520 1.40193
525 1.62604
530 1.25476
535 1.57393
540 0.968321
545 1.63703
550 1.99035
555 1.68262
560 1.14543
565 0.957676
570 1.39814
575 1.29676
580 1.45154
585 1.0545
590 1.55444
595 1.47259
600 2.12988
Ex : 283
200 1.19495
205 0.80854
210 1.31062
215 1.17322
220 0.88104
225 1.14387
230 1.67747
235 1.11101
240 0.933472
245 1.81209
250 1.52455
255 1.14287
260 1.94883
265 1.24333
270 0.801808
275 1.25604
280 1.87231
285 1.54366
290 1.43561
295 1.072
300 1.38891
305 1.09687
310 1.24734
315 1.16395
320 1.17821
325 1.89357
330 1.16841
335 1.2093
340 1.66114
345 1.24746
350 1.27159
355 1.44813
360 1.31006
365 1.19987
370 1.6056
375 1.51845
380 2.06012
385 1.55154
390 1.54661
395 1.86772
400 1.78024
405 2.44124
410 1.74489
415 1.77932
420 1.64321
425 1.54733
430 1.30251
435 1.97493
440 1.6025
445 1.49826
450 1.69781
455 2.01188
460 1.5682
465 1.71202
470 1.56559
475 2.1046
480 1.48108
485 1.66086
490 1.04653
495 1.69932
500 1.35704
505 1.45638
510 0.935414
515 1.31942
520 1.03381
525 1.03208
530 1.40312
535 1.19844
540 1.33669
545 1.52059
550 1.13203
555 1.93925
560 2.04207
565 2.41578
570 1.25652
575 0.809096
580 1.40982
585 1.1657
590 1.0195
595 1.27534
600 0.510036
Ex : 288
200 1.04442
205 1.36789
210 1.16107
215 0.661718
220 0.912806
225 0.864545
230 1.45705
235 1.12856
240 1.37979
245 0.894723
250 0.728721
255 0.860373
260 0.769241
265 1.08478
270 1.05266
275 1.15997
280 1.23003
285 1.41535
290 0.971107
295 1.01593
300 0.715767
305 0.976842
310 0.948341
315 0.852796
320 1.02732
325 1.04129
330 0.818725
335 1.13285
340 0.746603
345 1.13311
350 1.09244
355 1.21679
360 1.37376
365 1.3358
370 1.24726
375 1.22679
380 1.0642
385 1.21218
390 1.49618
395 1.43039
400 1.4582
405 1.24113
410 1.72134
415 1.84605
420 1.54713
425 1.4814
430 1.8265
435 1.30783
440 1.50663
445 1.30046
450 1.46251
455 1.04891
460 1.34269
465 1.30998
470 1.36362
475 1.42277
480 1.31957
485 1.53482
490 1.40071
495 1.60945
500 1.15055
505 1.1235
510 1.28714
515 1.0461
520 1.03688
525 0.815845
530 1.00882
535 0.73595
540 0.984982
545 0.961923
550 1.34557
555 1.32072
560 1.22014
565 1.6485
570 2.14293
575 1.38602
580 1.10608
585 0.882867
590 1.04031
595 0.933929
600 1.94865
Ex : 293
200 0.62664
205 1.1864
210 0.866657
215 0.846931
220 0.733138
225 0.881057
230 0.830634
235 0.758164
240 0.593265
245 0.75602
250 0.67291
255 0.839845
260 1.0584
265 0.548454
270 0.772293
275 0.529399
280 0.759228
285 0.94844
290 1.22522
295 0.826302
300 0.765561
305 1.01632
310 1.08217
315 0.912516
320 1.11875
325 0.721138
330 0.973294
335 0.805018
340 0.776256
345 0.925607
350 1.13742
355 1.00614
360 0.913975
365 0.850859
370 1.02553
375 1.18151
380 1.35004
385 1.38623
390 1.17512
395 1.40407
400 1.56608
405 1.31081
410 1.43343
415 1.32757
420 1.22647
425 1.33199
430 1.38108
435 1.14057
440 1.23279
445 1.46641
450 1.56196
455 1.37501
460 1.27346
465 1.17494
470 1.02673
475 1.0517
480 1.14793
485 1.26172
490 1.27638
495 0.769341
500 1.14281
505 1.09206
510 1.09324
515 0.903386
520 1.21124
525 0.975281
530 0.857474
535 0.927796
540 0.895892
545 0.939731
550 0.865507
555 0.953712
560 0.936847
565 1.01376
570 0.95077
575 1.35305
580 2.05753
585 1.64904
590 1.24125
595 0.988844
600 0.112527
Ex : 298
200 0.699038
205 0.678366
210 0.64215
215 0.772024
220 0.600752
225 0.735659
230 0.687113
235 0.597922
240 0.630804
245 0.519992
250 0.659351
255 0.661618
260 0.659522
265 0.896314
270 0.664937
275 0.726627
280 0.590326
285 1.07471
290 0.926174
295 0.999129
300 0.814453
305 0.919411
310 0.72923
315 0.923458
320 0.612889
325 0.944949
330 0.888586
335 0.740055
340 0.742913
345 0.830817
350 0.833637
355 1.01031
360 0.610443
365 1.09989
370 1.18964
375 1.14908
380 1.19757
385 1.37926
390 1.22503
395 1.28854
400 1.50184
405 1.46959
410 1.21503
415 1.1852
420 1.70729
425 1.30766
430 1.28917
435 1.18403
440 1.20157
445 1.00194
450 1.29721
455 0.929911
460 1.26555
465 1.1489
470 1.15274
475 0.718683
480 0.882867
485 1.02861
490 1.02088
495 1.13594
500 0.868631
505 0.868569
510 0.888281
515 0.769271
520 0.776022
525 0.943017
530 1.16292
535 0.929285
540 0.868066
545 0.715615
550 0.712117
555 0.983724
560 0.722615
565 0.646714
570 0.593584
575 0.876485
580 0.708981
585 1.31437
590 1.74782
595 1.43367
600 0.163146
Ex : 303
200 0.516858
205 0.609838
210 0.471537
215 0.636002
220 0.557285
225 0.687514
230 0.551939
235 0.576929
240 0.692237
245 0.677477
250 0.780409
255 0.657948
260 0.807576
265 0.614224
270 0.572341
275 0.668189
280 0.58156
285 0.560631
290 0.540665
295 0.632429
300 1.25528
305 1.01884
310 0.63085
315 0.669229
320 0.527207
325 0.756765
330 0.744254
335 0.785428
340 0.753688
345 0.873504
350 0.748144
355 0.719859
360 0.912882
365 0.785186
370 0.782338
375 1.06184
380 1.0741
385 0.968772
390 1.25772
395 1.09523
400 1.27608
405 1.02936
410 1.32497
415 1.19951
420 1.1143
425 1.19499
430 1.0785
435 1.34852
440 1.15645
445 1.31033
450 1.29416
455 1.35833
460 1.05071
465 1.37551
470 1.15888
475 1.21668
480 0.820491
485 0.840189
490 0.794381
495 0.860681
500 0.976218
505 1.03871
510 0.987251
515 0.99306
520 0.760525
525 0.946754
530 0.670831
535 0.855569
540 0.664091
545 0.79405
550 0.743605
555 0.676452
560 0.628966
565 0.598571
570 0.506408
575 0.686811
580 0.846796
585 0.662169
590 0.988173
595 1.31719
600 1.4792
Ex : 308
200 0.573401
205 0.539843
210 0.452501
215 0.429957
220 0.605719
225 0.616509
230 0.477707
235 0.415574
240 0.441961
245 0.462263
250 0.523925
255 0.45299
260 0.61246
265 0.41867
270 0.569612
275 0.603288
280 0.647502
285 0.51317
290 0.569599
295 0.672199
300 1.09361
305 1.02662
310 0.540321
315 0.434546
320 0.451368
325 0.502397
330 0.910328
335 0.787148
340 0.547653
345 0.611809
350 0.722487
355 0.765569
360 0.745329
365 0.810356
370 1.10459
375 1.10837
380 1.31006
385 1.12234
390 1.02724
395 1.35722
400 1.22059
405 1.29057
410 1.09557
415 1.27918
420 1.39588
425 1.17633
430 1.19894
435 1.30439
440 1.2135
445 1.09547
450 1.18033
455 1.02739
460 0.978866
465 0.8858
470 0.890946
475 1.05806
480 0.858257
485 1.10923
490 0.76668
495 0.671041
500 0.798709
505 0.667736
510 0.541318
515 0.65501
520 0.708577
525 0.621567
530 0.533086
535 0.528399
540 0.593602
545 0.57974
550 0.611489
555 0.453855
560 0.49505
565 0.615534
570 0.405674
575 0.520636
580 0.565049
585 0.537961
590 0.341343
595 0.614056
600 0.0698772
Ex : 313
200 0.509723
205 0.522395
210 0.485035
215 0.369731
220 0.542937
225 0.427813
230 0.395713
235 0.467358
240 0.463269
245 0.457779
250 0.304839
255 0.570044
260 0.337466
265 0.429265
270 0.648091
275 0.34343
280 0.511196
285 0.461474
290 0.396855
295 0.648618
300 0.401183
305 0.858028
310 0.98173
315 0.432321
320 0.734552
325 0.596067
330 0.679124
335 0.730926
340 0.793513
345 0.806556
350 0.797894
355 0.693627
360 1.16924
365 0.868444
370 1.13049
375 1.25895
380 1.30641
385 1.27147
390 1.66049
395 1.54793
400 1.88969
405 1.94247
410 1.49887
415 1.7494
420 1.65849
425 1.72354
430 1.71606
435 1.73841
440 1.5941
445 1.60554
450 1.43234
455 1.41004
460 1.26472
465 1.12841
470 1.17247
475 1.27336
480 0.980324
485 1.00304
490 1.00907
495 0.886759
500 0.98263
505 0.816448
510 0.723198
515 0.781416
520 0.751731
525 0.986409
530 0.850223
535 0.655767
540 0.558223
545 0.61664
550 0.672716
555 0.437677
560 0.527844
565 0.679454
570 0.570211
575 0.560027
580 0.580196
585 0.700307
590 0.562884
595 0.577203
600 1.25823
Ex : 318
200 0.344891
205 0.303838
210 0.383215
215 0.374373
220 0.420618
225 0.406966
230 0.334925
235 0.347232
240 0.322136
245 0.366923
250 0.56576
255 0.709405
260 0.309704
265 0.40011
270 0.604804
275 0.407695
280 0.446577
285 0.420637
290 0.418453
295 0.57864
300 0.396439
305 0.372392
310 0.744278
315 2.16538
320 1.10756
325 0.854915
330 1.40176
335 1.42179
340 1.63381
345 2.27826
350 3.27071
355 3.54021
360 4.19033
365 5.37991
370 6.30618
375 7.5521
380 8.42514
385 8.76446
390 9.82265
395 10.5137
400 10.9398
405 11.4188
410 11.624
415 11.4245
420 11.6495
425 11.3207
430 11.0202
435 10.182
440 9.89749
445 9.85116
450 9.56679
455 8.6668
460 7.67416
465 7.34147
470 6.99026
475 6.21817
480 5.34144
485 5.00882
490 4.71686
495 4.29279
500 3.62554
505 3.16856
510 3.11287
515 2.57198
520 2.3213
525 2.00287
530 1.59199
535 1.49118
540 1.34554
545 1.16433
550 1.23004
555 1.13515
560 1.02716
565 0.72457
570 0.677078
575 0.676658
580 0.807342
585 0.67898
590 0.54084
595 0.613984
600 0.39124
Ex : 323
200 0.503049
205 0.361421
210 0.352492
215 0.453549
220 0.375731
225 0.525607
230 0.423529
235 0.324771
240 0.493956
245 0.43775
250 0.394601
255 0.423547
260 0.502239
265 0.476063
270 0.302995
275 0.472537
280 0.486062
285 0.517996
290 0.309331
295 0.456174
300 0.387683
305 0.443603
310 0.477727
315 6.99796
320 28.4089
325 12.5596
330 3.35175
335 4.05578
340 5.02132
345 6.77171
350 9.64997
355 12.9371
360 15.2225
365 18.7173
370 20.855
375 25.2792
380 27.5133
385 31.5277
390 33.9282
395 36.6284
400 38.4979
405 39.2937
410 40.1391
415 40.2657
420 40.0339
425 36.9589
430 37.4675
435 35.472
440 34.5375
445 33.0023
450 32.4963
455 28.6959
460 26.6194
465 25.2066
470 22.9051
475 21.0696
480 18.7499
485 16.8506
490 15.5614
495 13.4707
500 12.0267
505 10.2285
510 9.10865
515 8.06816
520 7.19386
525 6.0057
530 5.47806
535 4.69431
540 4.09892
545 3.13964
550 3.08657
555 2.70245
560 2.17562
565 2.16551
570 1.52162
575 1.37685
580 1.21745
585 1.1281
590 0.895377
595 0.735517
600 0.63106
Ex : 328
200 0.431492
205 0.418385
210 0.363154
215 0.366567
220 0.281223
225 0.461933
230 0.443583
235 0.422179
240 0.343128
245 0.414743
250 0.455502
255 0.547594
260 0.515751
265 0.386107
270 0.365643
275 0.324967
280 0.314024
285 0.355548
290 0.585482
295 0.597105
300 0.364235
305 0.474193
310 0.573053
315 1.84104
320 61.8758
325 147.914
330 44.9006
335 9.18312
340 6.51695
345 7.77736
350 9.79544
355 13.973
360 18.7434
365 19.8101
370 22.9053
375 25.8307
380 29.3
385 33.4437
390 36.4507
395 38.7354
400 40.2096
405 40.731
410 42.1895
415 42.1825
420 40.1704
425 38.8125
430 37.215
435 35.7529
440 35.6489
445 33.5012
450 31.4812
455 29.7705
460 27.294
465 25.2175
470 23.3694
475 21.7725
480 19.9298
485 18.043
490 16.0225
495 14.1718
500 12.6774
505 11.3773
510 9.92987
515 9.06282
520 7.44576
525 6.54761
530 5.57422
535 5.49733
540 4.75324
545 4.00467
550 3.8377
555 3.31496
560 2.67795
565 2.37559
570 1.96361
575 1.69631
580 1.56019
585 1.04541
590 0.987602
595 1.08444
600 0.860601
Ex : 333
200 0.402124
205 0.369532
210 0.464802
215 0.424393
220 0.339222
225 0.345642
230 0.550757
235 0.348126
240 0.231887
245 0.35511
250 0.259734
255 0.305223
260 0.269968
265 0.341166
270 0.254196
275 0.270885
280 0.375202
285 0.325027
290 0.3681
295 0.533227
300 0.415436
305 0.509873
310 0.48689
315 0.410505
320 8.90566
325 170.576
330 288.858
335 75.2845
340 12.8267
345 6.63069
350 6.3789
355 7.56294
360 10.3413
365 15.2281
370 16.0899
375 16.5213
380 17.0494
385 20.1496
390 23.3519
395 24.162
400 25.0486
405 25.2578
410 25.8579
415 26.3389
420 26.1825
425 24.812
430 23.8425
435 22.5168
440 22.2184
445 20.7191
450 19.472
455 18.2505
460 16.9508
465 15.8788
470 14.8751
475 13.2453
480 12.3243
485 11.0604
490 10.2192
495 9.21858
500 8.49376
505 7.61598
510 6.53677
515 5.80348
520 5.19366
525 4.75888
530 4.42497
535 3.76555
540 3.34966
545 2.85803
550 2.71437
555 2.34447
560 1.97952
565 1.86985
570 1.65269
575 1.41358
580 1.25838
585 1.02441
590 0.852384
595 0.820169
600 0.743691
Ex : 338
200 0.377312
205 0.286752
210 0.34427
215 0.252765
220 0.243653
225 0.263996
230 0.352355
235 0.298119
240 0.343178
245 0.257702
250 0.288733
255 0.255072
260 0.372542
265 0.299087
270 0.300334
275 0.268028
280 0.350519
285 0.376061
290 0.317845
295 0.325434
300 0.301438
305 0.399394
310 0.339707
315 0.333592
320 0.631202
325 16.3368
330 245.121
335 361.657
340 90.5086
345 13.7472
350 5.65735
355 4.82676
360 4.81075
365 6.59799
370 11.2435
375 11.4947
380 10.9628
385 12.0477
390 14.7905
395 16.1027
400 15.7027
405 16.0835
410 17.513
415 18.4177
420 18.0209
425 16.7599
430 15.6413
435 15.5921
440 15.2292
445 14.2517
450 13.1257
455 11.984
460 11.4809
465 10.7383
470 10.045
475 9.98312
480 8.94097
485 8.1908
490 7.52504
495 6.94007
500 5.93023
505 5.54546
510 5.14521
515 4.78661
520 4.27454
525 3.74786
530 3.59544
535 3.0303
540 2.69086
545 2.40268
550 2.18353
555 2.0914
560 1.80862
565 1.49771
570 1.35806
575 1.20746
580 1.25507
585 1.01884
590 0.844907
595 0.773234
600 0.843871
Ex : 343
200 0.259479
205 0.327123
210 0.445147
215 0.266297
220 0.284238
225 0.268016
230 0.272113
235 0.341015
240 0.272927
245 0.342067
250 0.321937
255 0.336139
260 0.225345
265 0.338261
270 0.349164
275 0.428931
280 0.294525
285 0.314004
290 0.318929
295 0.329746
300 0.326162
305 0.429883
310 0.348995
315 0.374927
320 0.498988
325 0.738336
330 18.334
335 284.71
340 409.598
345 100.283
350 14.4161
355 4.87669
360 3.68594
365 3.42378
370 4.26575
375 8.5311
380 10.7884
385 11.3605
390 12.6392
395 12.7766
400 12.5818
405 13.178
410 14.949
415 16.0159
420 15.6499
425 14.6158
430 14.0616
435 13.2148
440 13.1144
445 13.0578
450 12.0403
455 11.1831
460 9.9591
465 10.0548
470 9.21407
475 8.8894
480 7.7614
485 7.94611
490 7.14182
495 6.6193
500 5.73536
505 5.56229
510 4.89233
515 4.71206
520 4.29367
525 3.46929
530 3.23162
535 3.14075
540 2.74776
545 2.56275
550 2.23415
555 2.18955
560 1.89915
565 1.77802
570 1.41682
575 1.31004
580 1.17507
585 0.792611
590 0.883235
595 0.81636
600 1.37972
Ex : 348
200 0.210193
205 0.20394
210 0.297389
215 0.327407
220 0.262388
225 0.302729
230 0.245191
235 0.292176
240 0.315204
245 0.266363
250 0.352818
255 0.263257
260 0.326633
265 0.312013
270 0.433038
275 0.276787
280 0.362269
285 0.246934
290 0.278546
295 0.327011
300 0.359277
305 0.346126
310 0.494833
315 0.39607
320 0.438852
325 0.57814
330 0.792097
335 18.5904
340 286.499
345 423.933
350 108.947
355 14.93
360 4.62914
365 3.63192
370 2.94343
375 3.54739
380 7.83095
385 13.1943
390 15.0311
395 15.5562
400 14.4922
405 14.823
410 16.9952
415 19.0246
420 18.3301
425 16.2021
430 15.7087
435 15.0582
440 15.5945
445 14.3947
450 13.2794
455 12.2209
460 11.8314
465 10.4823
470 10.1376
475 9.4643
480 8.7288
485 8.0853
490 7.35987
495 7.15074
500 6.24041
505 5.91081
510 5.47427
515 4.9889
520 4.20002
525 4.20992
530 3.88031
535 3.61389
540 3.23423
545 2.89733
550 2.63239
555 2.38187
560 2.0313
565 1.74158
570 1.7645
575 1.37401
580 1.02521
585 1.14383
590 0.832619
595 0.729007
600 0.482297
Ex : 353
200 0.255362
205 0.281419
210 0.232316
215 0.201394
220 0.271769
225 0.225557
230 0.259752
235 0.318351
240 0.259917
245 0.282464
250 0.237871
255 0.301916
260 0.212949
265 0.224268
270 0.233293
275 0.285387
280 0.24626
285 0.236506
290 0.229235
295 0.24443
300 0.220867
305 0.325349
310 0.334717
315 0.273034
320 0.463768
325 0.373766
330 0.442652
335 0.957009
340 19.8633
345 293.257
350 415.992
355 104.085
360 14.1844
365 4.06064
370 3.27775
375 2.77855
380 4.27633
385 10.011
390 17.9565
395 19.2393
400 16.5363
405 15.6094
410 18.4318
415 20.985
420 20.0698
425 18.0921
430 15.7834
435 15.8212
440 16.4711
445 15.9158
450 14.8495
455 13.3016
460 12.3425
465 11.2875
470 10.9691
475 10.3802
480 9.81346
485 8.73591
490 8.24702
495 7.75322
500 7.02294
505 6.55788
510 5.95077
515 5.58755
520 4.79086
525 4.27908
530 4.20529
535 3.58099
540 3.19607
545 3.10262
550 2.72755
555 2.42906
560 2.03279
565 1.79539
570 1.69142
575 1.27293
580 1.27515
585 0.992104
590 0.925516
595 0.843356
600 1.04277
Ex : 358
200 0.368602
205 0.339906
210 0.262478
215 0.217644
220 0.23566
225 0.182718
230 0.241146
235 0.248766
240 0.222994
245 0.237353
250 0.243382
255 0.232274
260 0.26273
265 0.285821
270 0.259385
275 0.224819
280 0.288372
285 0.253196
290 0.276572
295 0.259995
300 0.27801
305 0.245036
310 0.229481
315 0.275438
320 0.288713
325 0.379418
330 0.446581
335 0.617021
340 0.78692
345 18.5387
350 282.711
355 433.311
360 108.381
365 14.4871
370 3.85668
375 3.19471
380 4.02061
385 7.10134
390 12.7649
395 18.0569
400 17.262
405 16.1662
410 17.5149
415 18.7321
420 18.7094
425 17.0041
430 15.9008
435 15.4129
440 15.1779
445 14.9818
450 13.8648
455 12.6264
460 12.2312
465 11.2748
470 11.166
475 10.3216
480 10.2926
485 9.06773
490 8.62263
495 7.90064
500 7.5316
505 6.8104
510 6.39233
515 6.10474
520 5.25814
525 4.84902
530 4.57165
535 4.01685
540 3.32268
545 3.30712
550 2.87131
555 2.62074
560 2.48497
565 2.16828
570 1.82648
575 1.54627
580 1.21093
585 1.02548
590 0.841987
595 0.787156
600 0.856666
Ex : 363
200 0.168171
205 0.267533
210 0.289022
215 0.224906
220 0.2635
225 0.20644
230 0.255558
235 0.181102
240 0.161625
245 0.3451
250 0.260346
255 0.200536
260 0.276994
265 0.247376
270 0.279943
275 0.215865
280 0.281567
285 0.282285
290 0.242083
295 0.197319
300 0.259607
305 0.239218
310 0.233166
315 0.272861
320 0.232721
325 0.413887
330 0.410913
335 0.414737
340 0.53181
345 0.868796
350 16.964
355 277.858
360 435.418
365 112.944
370 14.9318
375 4.25056
380 5.14957
385 8.68797
390 12.304
395 14.7221
400 17.657
405 19.6696
410 20.9326
415 21.6563
420 20.3182
425 18.0495
430 16.6047
435 16.8796
440 17.1915
445 16.6393
450 15.0658
455 13.7957
460 12.5292
465 12.6134
470 11.8081
475 11.454
480 10.6884
485 10.2165
490 9.13706
495 8.6024
500 8.13532
505 7.72971
510 7.17054
515 6.23742
520 5.536
525 4.93799
530 4.86845
535 4.23638
540 3.63718
545 3.44241
550 3.05256
555 2.73126
560 2.55374
565 2.3126
570 1.81796
575 1.56748
580 1.53496
585 1.09785
590 0.965876
595 0.824235
600 1.21157
Ex : 368
200 0.188119
205 0.243775
210 0.219318
215 0.210263
220 0.183803
225 0.219471
230 0.244703
235 0.218522
240 0.263015
245 0.193751
250 0.285699
255 0.217088
260 0.199298
265 0.223052
270 0.209082
275 0.219018
280 0.241849
285 0.239825
290 0.22301
295 0.210777
300 0.197287
305 0.280624
310 0.237797
315 0.249254
320 0.212243
325 0.329241
330 0.276408
335 0.354768
340 0.393282
345 0.479393
350 0.67801
355 14.006
360 267.801
365 441.75
370 117.1
375 15.784
380 6.12967
385 9.65023
390 15.7308
395 17.9296
400 17.433
405 20.791
410 26.3392
415 27.9443
420 25.9705
425 22.3034
430 19.7363
435 19.7569
440 20.0621
445 20.0399
450 17.4897
455 15.9149
460 14.6606
465 14.0128
470 13.4277
475 12.6988
480 12.5004
485 10.9815
490 10.5117
495 9.63159
500 8.94831
505 8.25565
510 7.8332
515 6.95528
520 6.54345
525 5.61894
530 5.33534
535 4.67502
540 4.36339
545 3.84474
550 3.36755
555 2.9867
560 2.63282
565 2.43313
570 2.17337
575 1.76468
580 1.39669
585 1.08011
590 0.90768
595 0.719119
600 0.683783
Ex : 373
200 0.156024
205 0.218199
210 0.192881
215 0.155011
220 0.169389
225 0.140334
230 0.230872
235 0.198076
240 0.142442
245 0.12951
250 0.196901
255 0.194553
260 0.311649
265 0.199807
270 0.151546
275 0.216157
280 0.15927
285 0.135519
290 0.186758
295 0.203736
300 0.238383
305 0.240935
310 0.200876
315 0.224588
320 0.214052
325 0.200106
330 0.289054
335 0.242262
340 0.39407
345 0.402324
350 0.54813
355 0.69842
360 16.4632
365 275.376
370 439.725
375 117.141
380 16.6353
385 9.06992
390 14.6933
395 18.6776
400 16.9887
405 16.8929
410 21.9998
415 28.6967
420 27.2911
425 23.2921
430 19.4447
435 18.398
440 19.2398
445 18.2099
450 17.1299
455 15.4693
460 13.7256
465 13.2974
470 13.2875
475 12.8147
480 11.9736
485 11.2669
490 10.5848
495 9.93427
500 9.08094
505 8.57704
510 8.03766
515 7.25021
520 6.7358
525 6.25342
530 5.64631
535 5.19294
540 4.40318
545 4.13625
550 3.67916
555 3.15954
560 2.74662
565 2.36412
570 2.27333
575 1.82328
580 1.38678
585 1.11701
590 1.0408
595 0.780468
600 0.490924
Ex : 378
200 0.22841
205 0.16734
210 0.118799
215 0.21863
220 0.183762
225 0.207728
230 0.15742
235 0.206561
240 0.207583
245 0.237696
250 0.177658
255 0.159943
260 0.233983
265 0.182847
270 0.212759
275 0.165351
280 0.187536
285 0.245946
290 0.232877
295 0.212047
300 0.240206
305 0.200923
310 0.210413
315 0.228677
320 0.218963
325 0.21559
330 0.244103
335 0.325731
340 0.317577
345 0.312533
350 0.402966
355 0.48372
360 0.731443
365 15.5205
370 277.821
375 454.212
380 123.899
385 20.1672
390 12.405
395 13.6997
400 12.9221
405 12.1229
410 14.7922
415 19.1644
420 21.4913
425 19.4979
430 16.0932
435 15.6762
440 15.2093
445 15.1006
450 14.0085
455 12.6764
460 12.2696
465 11.6517
470 11.6546
475 11.5284
480 11.0464
485 10.4152
490 10.2136
495 9.91577
500 8.96281
505 8.39575
510 7.61427
515 7.35228
520 7.00491
525 6.13716
530 5.71554
535 5.15569
540 4.74214
545 4.29426
550 3.88463
555 3.47207
560 3.19884
565 2.61636
570 2.20524
575 1.80025
580 1.48361
585 1.16429
590 1.12131
595 0.830602
600 0.579909
Ex : 383
200 0.237125
205 0.144741
210 0.156051
215 0.207382
220 0.20922
225 0.176322
230 0.248345
235 0.170046
240 0.193284
245 0.188813
250 0.174848
255 0.169857
260 0.215011
265 0.169736
270 0.236246
275 0.174486
280 0.1496
285 0.21668
290 0.227008
295 0.19336
300 0.256787
305 0.208798
310 0.176052
315 0.200833
320 0.23398
325 0.29205
330 0.221363
335 0.269438
340 0.263748
345 0.288479
350 0.289074
355 0.404706
360 0.488562
365 0.732134
370 15.1337
375 278.238
380 478.779
385 133.663
390 25.6925
395 13.3203
400 11.4796
405 12.8617
410 15.7302
415 17.5875
420 17.8679
425 18.1249
430 17.6287
435 16.7411
440 16.6192
445 15.2927
450 14.1325
455 13.0665
460 12.4514
465 12.043
470 12.1906
475 11.8328
480 11.1449
485 10.7984
490 10.1719
495 9.18622
500 9.16255
505 8.60543
510 8.26568
515 7.27289
520 6.7974
525 6.13404
530 5.89112
535 5.07689
540 4.57013
545 4.22095
550 3.86351
555 3.51167
560 3.0337
565 2.50472
570 2.38787
575 1.80476
580 1.45806
585 1.28611
590 0.92716
595 0.816682
600 0.750955
Ex : 388
200 0.126855
205 0.169577
210 0.198775
215 0.155388
220 0.125222
225 0.215593
230 0.134043
235 0.260082
240 0.250716
245 0.171185
250 0.186788
255 0.153754
260 0.192836
265 0.199577
270 0.23082
275 0.11927
280 0.196846
285 0.149761
290 0.175389
295 0.198427
300 0.198915
305 0.228718
310 0.212652
315 0.16437
320 0.176926
325 0.287905
330 0.324101
335 0.235204
340 0.2271
345 0.278065
350 0.27541
355 0.326687
360 0.429281
365 0.511599
370 0.839513
375 16.144
380 290.409
385 488.125
390 141.104
395 29.9377
400 15.7823
405 15.5003
410 19.244
415 21.494
420 21.0862
425 19.2538
430 19.287
435 20.9512
440 20.0288
445 19.0428
450 16.7497
455 14.5123
460 13.7932
465 13.5454
470 13.1304
475 12.6752
480 12.4769
485 11.5753
490 10.6714
495 9.9846
500 9.57089
505 9.07074
510 8.59401
515 7.70487
520 7.13054
525 6.58428
530 5.77185
535 5.19085
540 4.82169
545 4.25235
550 3.95434
555 3.39966
560 3.15812
565 2.7155
570 2.28564
575 1.94376
580 1.58031
585 1.26906
590 0.98303
595 0.834502
600 1.69487
Ex : 393
200 0.173996
205 0.222118
210 0.189858
215 0.177093
220 0.207545
225 0.169957
230 0.241341
235 0.135611
240 0.179109
245 0.195976
250 0.155956
255 0.201201
260 0.206978
265 0.150474
270 0.179107
275 0.212341
280 0.177836
285 0.168809
290 0.203461
295 0.204531
300 0.188112
305 0.308407
310 0.242541
315 0.158359
320 0.175047
325 0.154135
330 0.181141
335 0.217712
340 0.204761
345 0.288696
350 0.278904
355 0.268322
360 0.352076
365 0.38665
370 0.460922
375 0.893613
380 16.0011
385 298.584
390 513.722
395 150.946
400 31.2025
405 16.2848
410 17.5021
415 21.8199
420 22.1691
425 19.3084
430 16.4276
435 17.6158
440 20.627
445 19.6745
450 17.2339
455 15.0319
460 13.1434
465 12.6141
470 12.6955
475 12.6105
480 12.0399
485 11.3716
490 10.7338
495 10.4176
500 9.7086
505 9.08769
510 8.68519
515 7.73315
520 7.07392
525 6.66046
530 5.97142
535 5.39353
540 4.8807
545 4.49168
550 4.14437
555 3.60291
560 3.29803
565 2.81682
570 2.22402
575 1.91568
580 1.519
585 1.24826
590 1.01957
595 0.866779
600 0.75769
Ex : 398
200 0.177396
205 0.165231
210 0.145047
215 0.154705
220 0.172859
225 0.222631
230 0.172433
235 0.185685
240 0.17361
245 0.200939
250 0.183934
255 0.215808
260 0.166202
265 0.131059
270 0.168401
275 0.178378
280 0.151007
285 0.124829
290 0.165015
295 0.155887
300 0.15661
305 0.187666
310 0.187469
315 0.166506
320 0.143265
325 0.192472
330 0.212588
335 0.203409
340 0.31872
345 0.25688
350 0.228576
355 0.242624
360 0.278576
365 0.326883
370 0.436938
375 0.470321
380 0.988128
385 17.0483
390 308.528
395 530.824
400 146.645
405 24.7416
410 12.4803
415 13.9987
420 14.7678
425 12.43
430 10.5433
435 10.5077
440 12.0336
445 15.111
450 13.9199
455 12.1968
460 11.0151
465 10.3921
470 10.4304
475 10.3918
480 10.2326
485 10.1202
490 9.41261
495 9.35842
500 8.95064
505 8.57608
510 8.09136
515 7.78198
520 7.05377
525 6.5081
530 5.93625
535 5.4779
540 4.95293
545 4.5257
550 3.98667
555 3.6834
560 3.24631
565 2.85855
570 2.35287
575 1.93632
580 1.5541
585 1.27577
590 0.975359
595 0.787033
600 0.560357
Ex : 403
200 0.13934
205 0.164125
210 0.184959
215 0.155386
220 0.155291
225 0.170177
230 0.124162
235 0.142812
240 0.137941
245 0.154821
250 0.150741
255 0.153533
260 0.134743
265 0.149416
270 0.171048
275 0.148094
280 0.177066
285 0.224618
290 0.174982
295 0.209887
300 0.113091
305 0.176552
310 0.142503
315 0.181582
320 0.233698
325 0.229815
330 0.161765
335 0.18892
340 0.200096
345 0.299484
350 0.223195
355 0.271435
360 0.267412
365 0.293641
370 0.319197
375 0.385885
380 0.542656
385 1.10781
390 18.3175
395 320.533
400 533.695
405 145.559
410 21.6875
415 8.72435
420 7.98962
425 7.6361
430 6.88976
435 6.823
440 7.51751
445 8.61022
450 10.5409
455 10.7618
460 9.55357
465 9.63542
470 9.48701
475 9.33814
480 9.54205
485 9.65015
490 9.45065
495 8.75971
500 8.6334
505 8.62368
510 8.29153
515 7.80234
520 7.08216
525 6.55672
530 6.07012
535 5.5207
540 5.04484
545 4.48352
550 4.13789
555 3.75428
560 3.33117
565 2.93906
570 2.47519
575 1.96115
580 1.60276
585 1.35678
590 0.963915
595 0.830405
600 0.922236
Ex : 408
200 0.191256
205 0.171142
210 0.152887
215 0.180524
220 0.167841
225 0.169053
230 0.141406
235 0.154856
240 0.164137
245 0.176113
250 0.146369
255 0.120305
260 0.192589
265 0.151479
270 0.140896
275 0.172324
280 0.125778
285 0.180518
290 0.182749
295 0.11229
300 0.192805
305 0.186001
310 0.141581
315 0.187383
320 0.235136
325 0.226423
330 0.234051
335 0.260491
340 0.18512
345 0.241862
350 0.218506
355 0.322216
360 0.247146
365 0.246359
370 0.29277
375 0.344235
380 0.383628
385 0.524297
390 1.05206
395 17.5297
400 326.67
405 538.664
410 143.526
415 22.4437
420 8.24444
425 6.41889
430 6.41744
435 6.82158
440 7.50056
445 7.91387
450 8.1088
455 9.90196
460 11.4567
465 10.7634
470 10.5394
475 9.96238
480 9.94359
485 9.99285
490 9.48976
495 8.99095
500 9.04208
505 8.99908
510 8.27488
515 7.66451
520 7.06587
525 6.56315
530 5.99748
535 5.52908
540 5.00657
545 4.65696
550 4.28281
555 3.67791
560 3.26431
565 2.81436
570 2.41268
575 1.92906
580 1.66606
585 1.26111
590 1.06367
595 0.807627
600 0.837538
Ex : 413
200 0.214005
205 0.207373
210 0.156514
215 0.185969
220 0.181031
225 0.146576
230 0.145564
235 0.162871
240 0.216655
245 0.150169
250 0.136879
255 0.175328
260 0.167257
265 0.156978
270 0.214623
275 0.241265
280 0.138655
285 0.187462
290 0.170711
295 0.139399
300 0.145995
305 0.168063
310 0.167291
315 0.151807
320 0.148287
325 0.217795
330 0.22188
335 0.186116
340 0.298976
345 0.181723
350 0.255677
355 0.205864
360 0.219698
365 0.227531
370 0.305319
375 0.273265
380 0.335858
385 0.389117
390 0.585682
395 0.917898
400 20.1037
405 340.903
410 550.758
415 143.138
420 21.7978
425 7.56742
430 6.01154
435 6.76755
440 7.1443
445 7.29402
450 7.35813
455 7.43763
460 8.76848
465 11.2681
470 11.0796
475 10.1687
480 10.3113
485 9.56446
490 9.18465
495 9.31244
500 8.96372
505 8.58131
510 7.79348
515 7.668
520 6.93541
525 6.62556
530 6.03793
535 5.4384
540 5.17845
545 4.66691
550 4.20257
555 3.66309
560 3.43183
565 2.85306
570 2.43007
575 1.92301
580 1.57654
585 1.30444
590 1.08523
595 0.904418
600 0.860818
Ex : 418
200 0.154377
205 0.183536
210 0.226214
215 0.161727
220 0.13475
225 0.209302
230 0.175867
235 0.114219
240 0.194375
245 0.173287
250 0.138965
255 0.134351
260 0.148658
265 0.142333
270 0.166818
275 0.172785
280 0.230471
285 0.168627
290 0.166866
295 0.196924
300 0.141269
305 0.18973
310 0.213888
315 0.212165
320 0.216597
325 0.222159
330 0.164387
335 0.207602
340 0.14506
345 0.201899
350 0.210112
355 0.193023
360 0.257598
365 0.203065
370 0.212021
375 0.205566
380 0.290807
385 0.335506
390 0.426659
395 0.528467
400 0.92998
405 19.2403
410 343.186
415 566.631
420 153.069
425 21.1372
430 5.88308
435 4.36836
440 4.71313
445 5.33093
450 5.07039
455 5.13028
460 5.84659
465 7.15898
470 9.66476
475 10.2258
480 9.38585
485 8.69847
490 8.70255
495 8.70154
500 8.19749
505 8.14239
510 7.34513
515 7.34429
520 6.58671
525 6.354
530 5.67132
535 5.09876
540 4.68635
545 4.39085
550 4.18525
555 3.62327
560 3.39018
565 2.90852
570 2.30581
575 2.06107
580 1.61443
585 1.26783
590 1.04219
595 0.946299
600 0.577373
Ex : 423
200 0.193248
205 0.215666
210 0.193936
215 0.177446
220 0.159935
225 0.136864
230 0.156497
235 0.141992
240 0.131392
245 0.165638
250 0.198456
255 0.190329
260 0.1783
265 0.123699
270 0.134684
275 0.187248
280 0.139431
285 0.186461
290 0.174674
295 0.124713
300 0.185465
305 0.158697
310 0.206027
315 0.134308
320 0.200775
325 0.21947
330 0.227264
335 0.195538
340 0.255119
345 0.178343
350 0.166942
355 0.248129
360 0.342573
365 0.249353
370 0.219601
375 0.258134
380 0.290957
385 0.21081
390 0.277431
395 0.360889
400 0.553896
405 1.0161
410 19.485
415 362.65
420 567.442
425 143.162
430 18.9214
435 4.72206
440 3.1374
445 3.30987
450 3.615
455 3.71871
460 4.09141
465 5.00118
470 5.95735
475 8.06491
480 9.23552
485 8.34468
490 8.60915
495 8.14681
500 7.77251
505 7.22028
510 6.68954
515 6.69441
520 6.22982
525 5.91725
530 5.57305
535 5.22353
540 4.70489
545 4.34506
550 4.03269
555 3.47406
560 3.00579
565 2.78867
570 2.20336
575 1.92293
580 1.46385
585 1.23345
590 0.966309
595 0.797013
600 1.05002
Ex : 428
200 0.147545
205 0.167926
210 0.199868
215 0.165379
220 0.133737
225 0.16176
230 0.219334
235 0.14264
240 0.136058
245 0.186185
250 0.178239
255 0.164252
260 0.182603
265 0.219881
270 0.198835
275 0.14648
280 0.184196
285 0.162353
290 0.148247
295 0.214074
300 0.167519
305 0.188502
310 0.19958
315 0.183084
320 0.164572
325 0.211162
330 0.227041
335 0.2097
340 0.167002
345 0.194737
350 0.150004
355 0.166416
360 0.201132
365 0.240188
370 0.242401
375 0.217495
380 0.282636
385 0.276378
390 0.275755
395 0.39533
400 0.469014
405 0.595324
410 0.982095
415 22.2376
420 365.236
425 575.607
430 150.272
435 19.2015
440 4.06759
445 2.42866
450 2.7875
455 3.4235
460 3.61165
465 4.18646
470 4.56671
475 5.43302
480 7.31184
485 9.25282
490 8.53301
495 7.59495
500 7.29031
505 6.99835
510 6.50971
515 6.17274
520 5.92617
525 5.61625
530 5.01795
535 4.75826
540 4.37363
545 3.97527
550 3.51254
555 3.24971
560 3.01431
565 2.63416
570 2.32348
575 1.7732
580 1.3925
585 1.12283
590 0.941062
595 0.776291
600 0.180838
Ex : 433
200 0.185479
205 0.164273
210 0.180639
215 0.167595
220 0.145352
225 0.164518
230 0.165589
235 0.153997
240 0.234785
245 0.188799
250 0.133245
255 0.181646
260 0.180754
265 0.0912237
270 0.159978
275 0.121285
280 0.162595
285 0.153706
290 0.188475
295 0.174254
300 0.176057
305 0.180679
310 0.18586
315 0.210793
320 0.215744
325 0.18964
330 0.207811
335 0.221057
340 0.217214
345 0.197076
350 0.214389
355 0.241047
360 0.167753
365 0.180113
370 0.2713
375 0.288878
380 0.273217
385 0.274607
390 0.289404
395 0.401774
400 0.317497
405 0.488123
410 0.608982
415 1.01638
420 24.0882
425 403.924
430 609.603
435 151.665
440 19.4421
445 4.10328
450 2.53171
455 2.95517
460 3.49749
465 3.86708
470 4.16071
475 4.55689
480 5.3971
485 6.71036
490 8.57661
495 8.14539
500 7.09042
505 6.75953
510 6.10189
515 5.68012
520 5.41007
525 5.09208
530 4.62764
535 4.02576
540 3.81727
545 3.58097
550 3.2799
555 3.03041
560 2.64209
565 2.54675
570 2.04809
575 1.71829
580 1.41549
585 1.02279
590 0.916312
595 0.775925
600 0.193798
Ex : 438
200 0.129242
205 0.178939
210 0.165917
215 0.19525
220 0.196103
225 0.182295
230 0.191064
235 0.132904
240 0.129424
245 0.17662
250 0.178774
255 0.152718
260 0.21807
265 0.180605
270 0.172099
275 0.214328
280 0.140495
285 0.144642
290 0.151191
295 0.169767
300 0.151758
305 0.113429
310 0.162838
315 0.170459
320 0.187664
325 0.248258
330 0.221293
335 0.163676
340 0.183491
345 0.1939
350 0.274071
355 0.185086
360 0.208494
365 0.192098
370 0.242536
375 0.17455
380 0.220745
385 0.286326
390 0.303454
395 0.312196
400 0.28794
405 0.446685
410 0.456135
415 0.593812
420 0.979145
425 23.1896
430 400.287
435 644.638
440 161.843
445 20.5287
450 4.39683
455 2.62908
460 3.17467
465 3.89043
470 3.94585
475 4.17541
480 4.59145
485 5.06137
490 5.67478
495 7.64155
500 8.03292
505 6.39814
510 6.01272
515 5.58111
520 4.94149
525 4.51851
530 4.24551
535 3.97195
540 3.6495
545 3.41812
550 2.90497
555 2.69732
560 2.49971
565 2.19345
570 1.84888
575 1.59683
580 1.33597
585 0.950206
590 0.805925
595 0.709766
600 0.326936
Ex : 443
200 0.142157
205 0.202121
210 0.202151
215 0.173489
220 0.160025
225 0.197678
230 0.179966
235 0.161929
240 0.176499
245 0.142843
250 0.217466
255 0.180979
260 0.141539
265 0.132076
270 0.168385
275 0.134813
280 0.162934
285 0.156952
290 0.160275
295 0.149643
300 0.142053
305 0.214814
310 0.205951
315 0.207086
320 0.229013
325 0.193581
330 0.192097
335 0.176721
340 0.212246
345 0.250459
350 0.216409
355 0.197557
360 0.226021
365 0.200929
370 0.269512
375 0.225086
380 0.256854
385 0.282543
390 0.298762
395 0.273016
400 0.307736
405 0.269192
410 0.424318
415 0.46191
420 0.628232
425 0.95596
430 26.7903
435 432.639
440 658.542
445 163.735
450 20.8217
455 4.65268
460 2.96453
465 3.17271
470 3.50733
475 3.93548
480 3.87667
485 4.44279
490 4.6534
495 4.82445
500 6.1215
505 7.15956
510 5.94599
515 5.23365
520 4.8405
525 4.34065
530 3.77511
535 3.68797
540 3.26842
545 3.01171
550 2.70234
555 2.61875
560 2.41553
565 1.97906
570 1.82497
575 1.55518
580 1.19432
585 0.891867
590 0.830471
595 0.713618
600 0.569833
Ex : 448
200 0.248651
205 0.139883
210 0.220527
215 0.282118
220 0.163284
225 0.178556
230 0.215311
235 0.169378
240 0.19022
245 0.171108
250 0.201155
255 0.180162
260 0.119041
265 0.227715
270 0.146182
275 0.133766
280 0.202879
285 0.149266
290 0.170703
295 0.231973
300 0.211975
305 0.211888
310 0.236165
315 0.207815
320 0.177624
325 0.307131
330 0.216831
335 0.252302
340 0.193795
345 0.222902
350 0.178981
355 0.261148
360 0.199668
365 0.209386
370 0.261805
375 0.211617
380 0.341951
385 0.294057
390 0.223245
395 0.276339
400 0.308855
405 0.289262
410 0.389969
415 0.38958
420 0.494234
425 0.616199
430 0.963487
435 27.1047
440 460.695
445 693.819
450 171.224
455 21.8049
460 4.67879
465 2.9906
470 3.16262
475 3.85652
480 3.92582
485 3.73607
490 3.69814
495 3.94962
500 4.15702
505 4.92179
510 6.00821
515 5.64561
520 4.48967
525 4.24903
530 3.69082
535 3.09529
540 2.9519
545 2.75889
550 2.42279
555 2.19237
560 2.09052
565 1.79951
570 1.62644
575 1.35617
580 1.03945
585 0.851295
590 0.727153
595 0.69682
600 1.5205
Ex : 453
200 0.12189
205 0.155801
210 0.140011
215 0.201529
220 0.184179
225 0.198064
230 0.165587
235 0.206183
240 0.184083
245 0.13459
250 0.158486
255 0.211116
260 0.161415
265 0.205581
270 0.167918
275 0.173994
280 0.144104
285 0.208209
290 0.198672
295 0.127104
300 0.206414
305 0.203343
310 0.211697
315 0.176154
320 0.234204
325 0.193734
330 0.200151
335 0.173507
340 0.168236
345 0.156101
350 0.182234
355 0.157307
360 0.152147
365 0.162944
370 0.211266
375 0.224911
380 0.196945
385 0.204706
390 0.267175
395 0.245979
400 0.257466
405 0.264476
410 0.355727
415 0.308688
420 0.384333
425 0.384858
430 0.631653
435 0.920782
440 29.6127
445 505.327
450 728.741
455 169.039
460 21.6111
465 4.72461
470 2.98379
475 3.06266
480 3.34195
485 3.48171
490 3.29613
495 3.26194
500 3.27189
505 3.30644
510 3.7882
515 5.24959
520 5.04641
525 3.91897
530 3.56283
535 3.15847
540 2.86148
545 2.46922
550 2.29844
555 1.93607
560 1.75778
565 1.61543
570 1.47772
575 1.11665
580 1.05989
585 0.94783
590 0.732102
595 0.611471
600 0.518294
Ex : 458
200 0.126803
205 0.13945
210 0.195082
215 0.172144
220 0.175701
225 0.173579
230 0.220081
235 0.164087
240 0.165586
245 0.162398
250 0.145582
255 0.161452
260 0.159683
265 0.164267
270 0.139134
275 0.151983
280 0.258203
285 0.167784
290 0.195366
295 0.179093
300 0.214231
305 0.195678
310 0.197506
315 0.201241
320 0.181096
325 0.207894
330 0.177447
335 0.20276
340 0.177485
345 0.224944
350 0.171054
355 0.184071
360 0.233697
365 0.200622
370 0.205748
375 0.277058
380 0.183162
385 0.252127
390 0.293122
395 0.295623
400 0.216846
405 0.237104
410 0.250355
415 0.307258
420 0.259052
425 0.363745
430 0.507533
435 0.619581
440 1.04865
445 31.9105
450 506.435
455 752.445
460 184.358
465 23.4003
470 5.01008
475 2.73838
480 2.83875
485 3.05023
490 3.15776
495 2.83195
500 2.89334
505 2.75472
510 2.95366
515 2.84395
520 4.05436
525 4.82386
530 3.59327
535 2.90108
540 2.83105
545 2.38052
550 1.99073
555 1.81377
560 1.69219
565 1.51737
570 1.28957
575 1.02426
580 0.923213
585 0.735057
590 0.619752
595 0.555461
600 0.643323
Ex : 463
200 0.140575
205 0.178132
210 0.201565
215 0.193376
220 0.210404
225 0.223375
230 0.172709
235 0.179247
240 0.208023
245 0.181102
250 0.169
255 0.181845
260 0.14799
265 0.142907
270 0.143742
275 0.184411
280 0.234681
285 0.184351
290 0.224982
295 0.202764
300 0.129075
305 0.172569
310 0.166822
315 0.162421
320 0.286381
325 0.185613
330 0.206647
335 0.213754
340 0.215511
345 0.184702
350 0.157871
355 0.18479
360 0.175887
365 0.230507
370 0.179522
375 0.180869
380 0.252715
385 0.192535
390 0.22843
395 0.248219
400 0.243632
405 0.223208
410 0.285269
415 0.327491
420 0.258802
425 0.345624
430 0.360614
435 0.44663
440 0.609811
445 1.01062
450 31.2657
455 529.509
460 802.642
465 192.763
470 24.2843
475 4.79972
480 2.46732
485 2.30017
490 2.59968
495 2.52616
500 2.51363
505 2.25314
510 2.25681
515 2.26976
520 2.42997
525 3.11275
530 4.17399
535 3.43897
540 2.60899
545 2.38039
550 2.16943
555 1.80944
560 1.58122
565 1.38476
570 1.20457
575 1.04642
580 0.909959
585 0.728169
590 0.634298
595 0.593574
600 0.548941
Ex : 468
200 0.174861
205 0.16029
210 0.15814
215 0.142352
220 0.193922
225 0.254722
230 0.197123
235 0.141593
240 0.170396
245 0.14679
250 0.187998
255 0.182163
260 0.183017
265 0.198303
270 0.140283
275 0.174315
280 0.1822
285 0.152537
290 0.198543
295 0.19994
300 0.218096
305 0.171247
310 0.190462
315 0.166451
320 0.151604
325 0.200852
330 0.207243
335 0.163901
340 0.221437
345 0.205055
350 0.209663
355 0.193481
360 0.124886
365 0.174894
370 0.203886
375 0.259249
380 0.243849
385 0.217966
390 0.208128
395 0.239662
400 0.226591
405 0.215589
410 0.259747
415 0.247927
420 0.265237
425 0.277335
430 0.303894
435 0.349628
440 0.507616
445 0.643586
450 0.961733
455 34.2843
460 534.524
465 827.638
470 198.024
475 24.6535
480 4.72937
485 2.30173
490 2.00157
495 2.30116
500 2.41005
505 2.15471
510 1.97343
515 1.97196
520 2.00713
525 1.9554
530 2.33826
535 3.42277
540 3.53454
545 2.48655
550 1.9054
555 1.78704
560 1.5311
565 1.18149
570 1.10247
575 0.975666
580 0.786524
585 0.683621
590 0.536573
595 0.560246
600 0.237302
Ex : 473
200 0.179102
205 0.181236
210 0.142472
215 0.189938
220 0.155686
225 0.150887
230 0.195236
235 0.200515
240 0.160658
245 0.216911
250 0.167863
255 0.186614
260 0.144959
265 0.192605
270 0.182377
275 0.215361
280 0.20514
285 0.196189
290 0.184236
295 0.225818
300 0.164668
305 0.194944
310 0.160203
315 0.180764
320 0.206081
325 0.217841
330 0.156194
335 0.158232
340 0.206915
345 0.152313
350 0.184051
355 0.247848
360 0.199081
365 0.256517
370 0.205547
375 0.25297
380 0.234295
385 0.222176
390 0.241627
395 0.219604
400 0.262827
405 0.244179
410 0.210343
415 0.195373
420 0.320206
425 0.354008
430 0.301981
435 0.351925
440 0.398731
445 0.487698
450 0.703472
455 1.20661
460 40.8094
465 608.465
470 840.309
475 191.373
480 23.7925
485 4.57491
490 2.15499
495 1.91202
500 2.03373
505 2.05803
510 1.91503
515 1.74179
520 1.70757
525 1.77253
530 1.86596
535 1.98833
540 2.79554
545 3.23881
550 2.38251
555 1.82452
560 1.68871
565 1.48132
570 1.22687
575 0.962459
580 0.849247
585 0.6868
590 0.620983
595 0.458763
600 0.67229
Ex : 478
200 0.291903
205 0.21342
210 0.231869
215 0.168003
220 0.173093
225 0.211107
230 0.202773
235 0.224704
240 0.166358
245 0.282246
250 0.211684
255 0.22003
260 0.205125
265 0.205687
270 0.220518
275 0.263458
280 0.207085
285 0.182264
290 0.250436
295 0.19237
300 0.212775
305 0.227548
310 0.168648
315 0.252007
320 0.178991
325 0.237058
330 0.243092
335 0.216604
340 0.165476
345 0.167337
350 0.208343
355 0.205988
360 0.185938
365 0.227218
370 0.227919
375 0.197406
380 0.216092
385 0.273294
390 0.244789
395 0.241788
400 0.218595
405 0.228886
410 0.310207
415 0.309641
420 0.259669
425 0.241317
430 0.342123
435 0.361325
440 0.430509
445 0.439722
450 0.608252
455 0.750958
460 1.25218
465 40.9259
470 594.634
475 822.662
480 196.015
485 24.5267
490 4.51731
495 1.98766
500 1.67236
505 1.95796
510 1.9184
515 1.8825
520 1.66434
525 1.52953
530 1.63819
535 1.59297
540 1.65659
545 2.17398
550 3.11114
555 2.58052
560 1.90246
565 1.51009
570 1.36046
575 0.944682
580 0.78159
585 0.642071
590 0.599286
595 0.542306
600 0.82492
Ex : 483
200 0.200201
205 0.215406
210 0.186067
215 0.244223
220 0.214531
225 0.208245
230 0.210318
235 0.1983
240 0.204732
245 0.238006
250 0.1861
255 0.180976
260 0.163094
265 0.134229
270 0.162403
275 0.227188
280 0.227617
285 0.238117
290 0.15561
295 0.181172
300 0.168268
305 0.172858
310 0.159829
315 0.180209
320 0.196625
325 0.229683
330 0.226744
335 0.227884
340 0.183184
345 0.259623
350 0.21862
355 0.193476
360 0.179442
365 0.239653
370 0.184942
375 0.219218
380 0.229155
385 0.289309
390 0.239606
395 0.254465
400 0.215072
405 0.289477
410 0.243183
415 0.307157
420 0.339565
425 0.257634
430 0.258671
435 0.303401
440 0.310225
445 0.374092
450 0.51136
455 0.58614
460 0.874277
465 1.32878
470 34.1475
475 583.456
480 878.02
485 207.426
490 25.6015
495 4.31676
500 1.90553
505 1.42623
510 1.81582
515 1.73842
520 1.79248
525 1.6577
530 1.48386
535 1.63051
540 1.46281
545 1.58233
550 1.65822
555 2.4993
560 2.58914
565 1.84049
570 1.32554
575 1.2469
580 0.952919
585 0.635209
590 0.585766
595 0.494187
600 0.36516
Ex : 488
200 0.19348
205 0.246534
210 0.167516
215 0.27698
220 0.198766
225 0.199039
230 0.206409
235 0.200581
240 0.203909
245 0.141459
250 0.197477
255 0.264944
260 0.302477
265 0.194355
270 0.168857
275 0.203494
280 0.229772
285 0.263572
290 0.217228
295 0.166397
300 0.202004
305 0.304782
310 0.250758
315 0.241042
320 0.246784
325 0.222919
330 0.248838
335 0.307104
340 0.211591
345 0.263194
350 0.200438
355 0.217452
360 0.252872
365 0.253278
370 0.263947
375 0.234494
380 0.286226
385 0.283464
390 0.260347
395 0.283715
400 0.322212
405 0.296917
410 0.295634
415 0.291351
420 0.339898
425 0.313253
430 0.3386
435 0.325853
440 0.361591
445 0.341597
450 0.394217
455 0.498094
460 0.569655
465 0.976501
470 1.4924
475 40.1187
480 622.882
485 866.174
490 202.322
495 24.8957
500 4.42689
505 1.91657
510 1.47953
515 1.3881
520 1.74129
525 1.83233
530 1.6108
535 1.53861
540 1.38592
545 1.64588
550 1.51111
555 1.37656
560 1.91559
565 2.47523
570 1.80743
575 1.20611
580 1.06042
585 0.855384
590 0.715248
595 0.557728
600 0.715189
Ex : 493
200 0.173052
205 0.23754
210 0.20245
215 0.1984
220 0.218384
225 0.209291
230 0.167668
235 0.199032
240 0.168618
245 0.275622
250 0.253302
255 0.206832
260 0.168163
265 0.242095
270 0.228624
275 0.201221
280 0.217881
285 0.158939
290 0.180775
295 0.179052
300 0.259281
305 0.16345
310 0.207163
315 0.219342
320 0.231823
325 0.267276
330 0.227683
335 0.227564
340 0.253015
345 0.249549
350 0.251254
355 0.214781
360 0.268679
365 0.259935
370 0.255773
375 0.255362
380 0.30071
385 0.298661
390 0.250873
395 0.317416
400 0.233183
405 0.301841
410 0.352385
415 0.291838
420 0.280051
425 0.308179
430 0.339318
435 0.266575
440 0.343147
445 0.395088
450 0.427884
455 0.402847
460 0.547537
465 0.66956
470 0.862767
475 1.35695
480 37.226
485 623.016
490 929.42
495 210.124
500 25.6603
505 4.35456
510 1.83676
515 1.56936
520 1.67999
525 1.86679
530 1.85593
535 1.72
540 1.48344
545 1.41171
550 1.24104
555 1.21782
560 1.24041
565 1.40541
570 2.09785
575 1.84319
580 1.06255
585 0.815239
590 0.713946
595 0.601542
600 0.619754
Ex : 498
200 0.291285
205 0.190618
210 0.199023
215 0.221506
220 0.273513
225 0.23116
230 0.287805
235 0.214532
240 0.253082
245 0.224615
250 0.248482
255 0.209386
260 0.181962
265 0.23661
270 0.25304
275 0.253835
280 0.220132
285 0.334613
290 0.29898
295 0.261559
300 0.207634
305 0.281338
310 0.257342
315 0.284093
320 0.28159
325 0.238073
330 0.285025
335 0.229638
340 0.262818
345 0.230151
350 0.203878
355 0.208981
360 0.287931
365 0.254834
370 0.298451
375 0.280841
380 0.275564
385 0.263607
390 0.283879
395 0.26765
400 0.236111
405 0.245166
410 0.217736
415 0.269397
420 0.325073
425 0.240217
430 0.335956
435 0.31998
440 0.326844
445 0.413459
450 0.344725
455 0.401587
460 0.493074
465 0.554746
470 0.695632
475 0.902938
480 1.31696
485 44.2329
490 639.608
495 865.025
500 199.027
505 24.4679
510 4.21952
515 1.87066
520 1.58386
525 1.56657
530 1.77172
535 1.66082
540 1.73365
545 1.48022
550 1.46426
555 1.26405
560 1.20348
565 1.01327
570 1.19389
575 1.72898
580 1.68074
585 1.01524
590 0.862403
595 0.635496
600 0.198918
Ex : 503
200 0.228724
205 0.26197
210 0.277763
215 0.391266
220 0.266384
225 0.295595
230 0.227144
235 0.233235
240 0.290227
245 0.214317
250 0.269898
255 0.3022
260 0.22703
265 0.251717
270 0.264813
275 0.338794
280 0.205252
285 0.211059
290 0.234041
295 0.216194
300 0.258473
305 0.21842
310 0.21588
315 0.286223
320 0.345667
325 0.273341
330 0.292787
335 0.283075
340 0.354253
345 0.273096
350 0.28913
355 0.293067
360 0.229246
365 0.274903
370 0.225318
375 0.302145
380 0.281962
385 0.312281
390 0.23409
395 0.280942
400 0.238237
405 0.347981
410 0.268456
415 0.324746
420 0.383433
425 0.286457
430 0.356499
435 0.324438
440 0.391875
445 0.414801
450 0.369571
455 0.441517
460 0.416791
465 0.411861
470 0.515336
475 0.615805
480 0.812741
485 1.41075
490 39.6043
495 643.647
500 895.581
505 204.477
510 25.3537
515 4.40387
520 1.85436
525 1.66491
530 1.34836
535 1.66892
540 1.51955
545 1.51222
550 1.40485
555 1.26335
560 1.21687
565 1.02052
570 0.952964
575 1.00433
580 1.18097
585 1.3021
590 1.09554
595 0.812427
600 0.488078
Ex : 508
200 0.256301
205 0.28815
210 0.214878
215 0.206333
220 0.226992
225 0.22235
230 0.256357
235 0.261367
240 0.265055
245 0.233843
250 0.297023
255 0.187123
260 0.228887
265 0.202973
270 0.216795
275 0.188746
280 0.212344
285 0.284546
290 0.346739
295 0.333682
300 0.2718
305 0.208703
310 0.268294
315 0.269804
320 0.206028
325 0.233988
330 0.232659
335 0.239082
340 0.245366
345 0.305568
350 0.212757
355 0.285656
360 0.31161
365 0.256107
370 0.278472
375 0.267702
380 0.291112
385 0.295012
390 0.269061
395 0.376299
400 0.283246
405 0.277234
410 0.295296
415 0.374761
420 0.282544
425 0.24228
430 0.266503
435 0.304207
440 0.352687
445 0.323645
450 0.482427
455 0.411824
460 0.469988
465 0.41261
470 0.509449
475 0.527958
480 0.632614
485 0.881994
490 1.47529
495 44.0085
500 634.65
505 883.258
510 211.939
515 26.0241
520 4.56354
525 2.08533
530 1.66243
535 1.52907
540 1.47757
545 1.73312
550 1.40201
555 1.46381
560 1.11746
565 1.08752
570 1.00415
575 0.914146
580 0.842497
585 0.886303
590 1.14764
595 0.90487
600 0.666547
Ex : 513
200 0.296845
205 0.241361
210 0.228609
215 0.230012
220 0.28661
225 0.280392
230 0.242651
235 0.200963
240 0.231209
245 0.211364
250 0.259745
255 0.292009
260 0.258302
265 0.213744
270 0.298443
275 0.251135
280 0.249472
285 0.367154
290 0.244252
295 0.248181
300 0.249058
305 0.284635
310 0.282356
315 0.201596
320 0.226601
325 0.322402
330 0.262163
335 0.218404
340 0.306956
345 0.265706
350 0.270325
355 0.385828
360 0.323855
365 0.285573
370 0.34863
375 0.32185
380 0.280513
385 0.324201
390 0.32182
395 0.285999
400 0.316261
405 0.372623
410 0.344263
415 0.321622
420 0.308895
425 0.349196
430 0.324944
435 0.293688
440 0.26616
445 0.40789
450 0.386882
455 0.414211
460 0.343815
465 0.390631
470 0.451211
475 0.39425
480 0.647685
485 0.800267
490 0.911518
495 1.27449
500 38.7974
505 623.604
510 897.188
515 218.055
520 26.7429
525 4.55336
530 2.12903
535 1.64866
540 1.5543
545 1.55021
550 1.4836
555 1.61118
560 1.27909
565 1.07562
570 1.06979
575 0.933274
580 0.825644
585 0.64033
590 0.698102
595 0.826983
600 0.66111
Ex : 518
200 0.281221
205 0.176442
210 0.246852
215 0.23106
220 0.349564
225 0.207681
230 0.264342
235 0.234285
240 0.23796
245 0.252535
250 0.252568
255 0.241539
260 0.294597
265 0.200295
270 0.285945
275 0.29027
280 0.237749
285 0.301943
290 0.188473
295 0.214914
300 0.3
305 0.281098
310 0.266231
315 0.199663
320 0.267012
325 0.319991
330 0.26957
335 0.243647
340 0.272922
345 0.243639
350 0.316904
355 0.32696
360 0.350771
365 0.246485
370 0.33472
375 0.270802
380 0.287232
385 0.243146
390 0.326294
395 0.258242
400 0.254259
405 0.282164
410 0.299816
415 0.251363
420 0.31088
425 0.331366
430 0.358783
435 0.272728
440 0.311311
445 0.33952
450 0.420226
455 0.371579
460 0.340567
465 0.411335
470 0.426565
475 0.525991
480 0.579501
485 0.613174
490 0.714666
495 0.85774
500 1.24567
505 40.9853
510 610.116
515 894.944
520 217.848
525 26.7825
530 4.65521
535 1.78062
540 1.60793
545 1.3753
550 1.41708
555 1.42145
560 1.18412
565 1.29313
570 1.00494
575 0.877172
580 0.86378
585 0.808343
590 0.564158
595 0.659417
600 0.287902
Ex : 523
200 0.224784
205 0.237795
210 0.290949
215 0.285714
220 0.242234
225 0.282008
230 0.268614
235 0.278537
240 0.221995
245 0.226472
250 0.260235
255 0.256583
260 0.245854
265 0.33444
270 0.276445
275 0.21527
280 0.165916
285 0.237351
290 0.281265
295 0.333591
300 0.435317
305 0.405289
310 0.292437
315 0.300803
320 0.287447
325 0.245361
330 0.278168
335 0.325023
340 0.2767
345 0.310295
350 0.302037
355 0.293101
360 0.359041
365 0.248653
370 0.314801
375 0.260281
380 0.301363
385 0.305004
390 0.287725
395 0.317275
400 0.293327
405 0.276472
410 0.317389
415 0.25017
420 0.271164
425 0.287149
430 0.267597
435 0.315011
440 0.268719
445 0.326873
450 0.386684
455 0.398183
460 0.326612
465 0.402895
470 0.406636
475 0.381088
480 0.397568
485 0.40157
490 0.611791
495 0.673674
500 0.916868
505 1.31096
510 35.7675
515 592.261
520 892.901
525 224.878
530 27.4234
535 4.83859
540 2.13691
545 1.39791
550 1.35965
555 1.33418
560 1.43848
565 1.13293
570 1.0263
575 0.851357
580 0.87239
585 0.703373
590 0.563884
595 0.519863
600 0.963086
Ex : 528
200 0.201061
205 0.222392
210 0.223031
215 0.26938
220 0.276455
225 0.308274
230 0.218756
235 0.269917
240 0.22946
245 0.238197
250 0.259091
255 0.261149
260 0.286651
265 0.28279
270 0.27204
275 0.338278
280 0.304678
285 0.312478
290 0.325256
295 0.271938
300 0.305281
305 0.269486
310 0.290479
315 0.297769
320 0.403965
325 0.298854
330 0.23788
335 0.38487
340 0.266121
345 0.230898
350 0.355361
355 0.312529
360 0.400361
365 0.370923
370 0.254399
375 0.275019
380 0.396392
385 0.259514
390 0.293064
395 0.306113
400 0.333763
405 0.316464
410 0.246074
415 0.31964
420 0.444372
425 0.335631
430 0.334337
435 0.328867
440 0.27424
445 0.279411
450 0.317515
455 0.280001
460 0.491954
465 0.309832
470 0.35157
475 0.396236
480 0.499126
485 0.402615
490 0.502211
495 0.484241
500 0.653921
505 0.835947
510 1.25698
515 33.5002
520 576.627
525 877.279
530 222.012
535 27.3041
540 4.52774
545 1.93755
550 1.58492
555 1.22318
560 1.20348
565 1.27626
570 1.08647
575 1.05478
580 0.93065
585 0.662221
590 0.753329
595 0.631234
600 0.788142
Ex : 533
200 0.371859
205 0.371787
210 0.344763
215 0.265456
220 0.311213
225 0.317768
230 0.25999
235 0.207971
240 0.313626
245 0.294637
250 0.286372
255 0.245163
260 0.285401
265 0.336857
270 0.284957
275 0.228298
280 0.314947
285 0.256675
290 0.26144
295 0.273403
300 0.229436
305 0.352563
310 0.350315
315 0.324077
320 0.379819
325 0.362859
330 0.380263
335 0.376929
340 0.386723
345 0.280671
350 0.266456
355 0.236554
360 0.306761
365 0.371825
370 0.310977
375 0.309619
380 0.351523
385 0.267583
390 0.355696
395 0.26804
400 0.349876
405 0.378179
410 0.292434
415 0.299756
420 0.403258
425 0.358633
430 0.374982
435 0.411581
440 0.304572
445 0.360412
450 0.390696
455 0.442761
460 0.373054
465 0.447783
470 0.392226
475 0.464576
480 0.454805
485 0.528344
490 0.537117
495 0.502349
500 0.568507
505 0.626827
510 0.952509
515 1.35576
520 34.1147
525 559.441
530 863.859
535 222.381
540 27.1889
545 4.51877
550 1.79024
555 1.51185
560 1.1526
565 1.10407
570 0.992861
575 0.962718
580 0.917677
585 0.776752
590 0.762167
595 0.618454
600 0.561125
Ex : 538
200 0.294319
205 0.327243
210 0.295558
215 0.286013
220 0.397021
225 0.403738
230 0.34186
235 0.248266
240 0.252297
245 0.26763
250 0.265381
255 0.302156
260 0.306917
265 0.402362
270 0.335788
275 0.321252
280 0.371757
285 0.275243
290 0.264968
295 0.320458
300 0.295975
305 0.363442
310 0.353956
315 0.284313
320 0.196971
325 0.261192
330 0.23785
335 0.26511
340 0.26313
345 0.336159
350 0.232509
355 0.232509
360 0.310341
365 0.287149
370 0.336995
375 0.347364
380 0.294057
385 0.268445
390 0.331758
395 0.250887
400 0.265617
405 0.318771
410 0.342888
415 0.458397
420 0.394401
425 0.365258
430 0.319523
435 0.397101
440 0.361412
445 0.319481
450 0.343087
455 0.441542
460 0.373411
465 0.433885
470 0.382791
475 0.392072
480 0.490008
485 0.490438
490 0.467409
495 0.391374
500 0.463989
505 0.650753
510 0.7236
515 0.884642
520 1.24821
525 29.2276
530 527.729
535 866.5
540 233.734
545 28.6997
550 4.73767
555 1.76331
560 1.45907
565 0.982305
570 0.994923
575 0.89159
580 0.953845
585 0.7722
590 0.64525
595 0.580553
600 1.5447
Ex : 543
200 0.208384
205 0.227286
210 0.254722
215 0.315811
220 0.287005
225 0.334745
230 0.355205
235 0.344083
240 0.387346
245 0.338917
250 0.272629
255 0.244325
260 0.230006
265 0.336212
270 0.409793
275 0.259481
280 0.211388
285 0.304538
290 0.284372
295 0.329768
300 0.314975
305 0.306366
310 0.288961
315 0.314394
320 0.336524
325 0.258306
330 0.307636
335 0.301158
340 0.299264
345 0.396866
350 0.359575
355 0.269009
360 0.282073
365 0.258684
370 0.300228
375 0.294763
380 0.471507
385 0.273769
390 0.367403
395 0.255537
400 0.368064
405 0.356574
410 0.321854
415 0.373265
420 0.360845
425 0.336947
430 0.389996
435 0.357406
440 0.326969
445 0.370574
450 0.364822
455 0.301417
460 0.339377
465 0.390066
470 0.435201
475 0.469381
480 0.401814
485 0.479322
490 0.434381
495 0.382722
500 0.405586
505 0.489679
510 0.599725
515 0.678972
520 0.815587
525 1.23135
530 26.4004
535 503.639
540 834.951
545 226.408
550 27.7727
555 4.35777
560 1.45619
565 1.18033
570 0.836731
575 0.695034
580 0.84026
585 0.822269
590 0.528652
595 0.586101
600 0.957935
Ex : 548
200 0.321157
205 0.345494
210 0.267594
215 0.243842
220 0.351218
225 0.251193
230 0.255366
235 0.370282
240 0.322082
245 0.267905
250 0.367917
255 0.344274
260 0.268267
265 0.261221
270 0.399607
275 0.288184
280 0.297923
285 0.329964
290 0.28598
295 0.288569
300 0.304292
305 0.36906
310 0.349213
315 0.253255
320 0.243872
325 0.183768
330 0.271391
335 0.299786
340 0.284658
345 0.341597
350 0.265093
355 0.264607
360 0.240888
365 0.352967
370 0.399798
375 0.288357
380 0.344481
385 0.365573
390 0.367181
395 0.379438
400 0.328823
405 0.315047
410 0.298755
415 0.301332
420 0.331345
425 0.262854
430 0.396236
435 0.428007
440 0.488473
445 0.461768
450 0.441606
455 0.355704
460 0.341649
465 0.392689
470 0.308525
475 0.431856
480 0.533304
485 0.435682
490 0.489631
495 0.515755
500 0.370865
505 0.511087
510 0.584942
515 0.604185
520 0.6245
525 0.924287
530 1.29674
535 28.4007
540 520.106
545 856.189
550 231.19
555 28.2114
560 4.33617
565 1.6066
570 0.982485
575 0.812144
580 0.730426
585 0.619004
590 0.693198
595 0.70379
600 0.27184
Ex : 553
200 0.268143
205 0.214527
210 0.405194
215 0.25654
220 0.392253
225 0.281669
230 0.262846
235 0.366528
240 0.355936
245 0.385493
250 0.259023
255 0.281407
260 0.301179
265 0.337647
270 0.269523
275 0.198911
280 0.258055
285 0.273637
290 0.251603
295 0.300105
300 0.264025
305 0.336665
310 0.374959
315 0.388184
320 0.270934
325 0.486298
330 0.405119
335 0.274383
340 0.382467
345 0.336423
350 0.299713
355 0.422938
360 0.308252
365 0.382837
370 0.287983
375 0.258153
380 0.383706
385 0.33546
390 0.359224
395 0.310959
400 0.333384
405 0.332575
410 0.308609
415 0.310235
420 0.369213
425 0.357619
430 0.339137
435 0.541933
440 0.424069
445 0.436219
450 0.328048
455 0.293385
460 0.448191
465 0.396506
470 0.432395
475 0.381563
480 0.412725
485 0.401935
490 0.474814
495 0.443537
500 0.488084
505 0.380407
510 0.435794
515 0.546481
520 0.547707
525 0.711886
530 0.772998
535 1.14632
540 24.2228
545 484.18
550 821.041
555 227.959
560 27.5815
565 4.05376
570 1.43282
575 0.982535
580 0.712116
585 0.665864
590 0.606881
595 0.655594
600 0.859982
Ex : 558
200 0.323309
205 0.250132
210 0.313652
215 0.307493
220 0.319687
225 0.334113
230 0.317448
235 0.275355
240 0.422073
245 0.298766
250 0.341438
255 0.256791
260 0.316217
265 0.265906
270 0.276149
275 0.322352
280 0.271177
285 0.311127
290 0.33107
295 0.374196
300 0.426757
305 0.438461
310 0.270423
315 0.2905
320 0.315471
325 0.433348
330 0.353117
335 0.286659
340 0.252387
345 0.37462
350 0.353384
355 0.348647
360 0.344628
365 0.305775
370 0.330373
375 0.323107
380 0.398246
385 0.392554
390 0.425939
395 0.379598
400 0.390454
405 0.473393
410 0.514464
415 0.305094
420 0.393549
425 0.337028
430 0.342786
435 0.454759
440 0.490436
445 0.430151
450 0.386802
455 0.413631
460 0.469656
465 0.388306
470 0.408739
475 0.493042
480 0.448337
485 0.553013
490 0.369941
495 0.43312
500 0.330781
505 0.561206
510 0.50406
515 0.446496
520 0.556986
525 0.673498
530 0.602779
535 0.868044
540 1.21938
545 23.6
550 461.806
555 799.198
560 224.671
565 27.3772
570 4.01565
575 1.16069
580 0.811466
585 0.653235
590 0.505426
595 0.600507
600 0.302119
Ex : 563
200 0.399032
205 0.298823
210 0.299581
215 0.290151
220 0.402899
225 0.312103
230 0.269328
235 0.339023
240 0.282184
245 0.217216
250 0.326627
255 0.227565
260 0.257768
265 0.342007
270 0.407233
275 0.475237
280 0.365181
285 0.311942
290 0.262587
295 0.375274
300 0.289016
305 0.295278
310 0.385143
315 0.360948
320 0.327827
325 0.348891
330 0.367349
335 0.311118
340 0.409189
345 0.322586
350 0.419363
355 0.347685
360 0.250231
365 0.388177
370 0.412236
375 0.548685
380 0.435077
385 0.395844
390 0.348377
395 0.29539
400 0.36611
405 0.383489
410 0.459365
415 0.282717
420 0.367169
425 0.517588
430 0.369167
435 0.417281
440 0.325499
445 0.38151
450 0.520769
455 0.343618
460 0.412333
465 0.381367
470 0.490513
475 0.35199
480 0.3997
485 0.567389
490 0.473833
495 0.405022
500 0.438389
505 0.442972
510 0.514507
515 0.408545
520 0.452111
525 0.569215
530 0.653806
535 0.794646
540 0.964806
545 1.15122
550 22.2692
555 440.305
560 760.983
565 217.833
570 26.2615
575 3.79704
580 1.14393
585 0.733539
590 0.532176
595 0.590327
600 1.04369
Ex : 568
200 0.387514
205 0.345736
210 0.228326
215 0.213918
220 0.333041
225 0.353196
230 0.307945
235 0.229667
240 0.284321
245 0.289124
250 0.333051
255 0.466311
260 0.354516
265 0.277036
270 0.343156
275 0.368511
280 0.401643
285 0.401807
290 0.321893
295 0.3929
300 0.357389
305 0.429687
310 0.433315
315 0.307597
320 0.329658
325 0.338163
330 0.382519
335 0.247
340 0.320753
345 0.302235
350 0.259909
355 0.233038
360 0.358828
365 0.315348
370 0.298304
375 0.310745
380 0.468312
385 0.374015
390 0.448077
395 0.333645
400 0.329877
405 0.314904
410 0.410955
415 0.439785
420 0.343352
425 0.354647
430 0.391908
435 0.425943
440 0.334776
445 0.367518
450 0.407969
455 0.422551
460 0.515368
465 0.462206
470 0.504171
475 0.368542
480 0.411887
485 0.393671
490 0.420221
495 0.331186
500 0.30815
505 0.448248
510 0.470503
515 0.355948
520 0.412851
525 0.523392
530 0.495036
535 0.573413
540 0.710515
545 0.699152
550 1.04318
555 17.5212
560 394.416
565 730.163
570 221.583
575 26.9163
580 3.79356
585 1.11225
590 0.846018
595 0.677971
600 0.207475
Ex : 573
200 0.415928
205 0.316776
210 0.39687
215 0.362322
220 0.319703
225 0.318093
230 0.244162
235 0.305961
240 0.371157
245 0.368922
250 0.27168
255 0.31475
260 0.346255
265 0.334278
270 0.2431
275 0.321626
280 0.369757
285 0.451138
290 0.375829
295 0.356596
300 0.252451
305 0.37183
310 0.289229
315 0.328649
320 0.466803
325 0.370935
330 0.331282
335 0.388966
340 0.360286
345 0.319656
350 0.385277
355 0.487017
360 0.395194
365 0.374565
370 0.452972
375 0.471244
380 0.450865
385 0.415335
390 0.390676
395 0.294405
400 0.405238
405 0.494362
410 0.391698
415 0.321575
420 0.362476
425 0.344703
430 0.357373
435 0.402191
440 0.562265
445 0.404898
450 0.29482
455 0.338824
460 0.320923
465 0.323385
470 0.478394
475 0.449541
480 0.417498
485 0.400903
490 0.491023
495 0.391459
500 0.400552
505 0.419316
510 0.48945
515 0.502176
520 0.58274
525 0.520995
530 0.372363
535 0.580256
540 0.56785
545 0.583499
550 0.910129
555 1.17718
560 15.5748
565 349.148
570 687.756
575 209.456
580 25.5754
585 3.70947
590 1.0053
595 0.592336
600 0.632435
Ex : 578
200 0.456024
205 0.334278
210 0.344016
215 0.241549
220 0.311149
225 0.322025
230 0.309667
235 0.382685
240 0.452177
245 0.263644
250 0.401669
255 0.358538
260 0.301988
265 0.295336
270 0.334099
275 0.385244
280 0.362058
285 0.525837
290 0.368883
295 0.271953
300 0.305291
305 0.31654
310 0.30327
315 0.351224
320 0.36217
325 0.308998
330 0.394539
335 0.335817
340 0.262098
345 0.435645
350 0.375666
355 0.410052
360 0.471185
365 0.355017
370 0.350058
375 0.388399
380 0.354731
385 0.344717
390 0.491006
395 0.398859
400 0.363437
405 0.41722
410 0.574091
415 0.389915
420 0.3624
425 0.396667
430 0.410815
435 0.398762
440 0.376908
445 0.369146
450 0.385707
455 0.446374
460 0.374669
465 0.484996
470 0.360595
475 0.441844
480 0.500927
485 0.344749
490 0.399158
495 0.297675
500 0.357047
505 0.458946
510 0.417898
515 0.412689
520 0.428479
525 0.468353
530 0.484865
535 0.572988
540 0.469437
545 0.541921
550 0.579831
555 0.798791
560 1.03453
565 13.2175
570 309.43
575 602.389
580 183.193
585 22.2223
590 3.23543
595 0.901762
600 0.243187
Ex : 583
200 0.426854
205 0.360373
210 0.356077
215 0.405562
220 0.258296
225 0.381424
230 0.418769
235 0.334034
240 0.32224
245 0.409359
250 0.322288
255 0.282792
260 0.278608
265 0.369835
270 0.34848
275 0.297308
280 0.42912
285 0.476068
290 0.376638
295 0.274838
300 0.419151
305 0.30079
310 0.496167
315 0.440468
320 0.369236
325 0.386863
330 0.407249
335 0.408128
340 0.327439
345 0.345961
350 0.368435
355 0.275664
360 0.302209
365 0.305217
370 0.352013
375 0.429769
380 0.506228
385 0.318452
390 0.456823
395 0.370101
400 0.372624
405 0.35785
410 0.281765
415 0.466314
420 0.386942
425 0.35428
430 0.404522
435 0.397053
440 0.461116
445 0.470026
450 0.329773
455 0.415363
460 0.358069
465 0.413821
470 0.392871
475 0.387764
480 0.472915
485 0.352103
490 0.357435
495 0.382531
500 0.412353
505 0.394187
510 0.49826
515 0.556707
520 0.355115
525 0.383561
530 0.613854
535 0.382828
540 0.478943
545 0.624117
550 0.680136
555 0.644336
560 0.793344
565 0.932272
570 11.2001
575 276.306
580 505.839
585 148.08
590 18.2028
595 2.7474
600 0.312643
Ex : 588
200 0.378359
205 0.447784
210 0.511269
215 0.409609
220 0.370638
225 0.28421
230 0.320425
235 0.329353
240 0.256624
245 0.311068
250 0.199313
255 0.323922
260 0.413805
265 0.330825
270 0.32901
275 0.425105
280 0.322748
285 0.390202
290 0.395349
295 0.340965
300 0.292984
305 0.330783
310 0.369515
315 0.309858
320 0.345338
325 0.469978
330 0.434318
335 0.392049
340 0.28728
345 0.346344
350 0.361385
355 0.324766
360 0.402769
365 0.343802
370 0.291609
375 0.452916
380 0.414171
385 0.33156
390 0.424768
395 0.393015
400 0.439425
405 0.393264
410 0.347178
415 0.35141
420 0.477373
425 0.39942
430 0.29031
435 0.349392
440 0.448898
445 0.385127
450 0.306081
455 0.358917
460 0.378087
465 0.494209
470 0.341364
475 0.388655
480 0.441432
485 0.383739
490 0.396178
495 0.342568
500 0.338862
505 0.301332
510 0.497455
515 0.405495
520 0.425812
525 0.371819
530 0.456281
535 0.387468
540 0.443096
545 0.527961
550 0.491824
555 0.470095
560 0.555975
565 0.639536
570 0.840237
575 9.98772
580 233.069
585 438.12
590 131.947
595 16.046
600 2.8816
Ex : 593
200 0.346301
205 0.372695
210 0.401463
215 0.350209
220 0.308578
225 0.333793
230 0.397096
235 0.290765
240 0.369747
245 0.376304
250 0.341535
255 0.464459
260 0.383766
265 0.368372
270 0.30886
275 0.369961
280 0.35535
285 0.313658
290 0.3547
295 0.294828
300 0.427909
305 0.371129
310 0.270741
315 0.293522
320 0.270389
325 0.395551
330 0.537747
335 0.461467
340 0.461694
345 0.459206
350 0.368582
355 0.290722
360 0.287918
365 0.473738
370 0.420028
375 0.397495
380 0.436307
385 0.35464
390 0.39274
395 0.528863
400 0.335413
405 0.38947
410 0.436529
415 0.482703
420 0.332398
425 0.50489
430 0.443374
435 0.468023
440 0.406297
445 0.378012
450 0.443492
455 0.35253
460 0.392114
465 0.404292
470 0.363749
475 0.4549
480 0.428513
485 0.420086
490 0.389951
495 0.384504
500 0.410319
505 0.443566
510 0.399305
515 0.44498
520 0.402165
525 0.460953
530 0.472598
535 0.364344
540 0.3076
545 0.542954
550 0.4548
555 0.470815
560 0.583166
565 0.490854
570 0.611814
575 0.702998
580 9.1614
585 206.98
590 379.302
595 113.157
600 17.8478
Ex : 598
200 0.388761
205 0.305138
210 0.479027
215 0.387161
220 0.295174
225 0.431817
230 0.503607
235 0.452512
240 0.406662
245 0.358057
250 0.316849
255 0.236897
260 0.285398
265 0.446382
270 0.424819
275 0.563113
280 0.388209
285 0.332872
290 0.405001
295 0.545847
300 0.371216
305 0.343618
310 0.286086
315 0.436888
320 0.419597
325 0.409274
330 0.390292
335 0.350616
340 0.396575
345 0.370059
350 0.396971
355 0.406613
360 0.336709
365 0.345086
370 0.414241
375 0.433122
380 0.413762
385 0.480671
390 0.415725
395 0.354269
400 0.431428
405 0.630548
410 0.380564
415 0.366001
420 0.400982
425 0.395661
430 0.408271
435 0.428901
440 0.436907
445 0.415513
450 0.359115
455 0.457631
460 0.516785
465 0.353752
470 0.420106
475 0.382801
480 0.494807
485 0.426459
490 0.382125
495 0.43167
500 0.309458
505 0.376326
510 0.328735
515 0.36849
520 0.364562
525 0.407396
530 0.530518
535 0.415333
540 0.39821
545 0.564612
550 0.605725
555 0.609481
560 0.422914
565 0.64138
570 0.548264
575 0.632007
580 0.75136
585 8.7063
590 185.273
595 335.687
600 221.212
Ex : 603
200 0.311138
205 0.370048
210 0.42555
215 0.408964
220 0.470723
225 0.406292
230 0.400175
235 0.336109
240 0.324269
245 0.306195
250 0.39346
255 0.460555
260 0.392968
265 0.39795
270 0.478708
275 0.567069
280 0.510687
285 0.407653
290 0.39273
295 0.363703
300 0.381466
305 0.444892
310 0.383178
315 0.42954
320 0.40644
325 0.354519
330 0.278101
335 0.320816
340 0.396628
345 0.379975
350 0.321664
355 0.379277
360 0.357481
365 0.360134
370 0.547613
375 0.335255
380 0.375693
385 0.56102
390 0.660143
395 0.33813
400 0.384409
405 0.594994
410 0.408391
415 0.518185
420 0.416068
425 0.396858
430 0.524433
435 0.50439
440 0.426798
445 0.510181
450 0.310157
455 0.392811
460 0.352057
465 0.255452
470 0.382123
475 0.355696
480 0.333974
485 0.39506
490 0.410527
495 0.476466
500 0.44361
505 0.505951
510 0.591077
515 0.457878
520 0.46159
525 0.447291
530 0.407821
535 0.370911
540 0.4854
545 0.468298
550 0.391728
555 0.573005
560 0.491005
565 0.552621
570 0.489877
575 0.534886
580 0.49396
585 0.766132
590 7.60292
595 160.271
600 329.596
