File format V 1.0
ven. 6. janv. 04:37:01 2017
Operator : 
Comments : 

=============================================
SpectroFluorometer parameters
Mode : 3D measurement
Data : Fluorescence
Phospho. : Ordinary
Spectrum : Fluorescence

Scan speed : 2400 nm/mn
Response : 100 ms
PM Voltage : 700 V
Shutter : On

Lambda Ex. Start : 203
Lambda Ex. End : 603
Lambda Ex. Step : 5
Ex. Slit : 5 nm

Lambda Em. Start : 200
Lambda Em. End : 600
Lambda Em. Step : 5
Em. Slit : 5 nm

Repetition : 1
Decal lambda em : 10
=============================================
DATA
Ex : 203
200 4.96
205 2.99882
210 3.51408
215 3.25408
220 2.24905
225 3.18259
230 5.69068
235 4.58187
240 3.68091
245 4.16534
250 5.6129
255 1.73719
260 3.9626
265 4.16326
270 3.06468
275 1.94982
280 4.07494
285 7.67994
290 3.72206
295 4.0474
300 3.37239
305 3.29329
310 3.07392
315 2.17114
320 4.60125
325 5.74113
330 1.68433
335 3.26732
340 4.75266
345 4.78235
350 5.71095
355 6.38144
360 5.30804
365 5.24989
370 4.02478
375 1.41238
380 4.64098
385 4.48026
390 3.84311
395 2.80633
400 3.5435
405 3.73079
410 3.45601
415 3.03001
420 5.57341
425 5.95146
430 3.45247
435 2.98288
440 6.42101
445 5.97606
450 2.20432
455 2.53975
460 1.93076
465 4.29745
470 9.60177
475 3.22163
480 2.64099
485 2.51029
490 1.77762
495 1.9857
500 5.05548
505 4.59486
510 2.7676
515 3.00983
520 4.31876
525 4.9736
530 4.5966
535 2.84592
540 6.20554
545 6.11313
550 2.6453
555 1.86647
560 4.01754
565 3.08171
570 5.70266
575 5.01222
580 4.95444
585 2.98178
590 2.66877
595 0.853366
600 0.0971098
Ex : 208
200 4.8
205 1.83525
210 4.22481
215 8.15949
220 6.73808
225 2.59235
230 2.86785
235 5.28372
240 2.8257
245 6.57072
250 3.42454
255 3.9458
260 2.64237
265 5.84089
270 3.14718
275 3.42066
280 2.93775
285 2.61839
290 2.77243
295 3.37029
300 1.89813
305 2.82476
310 4.17451
315 2.47372
320 4.97778
325 9.88863
330 6.03306
335 4.81587
340 4.82957
345 2.89286
350 1.9503
355 2.83007
360 5.23905
365 4.34985
370 2.79913
375 4.61321
380 3.09782
385 1.4126
390 2.88624
395 4.08242
400 2.24212
405 5.28101
410 5.09643
415 2.65313
420 3.17072
425 2.06233
430 4.59185
435 2.68373
440 3.27418
445 2.23521
450 2.02677
455 6.81989
460 5.58359
465 4.04728
470 3.62155
475 1.51447
480 2.60494
485 2.3159
490 4.93773
495 4.76457
500 3.30887
505 6.34644
510 1.6602
515 5.07553
520 3.85595
525 4.79301
530 3.34715
535 4.41922
540 3.14961
545 1.57978
550 4.99655
555 2.8896
560 1.91862
565 1.70877
570 1.85608
575 2.70571
580 3.32099
585 3.56415
590 3.73389
595 2.75673
600 0.313705
Ex : 213
200 4.64103
205 2.98091
210 4.5918
215 4.70185
220 2.56224
225 4.71691
230 3.84837
235 3.91903
240 2.15589
245 2.93032
250 2.06827
255 5.22101
260 3.18334
265 4.76143
270 2.11308
275 5.12539
280 3.32599
285 1.80562
290 2.79384
295 2.71354
300 2.61183
305 2.16194
310 2.98122
315 2.50159
320 3.59241
325 3.31555
330 5.10372
335 3.34945
340 5.48101
345 4.45884
350 9.12942
355 6.15634
360 3.0758
365 2.52675
370 3.49582
375 3.79587
380 5.52066
385 4.31981
390 2.85648
395 7.32837
400 3.95468
405 2.25013
410 0.743468
415 5.71792
420 3.58331
425 2.96433
430 2.95099
435 3.88063
440 4.51701
445 5.96971
450 1.65075
455 5.16333
460 6.85998
465 5.45438
470 5.85431
475 3.35703
480 4.04421
485 2.79556
490 4.13562
495 2.68613
500 2.74273
505 4.2413
510 2.91683
515 1.94759
520 4.91542
525 7.88161
530 2.73747
535 1.80293
540 5.11711
545 2.32667
550 3.33543
555 2.50754
560 3.66162
565 2.51083
570 4.42873
575 3.84027
580 2.4977
585 2.93086
590 2.79582
595 4.78566
600 0.54459
Ex : 218
200 2.74843
205 6.41352
210 4.42055
215 2.21177
220 3.40817
225 2.33432
230 4.95983
235 1.93937
240 3.32241
245 2.92722
250 3.50278
255 5.80205
260 2.0823
265 5.25694
270 3.67109
275 1.87217
280 5.77706
285 2.81683
290 2.63215
295 1.58907
300 2.12327
305 2.39933
310 2.13176
315 3.21461
320 3.36609
325 5.22387
330 5.84394
335 3.68468
340 2.87096
345 1.80371
350 3.29531
355 2.98312
360 2.43027
365 5.76795
370 4.96704
375 4.49462
380 3.73772
385 4.9991
390 6.57358
395 4.50677
400 2.27477
405 4.01343
410 2.47283
415 1.63954
420 3.89613
425 3.24794
430 3.05398
435 6.72521
440 3.211
445 4.5659
450 2.44061
455 5.35326
460 4.9367
465 5.91398
470 5.12012
475 1.95817
480 2.35188
485 3.66655
490 1.7547
495 6.13724
500 5.98196
505 1.55519
510 3.28396
515 2.41608
520 4.21238
525 4.3688
530 5.32583
535 4.29943
540 2.74964
545 2.78384
550 2.76091
555 2.20665
560 3.33281
565 4.69739
570 2.79034
575 3.01964
580 4.11279
585 1.91965
590 3.30961
595 4.95436
600 30.6947
Ex : 223
200 1.75882
205 3.9356
210 4.49468
215 2.8532
220 1.99976
225 4.4243
230 2.31964
235 3.32192
240 3.4037
245 2.70588
250 3.01836
255 3.51631
260 8.57115
265 1.59938
270 4.52492
275 3.83415
280 5.0666
285 4.23769
290 6.19652
295 6.78491
300 2.83655
305 1.35496
310 2.84562
315 5.70313
320 5.5259
325 1.95551
330 3.12672
335 3.5388
340 6.4848
345 2.26243
350 2.79016
355 1.5305
360 4.06554
365 2.78961
370 3.28981
375 3.10808
380 3.56814
385 3.9616
390 2.03034
395 2.14673
400 2.87555
405 6.06959
410 2.97591
415 2.33908
420 4.37595
425 2.69918
430 7.22262
435 4.48662
440 3.35987
445 4.79734
450 1.54032
455 4.09622
460 4.33505
465 4.56006
470 3.29467
475 3.99315
480 7.01441
485 2.73513
490 3.53837
495 2.91833
500 5.96113
505 2.86057
510 5.17803
515 4.12262
520 4.8498
525 2.67658
530 2.36892
535 3.69834
540 4.03344
545 5.99223
550 2.06499
555 1.53727
560 3.78915
565 4.04801
570 4.46498
575 5.97302
580 1.92474
585 3.99032
590 2.0954
595 5.27715
600 21.574
Ex : 228
200 2.63277
205 3.97995
210 2.05286
215 4.98262
220 4.04114
225 3.65725
230 3.4364
235 3.55525
240 4.47239
245 2.2286
250 4.59903
255 2.21298
260 3.59366
265 1.91976
270 2.86214
275 4.6073
280 3.05346
285 3.74169
290 1.58802
295 1.562
300 1.4714
305 4.43135
310 2.09842
315 1.48932
320 2.30876
325 2.33221
330 4.08171
335 3.56357
340 5.75902
345 5.09639
350 1.6653
355 2.71068
360 3.43908
365 2.18967
370 3.58275
375 4.57286
380 5.06655
385 3.82775
390 3.2587
395 2.41894
400 3.82008
405 4.93958
410 7.16185
415 3.48871
420 2.59394
425 2.48737
430 1.80958
435 2.75915
440 2.63902
445 3.9419
450 5.92368
455 3.17462
460 3.22243
465 5.31153
470 2.88627
475 4.2245
480 4.87005
485 2.85027
490 3.69612
495 3.44224
500 3.19635
505 4.66815
510 4.7454
515 4.12889
520 5.191
525 2.6218
530 5.53335
535 1.79282
540 1.07008
545 2.95446
550 4.14941
555 2.73201
560 2.24914
565 2.30254
570 2.73515
575 2.0436
580 1.5536
585 1.62191
590 2.53561
595 3.27575
600 0.372768
Ex : 233
200 2.21782
205 2.00122
210 1.53548
215 2.84677
220 1.58859
225 1.81645
230 4.14539
235 2.3004
240 2.50007
245 2.93845
250 3.33455
255 4.62943
260 1.73648
265 2.57987
270 2.46206
275 2.61074
280 2.92112
285 2.58127
290 1.8446
295 1.96909
300 5.80527
305 4.18771
310 3.05459
315 4.16233
320 3.57071
325 2.0597
330 1.5497
335 1.73533
340 3.17792
345 4.15421
350 2.40541
355 4.87756
360 5.70304
365 3.80687
370 1.66137
375 2.09394
380 6.58432
385 2.98085
390 4.73614
395 3.04831
400 3.25474
405 3.84389
410 3.88944
415 1.74058
420 2.64679
425 2.08813
430 2.25419
435 2.8784
440 2.92647
445 1.83424
450 4.35757
455 4.0714
460 5.11471
465 3.4051
470 2.43002
475 2.9215
480 4.42587
485 5.12732
490 2.77144
495 2.43858
500 3.68488
505 6.2673
510 2.60256
515 1.99286
520 6.18509
525 5.65372
530 3.36275
535 3.21762
540 2.21241
545 4.13846
550 5.53088
555 1.98422
560 2.63052
565 1.49144
570 3.21282
575 3.30287
580 5.43862
585 2.33192
590 1.98074
595 1.1993
600 0.136476
Ex : 238
200 1.83824
205 1.80354
210 3.8538
215 2.50636
220 1.23529
225 3.14185
230 4.30135
235 4.83228
240 2.4819
245 1.48421
250 4.41443
255 2.60973
260 2.39699
265 2.69839
270 2.05625
275 2.23341
280 1.42889
285 2.85714
290 3.23447
295 2.97525
300 1.4141
305 2.65804
310 1.17631
315 2.90161
320 3.55614
325 1.97749
330 1.90504
335 1.48898
340 2.5909
345 1.97784
350 2.81125
355 1.95035
360 2.64973
365 1.37968
370 3.60687
375 1.42917
380 1.65095
385 2.3696
390 2.69527
395 5.41974
400 4.02716
405 4.22149
410 3.97742
415 2.0519
420 2.45761
425 1.95408
430 2.60176
435 3.28262
440 2.162
445 2.82407
450 6.93755
455 3.1818
460 1.40864
465 4.6512
470 3.49724
475 2.26837
480 3.63779
485 3.74677
490 2.86445
495 3.84081
500 1.91694
505 1.17852
510 5.83851
515 3.1987
520 3.01841
525 2.47631
530 4.2017
535 3.99102
540 1.78557
545 2.37228
550 1.56082
555 3.17676
560 3.35811
565 2.20567
570 1.63569
575 3.04404
580 3.24408
585 2.16689
590 3.00715
595 3.64108
600 1.65503
Ex : 243
200 1.09465
205 2.8718
210 2.24282
215 1.75552
220 1.3412
225 1.10841
230 3.41114
235 2.62495
240 3.83994
245 3.29212
250 2.08347
255 1.68977
260 4.21348
265 3.56097
270 2.5472
275 3.66176
280 1.60061
285 2.01861
290 1.99085
295 0.90384
300 0.963529
305 2.34997
310 1.99921
315 2.86825
320 2.99221
325 3.08593
330 2.72634
335 4.06775
340 2.86042
345 2.31494
350 2.54779
355 2.76519
360 4.87824
365 2.17561
370 2.07211
375 1.97778
380 2.34052
385 1.86011
390 1.8427
395 2.03153
400 4.81474
405 2.85347
410 1.74897
415 2.3653
420 1.91599
425 3.57837
430 3.42528
435 2.73084
440 3.40904
445 2.48066
450 2.82968
455 2.54098
460 4.97285
465 3.22081
470 2.17466
475 2.26226
480 3.85045
485 3.6489
490 2.55447
495 4.04703
500 1.62497
505 1.01529
510 1.76906
515 1.08371
520 2.11455
525 1.07279
530 2.11429
535 2.06263
540 3.21458
545 4.05645
550 2.60881
555 4.15133
560 2.25571
565 2.84849
570 2.26819
575 1.54867
580 2.11826
585 1.06395
590 2.98313
595 3.14971
600 2.13083
Ex : 248
200 1.22759
205 3.41743
210 2.04676
215 2.64088
220 0.97093
225 1.23022
230 2.3648
235 2.68356
240 2.87631
245 1.72751
250 1.57412
255 1.89746
260 1.70265
265 3.65204
270 2.12338
275 3.74602
280 4.84781
285 4.93478
290 1.7778
295 2.09268
300 1.94659
305 1.78714
310 1.46636
315 1.03774
320 2.10973
325 1.5585
330 2.7554
335 1.99584
340 2.92375
345 2.51296
350 1.71685
355 3.77064
360 1.91231
365 1.57706
370 2.76857
375 2.57502
380 1.87808
385 2.001
390 3.26701
395 2.05588
400 1.16696
405 1.76278
410 1.56197
415 2.54718
420 2.82056
425 1.3419
430 1.92216
435 1.02609
440 2.89136
445 3.37914
450 2.61491
455 4.04947
460 2.83828
465 1.30032
470 1.68552
475 1.13749
480 2.05107
485 2.3634
490 3.31773
495 1.37081
500 2.55485
505 2.78392
510 1.46365
515 2.80105
520 4.27074
525 1.876
530 1.59991
535 3.43946
540 2.97616
545 2.18545
550 1.38988
555 1.40704
560 3.75761
565 2.63287
570 1.40885
575 1.91506
580 1.25083
585 2.13089
590 2.07048
595 1.25277
600 0.14256
Ex : 253
200 0.77809
205 2.0747
210 1.66952
215 1.34622
220 1.12802
225 1.28761
230 1.34436
235 1.29838
240 1.62722
245 0.710151
250 1.06302
255 0.616849
260 0.531708
265 0.720181
270 1.54769
275 2.1156
280 1.07111
285 0.475867
290 1.03453
295 0.868181
300 0.594971
305 1.59775
310 0.992549
315 0.620054
320 1.9738
325 1.81229
330 1.56572
335 1.75727
340 2.73161
345 1.84561
350 1.7764
355 3.17692
360 2.61437
365 0.970633
370 1.02359
375 1.46311
380 2.86266
385 2.33189
390 2.04027
395 0.987628
400 2.78594
405 1.00546
410 2.05563
415 1.35175
420 1.21973
425 1.26259
430 2.41176
435 1.47751
440 1.06164
445 1.36461
450 2.4715
455 2.6668
460 2.30882
465 1.60899
470 1.23132
475 1.70934
480 2.01935
485 2.20671
490 1.51313
495 1.7926
500 1.9247
505 2.49428
510 1.38116
515 0.859354
520 1.38143
525 1.63748
530 2.28309
535 2.05937
540 1.87592
545 2.35575
550 1.43245
555 1.46408
560 2.09122
565 1.00685
570 1.92942
575 1.19515
580 0.716198
585 0.725559
590 2.12992
595 1.11876
600 0.127311
Ex : 258
200 1.23673
205 1.62765
210 1.18494
215 1.08845
220 1.24465
225 1.0421
230 0.618702
235 2.11295
240 1.24678
245 1.36437
250 1.04938
255 1.377
260 1.75883
265 2.10737
270 0.968116
275 2.08363
280 0.897178
285 1.08032
290 0.915751
295 0.639089
300 1.91627
305 1.70789
310 1.17054
315 0.880317
320 1.98481
325 0.762302
330 1.35416
335 1.43929
340 0.621624
345 0.698711
350 1.28249
355 1.55389
360 0.587792
365 2.19814
370 0.905418
375 1.92063
380 0.737457
385 1.32698
390 2.06113
395 1.9851
400 2.00024
405 3.75868
410 1.43038
415 1.58667
420 2.58512
425 1.99125
430 1.07181
435 3.13663
440 0.721264
445 1.00883
450 1.06226
455 2.07882
460 1.95673
465 1.78575
470 2.0854
475 2.3005
480 2.99686
485 1.40487
490 1.01392
495 1.96452
500 0.748203
505 2.36967
510 1.08119
515 1.20948
520 2.46809
525 2.09758
530 1.81731
535 1.90736
540 1.4248
545 1.04043
550 2.26604
555 1.39174
560 1.35724
565 1.0946
570 0.973347
575 1.1129
580 1.17363
585 1.52274
590 0.853438
595 1.21189
600 0.137909
Ex : 263
200 0.620339
205 1.1575
210 0.791466
215 1.42712
220 1.98814
225 1.77633
230 0.705699
235 0.995591
240 0.767722
245 1.68564
250 1.27203
255 1.70811
260 0.627631
265 1.50346
270 0.845707
275 0.920226
280 0.430073
285 1.32105
290 0.874293
295 0.648667
300 0.857294
305 1.6817
310 0.776542
315 1.45434
320 1.09858
325 0.83548
330 1.7001
335 1.14565
340 0.734257
345 0.758831
350 0.989392
355 1.00488
360 1.09604
365 0.937339
370 1.57018
375 1.23912
380 1.0865
385 1.92365
390 1.30154
395 1.5316
400 1.64356
405 1.90453
410 1.02085
415 2.4417
420 1.08477
425 1.39521
430 1.61722
435 1.05374
440 1.30255
445 1.31586
450 1.06619
455 1.83425
460 1.31187
465 1.00429
470 0.905263
475 2.23636
480 1.4684
485 1.01748
490 1.01267
495 0.929162
500 0.700103
505 0.734026
510 1.78682
515 1.2281
520 1.16158
525 1.86646
530 0.861769
535 1.11328
540 1.68472
545 1.17876
550 1.57326
555 0.5929
560 0.810837
565 0.852941
570 0.919409
575 0.378126
580 0.277523
585 0.911555
590 0.511931
595 1.55138
600 0.176542
Ex : 268
200 1.84345
205 0.394704
210 0.432104
215 0.954459
220 0.50143
225 0.98518
230 1.48983
235 0.828234
240 0.528595
245 0.811633
250 0.700728
255 0.713782
260 1.14634
265 0.644785
270 0.97759
275 1.30462
280 0.570347
285 0.59066
290 1.45342
295 1.49531
300 0.522018
305 0.484196
310 0.392874
315 0.974924
320 0.78933
325 1.40629
330 0.823782
335 1.07494
340 0.562436
345 0.76401
350 0.586571
355 0.372586
360 0.629144
365 0.847928
370 0.877797
375 0.679841
380 0.52894
385 1.06851
390 0.896722
395 1.16806
400 0.724914
405 1.88664
410 1.06382
415 1.91185
420 0.599587
425 0.744704
430 1.3394
435 0.907555
440 0.770364
445 0.703253
450 1.08109
455 1.20576
460 1.89138
465 1.08002
470 0.760627
475 1.20672
480 0.979273
485 0.931117
490 0.679028
495 0.832762
500 0.755583
505 0.57937
510 0.794613
515 1.02532
520 1.36926
525 1.0958
530 0.952949
535 0.92927
540 1.39355
545 1.1707
550 1.10683
555 1.01216
560 0.608175
565 1.17875
570 0.995021
575 1.42991
580 0.674588
585 1.07631
590 0.602456
595 0.879109
600 0.100039
Ex : 273
200 0.343511
205 0.446763
210 0.417242
215 0.509552
220 0.689173
225 0.518618
230 0.490981
235 1.10788
240 1.1174
245 0.698714
250 0.145047
255 0.442117
260 0.380176
265 0.583443
270 0.600837
275 0.956535
280 1.06256
285 0.277533
290 1.00486
295 0.372825
300 0.96385
305 0.391435
310 0.292289
315 0.810734
320 0.463137
325 0.609937
330 0.635071
335 0.75689
340 0.463426
345 1.04127
350 0.615584
355 0.566018
360 0.413639
365 0.510291
370 0.697074
375 0.813635
380 1.16842
385 0.659631
390 1.24009
395 0.922775
400 1.1979
405 0.787287
410 1.02867
415 0.564454
420 0.749512
425 1.04759
430 0.506201
435 0.361308
440 1.01947
445 0.599932
450 0.722442
455 0.593594
460 1.00065
465 0.88807
470 1.00756
475 0.668291
480 0.542011
485 0.585695
490 0.482643
495 1.19281
500 0.533269
505 1.01446
510 0.602658
515 0.388977
520 0.464705
525 0.507619
530 0.364191
535 0.624297
540 0.77078
545 0.642688
550 0.555624
555 0.664476
560 0.404054
565 1.14351
570 0.560154
575 0.480499
580 0.450411
585 0.779174
590 0.630556
595 0.520662
600 0.0592493
Ex : 278
200 0.533981
205 0.685244
210 0.476494
215 0.374663
220 0.430151
225 1.02999
230 0.38196
235 0.353283
240 1.3795
245 0.596134
250 0.351487
255 0.289342
260 0.285673
265 0.438951
270 0.633878
275 0.347806
280 0.564853
285 0.410439
290 0.162996
295 0.299845
300 0.379065
305 0.610338
310 0.631033
315 0.470442
320 0.46103
325 0.267446
330 0.522322
335 0.375996
340 0.47487
345 0.405844
350 0.506755
355 0.209359
360 0.714937
365 1.13711
370 0.337776
375 0.50226
380 0.565697
385 0.600989
390 0.423029
395 0.582549
400 0.856754
405 0.42098
410 0.640828
415 0.653844
420 0.536286
425 1.11599
430 0.596781
435 0.702054
440 0.538547
445 1.14912
450 0.532426
455 0.558535
460 0.589043
465 0.531458
470 0.876511
475 0.555143
480 0.379445
485 1.2563
490 0.605642
495 0.30724
500 0.762044
505 0.567304
510 0.881737
515 0.402345
520 0.451929
525 0.685788
530 0.3317
535 0.29788
540 0.420232
545 0.827555
550 0.707577
555 0.326334
560 0.426746
565 0.575666
570 0.88729
575 0.539308
580 0.449282
585 0.57098
590 0.318958
595 0.335123
600 0.344899
Ex : 283
200 0.549712
205 0.440389
210 0.423595
215 0.410414
220 0.277181
225 0.278946
230 0.364398
235 0.646378
240 0.287059
245 0.633784
250 0.350439
255 0.360476
260 0.23919
265 0.7206
270 0.215031
275 0.842504
280 0.379329
285 0.176847
290 0.452435
295 0.740393
300 0.664279
305 0.27173
310 0.225248
315 0.527617
320 0.317537
325 0.417431
330 0.538966
335 0.396424
340 0.462838
345 0.372596
350 0.302588
355 0.296697
360 0.379967
365 0.564345
370 0.713973
375 0.416515
380 0.449683
385 0.704982
390 0.69887
395 0.513788
400 0.453427
405 0.557814
410 0.422802
415 0.719143
420 0.792483
425 0.862015
430 0.710754
435 0.671033
440 0.612403
445 0.662029
450 1.02554
455 0.840708
460 0.738232
465 0.404425
470 0.454788
475 0.371229
480 0.280261
485 1.03552
490 0.685767
495 0.316682
500 0.563164
505 0.608041
510 0.641847
515 0.515159
520 0.473202
525 0.397129
530 0.188149
535 0.44388
540 0.25876
545 0.398044
550 0.480854
555 0.267824
560 1.02802
565 0.232919
570 0.31861
575 0.843301
580 0.539066
585 0.279975
590 0.4593
595 0.3713
600 0.0422525
Ex : 288
200 0.295261
205 0.344894
210 0.298108
215 0.358357
220 0.37657
225 0.254605
230 0.60957
235 0.891534
240 0.414167
245 0.270854
250 0.252237
255 0.260029
260 0.225204
265 0.430857
270 0.205483
275 0.353133
280 0.298775
285 0.295157
290 0.454113
295 0.190774
300 0.549109
305 0.315609
310 0.296883
315 0.371541
320 0.354769
325 0.253365
330 0.277209
335 0.629908
340 0.301336
345 0.238925
350 0.297973
355 0.354934
360 0.85926
365 0.453031
370 0.465733
375 0.700672
380 0.583234
385 0.722258
390 0.429368
395 0.835986
400 0.724702
405 0.661593
410 0.642392
415 0.430712
420 0.575857
425 0.331447
430 0.428386
435 0.559415
440 0.558475
445 0.740529
450 0.682759
455 0.490493
460 0.250083
465 0.480313
470 0.656864
475 0.417319
480 0.263199
485 0.371594
490 0.342223
495 0.267448
500 0.602797
505 0.429419
510 0.251318
515 0.380697
520 0.37469
525 0.367346
530 0.440649
535 0.330602
540 0.238933
545 0.241383
550 0.293873
555 0.333404
560 0.549715
565 0.484121
570 0.39435
575 0.391414
580 0.583545
585 0.425429
590 0.537016
595 0.512634
600 0.827934
Ex : 293
200 0.277233
205 0.458478
210 0.273028
215 0.319375
220 0.36577
225 0.462038
230 0.419859
235 0.449758
240 0.383914
245 0.261759
250 0.292522
255 0.174117
260 0.165973
265 0.13349
270 0.174074
275 0.384085
280 0.452083
285 0.419042
290 0.433112
295 0.639162
300 0.182005
305 0.340022
310 0.17821
315 0.112765
320 0.22465
325 0.405565
330 0.187851
335 0.228434
340 0.355327
345 0.460778
350 0.532191
355 0.508991
360 0.360392
365 0.382251
370 0.329341
375 0.371267
380 0.948084
385 0.469566
390 0.351299
395 0.446926
400 0.733017
405 0.51391
410 0.688007
415 0.462144
420 0.270271
425 0.573282
430 0.95238
435 0.608263
440 0.596337
445 0.564135
450 0.403326
455 0.508002
460 0.424997
465 0.596374
470 0.597454
475 0.527709
480 0.371234
485 0.699482
490 0.316229
495 0.449455
500 0.322613
505 0.194032
510 0.397764
515 0.65193
520 0.473675
525 0.52887
530 0.464969
535 0.285123
540 0.190812
545 0.281351
550 0.318099
555 0.356585
560 0.20599
565 0.11406
570 0.128167
575 0.342565
580 0.85937
585 0.307622
590 0.276867
595 0.297601
600 0.154712
Ex : 298
200 0.0902154
205 0.433928
210 0.199897
215 0.17923
220 0.153346
225 0.122874
230 0.274607
235 0.139723
240 0.189261
245 0.18992
250 0.232823
255 0.439815
260 0.157199
265 0.21634
270 0.116587
275 0.329134
280 0.152592
285 0.0781074
290 0.30968
295 0.136028
300 0.300144
305 0.171767
310 0.201456
315 0.288504
320 0.265258
325 0.207106
330 0.285263
335 0.224694
340 0.281282
345 0.443446
350 0.403415
355 0.469133
360 0.392441
365 0.434524
370 0.517858
375 0.506419
380 0.409869
385 0.540009
390 0.459076
395 0.515639
400 0.443445
405 0.933054
410 0.78818
415 0.619014
420 0.421708
425 0.306013
430 0.333589
435 0.412464
440 0.536002
445 0.867072
450 0.642696
455 0.329913
460 0.391702
465 0.437548
470 0.310604
475 0.596153
480 0.634723
485 0.488628
490 0.428043
495 0.270563
500 0.432476
505 0.347425
510 0.370046
515 0.381431
520 0.373306
525 0.155889
530 0.324022
535 0.313055
540 0.268985
545 0.245253
550 0.156525
555 0.213807
560 0.196648
565 0.189594
570 0.20212
575 0.226767
580 0.21709
585 0.35042
590 0.253207
595 0.279535
600 0.03181
Ex : 303
200 0.0663562
205 0.0796313
210 0.111101
215 0.320453
220 0.300263
225 0.111033
230 0.301069
235 0.101497
240 0.203302
245 0.293177
250 0.134672
255 0.157007
260 0.186138
265 0.107321
270 0.131276
275 0.377887
280 0.206768
285 0.230125
290 0.171931
295 0.143703
300 0.363734
305 0.1312
310 0.218011
315 0.221666
320 0.14975
325 0.350279
330 0.480679
335 0.366802
340 0.210934
345 0.408531
350 0.362793
355 0.280226
360 0.480709
365 0.380049
370 0.254598
375 0.278714
380 0.289774
385 0.517775
390 0.546281
395 0.599151
400 0.755909
405 0.478074
410 0.362239
415 0.438988
420 0.378166
425 0.385935
430 0.426811
435 0.786497
440 0.4515
445 0.299254
450 0.228443
455 0.424372
460 0.428941
465 0.253884
470 0.483612
475 0.366018
480 0.217995
485 0.315468
490 0.47516
495 0.298219
500 0.514135
505 0.355174
510 0.160043
515 0.417211
520 0.411057
525 0.115269
530 0.178467
535 0.193539
540 0.394834
545 0.220013
550 0.729491
555 0.138227
560 0.262398
565 0.204964
570 0.108037
575 0.24901
580 0.124761
585 0.329491
590 0.324643
595 0.243149
600 0.899345
Ex : 308
200 0.177507
205 0.182781
210 0.143952
215 0.151854
220 0.206814
225 0.13633
230 0.16495
235 0.270191
240 0.260074
245 0.268667
250 0.0784271
255 0.240002
260 0.139378
265 0.454126
270 0.247805
275 0.217107
280 0.203342
285 0.121743
290 0.126993
295 0.29488
300 0.26251
305 0.178079
310 0.471268
315 0.207619
320 0.290942
325 0.311324
330 0.270927
335 0.360348
340 0.240303
345 0.300888
350 0.262527
355 0.37892
360 0.401062
365 0.540406
370 0.366423
375 0.570087
380 0.532466
385 0.452356
390 0.508245
395 0.642186
400 0.662266
405 0.558665
410 0.357754
415 0.738867
420 0.512458
425 0.369799
430 0.525243
435 0.740008
440 0.4809
445 0.390715
450 0.292623
455 0.396808
460 0.26496
465 0.252009
470 0.242422
475 0.299165
480 0.192229
485 0.330253
490 0.413133
495 0.23089
500 0.405469
505 0.26525
510 0.436767
515 0.367398
520 0.239247
525 0.0783583
530 0.205339
535 0.301278
540 0.187776
545 0.250312
550 0.389508
555 0.192177
560 0.165965
565 0.10075
570 0.31746
575 0.101737
580 0.151312
585 0.219154
590 0.251912
595 0.17125
600 1.09559
Ex : 313
200 0.191667
205 0.102253
210 0.0890326
215 0.138065
220 0.115946
225 0.0749054
230 0.248745
235 0.223702
240 0.10795
245 0.148603
250 0.262725
255 0.0967194
260 0.0559722
265 0.115555
270 0.0967992
275 0.125776
280 0.123688
285 0.0842589
290 0.322632
295 0.239184
300 0.237445
305 0.380229
310 0.4574
315 0.245433
320 0.215017
325 0.319958
330 0.401459
335 0.212367
340 0.322598
345 0.499285
350 0.370625
355 0.541566
360 0.452616
365 0.503286
370 0.875839
375 0.545814
380 0.54117
385 0.891078
390 0.65235
395 0.955116
400 1.05346
405 0.754908
410 1.04692
415 1.14049
420 0.99163
425 0.650265
430 0.795333
435 0.76098
440 0.687959
445 0.75421
450 0.78641
455 0.690956
460 0.598995
465 0.485578
470 0.626472
475 0.528115
480 0.804698
485 0.496457
490 0.53862
495 0.455574
500 0.448121
505 0.40061
510 0.460412
515 0.330853
520 0.469193
525 0.352868
530 0.178265
535 0.308056
540 0.184269
545 0.17018
550 0.160725
555 0.294647
560 0.0978167
565 0.127596
570 0.173712
575 0.0928458
580 0.0762595
585 0.115863
590 0.102789
595 0.142147
600 0.117136
Ex : 318
200 0.0963824
205 0.171264
210 0.352819
215 0.371734
220 0.348037
225 0.188138
230 0.237355
235 0.126108
240 0.0881612
245 0.187558
250 0.196728
255 0.109321
260 0.155034
265 0.102909
270 0.204785
275 0.187986
280 0.0921653
285 0.229149
290 0.113964
295 0.129925
300 0.108665
305 0.214118
310 0.249572
315 0.75189
320 0.59244
325 0.378652
330 0.406769
335 0.613826
340 1.02804
345 1.39814
350 2.1835
355 2.68111
360 3.61903
365 4.13945
370 5.56101
375 6.27196
380 7.10272
385 8.39273
390 8.82966
395 9.19493
400 9.31506
405 9.69098
410 10.3851
415 9.89911
420 9.73986
425 9.08017
430 8.22813
435 8.31312
440 7.97441
445 7.69687
450 7.48877
455 6.25379
460 5.63889
465 5.56944
470 5.22911
475 4.73431
480 3.82772
485 3.35937
490 3.20837
495 3.22388
500 2.55743
505 2.10255
510 1.8484
515 1.7628
520 1.30623
525 1.19407
530 0.728974
535 0.680875
540 0.616786
545 0.72667
550 0.559716
555 0.424599
560 0.37556
565 0.330084
570 0.19061
575 0.203323
580 0.255063
585 0.245322
590 0.227721
595 0.252535
600 0.186285
Ex : 323
200 0.0433962
205 0.120675
210 0.156279
215 0.0975402
220 0.148343
225 0.141758
230 0.0527638
235 0.173117
240 0.111501
245 0.270062
250 0.108169
255 0.124189
260 0.086287
265 0.178147
270 0.0722026
275 0.143233
280 0.195216
285 0.0539928
290 0.227854
295 0.194027
300 0.0943107
305 0.0960487
310 0.269781
315 6.7101
320 33.2851
325 13.7001
330 2.8822
335 2.57625
340 4.23799
345 5.84839
350 8.51145
355 12.5733
360 14.7399
365 18.0801
370 20.9775
375 24.2202
380 28.1108
385 31.6936
390 32.8257
395 35.7753
400 35.8327
405 37.5807
410 38.0833
415 37.4365
420 35.6749
425 35.4553
430 32.7605
435 31.932
440 30.8109
445 29.6246
450 27.716
455 25.534
460 24.3161
465 22.5983
470 20.5483
475 19.0893
480 17.3691
485 15.0734
490 13.7713
495 12.5917
500 11.1344
505 9.2494
510 8.38734
515 7.42657
520 5.85697
525 4.58988
530 4.22034
535 3.47307
540 3.0823
545 2.58714
550 2.20664
555 1.97236
560 1.47465
565 1.13502
570 1.20826
575 0.856419
580 0.600307
585 0.433755
590 0.407937
595 0.224922
600 0.0255953
Ex : 328
200 0.12165
205 0.202486
210 0.134524
215 0.0836526
220 0.142955
225 0.14007
230 0.0844309
235 0.100496
240 0.155883
245 0.110534
250 0.0659824
255 0.12506
260 0.115031
265 0.0871288
270 0.0786672
275 0.0637824
280 0.189394
285 0.120543
290 0.123879
295 0.100991
300 0.154336
305 0.12141
310 0.221837
315 1.90292
320 75.503
325 187.999
330 56.0926
335 9.48871
340 5.09755
345 6.80153
350 8.78769
355 12.5069
360 18.2405
365 19.7779
370 22.3989
375 25.202
380 28.9044
385 32.8016
390 36.0985
395 37.9409
400 39.1253
405 39.2397
410 40.4551
415 39.8519
420 38.1009
425 37.1542
430 35.9786
435 33.3164
440 31.3357
445 30.2049
450 28.0784
455 25.8938
460 24.0537
465 22.584
470 20.7792
475 19.8208
480 17.564
485 15.9156
490 14.4364
495 12.264
500 11.6002
505 9.5068
510 8.51152
515 7.2038
520 6.32014
525 5.41537
530 4.84156
535 3.86146
540 3.34211
545 2.98418
550 2.50725
555 2.06757
560 1.5082
565 1.26918
570 0.94644
575 0.817043
580 0.706502
585 0.460415
590 0.445758
595 0.321505
600 0.036586
Ex : 333
200 0.0665766
205 0.106367
210 0.0594717
215 0.049445
220 0.263028
225 0.160545
230 0.116505
235 0.143085
240 0.0891048
245 0.128266
250 0.0938572
255 0.168474
260 0.0898484
265 0.110656
270 0.0737453
275 0.0863227
280 0.170339
285 0.200158
290 0.1581
295 0.085776
300 0.141146
305 0.198349
310 0.117657
315 0.190664
320 10.1603
325 219.214
330 378.247
335 96.5333
340 14.7637
345 6.04682
350 5.73954
355 6.60658
360 9.43796
365 14.2901
370 14.5035
375 14.4106
380 16.1621
385 18.7608
390 22.2897
395 23.152
400 23.5152
405 23.0227
410 24.8302
415 24.2809
420 22.8797
425 21.6462
430 20.0398
435 19.387
440 18.7247
445 17.2145
450 16.0064
455 14.6576
460 13.7374
465 13.1301
470 11.8908
475 10.6859
480 9.63486
485 8.6566
490 8.12252
495 6.81521
500 6.05022
505 5.34213
510 4.68735
515 3.68855
520 3.70979
525 3.48345
530 2.78407
535 2.18526
540 2.01662
545 1.6854
550 1.35174
555 1.12121
560 1.0295
565 0.996639
570 0.809888
575 0.633148
580 0.395148
585 0.435164
590 0.402344
595 0.358786
600 0.0478618
Ex : 338
200 0.11664
205 0.142362
210 0.0796797
215 0.180798
220 0.112803
225 0.13059
230 0.102302
235 0.142071
240 0.0803643
245 0.103962
250 0.0983349
255 0.158761
260 0.111835
265 0.0858878
270 0.21018
275 0.15288
280 0.126977
285 0.1093
290 0.116494
295 0.159084
300 0.185594
305 0.106785
310 0.165177
315 0.115628
320 0.255742
325 19.6268
330 319.133
335 476.779
340 118.239
345 16.312
350 5.2086
355 3.67983
360 3.49533
365 5.40582
370 10.0654
375 10.4222
380 9.21562
385 9.86815
390 11.9793
395 13.5766
400 13.8344
405 13.1484
410 14.6704
415 15.0601
420 14.336
425 12.8039
430 11.6206
435 11.3619
440 11.2218
445 10.9129
450 9.7305
455 8.57795
460 7.94028
465 7.09384
470 6.67213
475 6.36335
480 5.60559
485 4.84348
490 4.77356
495 4.00655
500 3.90293
505 3.56778
510 2.85962
515 2.46485
520 2.37728
525 2.1043
530 1.86776
535 1.63495
540 1.35948
545 1.30711
550 1.13832
555 1.0019
560 0.78707
565 0.685231
570 0.694676
575 0.646378
580 0.387164
585 0.451186
590 0.351942
595 0.210263
600 1.99983
Ex : 343
200 0.144363
205 0.142234
210 0.135425
215 0.0853406
220 0.0847748
225 0.0984956
230 0.110843
235 0.181564
240 0.163424
245 0.123108
250 0.159644
255 0.0724678
260 0.147925
265 0.122871
270 0.0719728
275 0.0681503
280 0.117978
285 0.0685828
290 0.156569
295 0.0908808
300 0.106333
305 0.155805
310 0.160684
315 0.194758
320 0.277848
325 0.474435
330 23.2757
335 376.54
340 543.335
345 131.424
350 17.2521
355 4.5886
360 2.66728
365 2.32252
370 3.03658
375 7.61521
380 8.7782
385 9.29329
390 10.1129
395 10.9086
400 10.1205
405 10.4086
410 11.9049
415 12.3705
420 11.5673
425 10.5398
430 9.69215
435 9.55208
440 9.49682
445 8.64302
450 7.85014
455 7.35092
460 6.69137
465 6.4629
470 5.7209
475 5.53863
480 4.94924
485 4.1694
490 3.74047
495 3.40094
500 3.17725
505 2.71379
510 2.33012
515 2.11454
520 2.16121
525 1.91843
530 1.58269
535 1.12647
540 1.20115
545 1.0787
550 0.914592
555 0.750443
560 0.646831
565 0.71619
570 0.67883
575 0.451209
580 0.412471
585 0.400622
590 0.322696
595 0.215074
600 0.0244747
Ex : 348
200 0.149429
205 0.113005
210 0.18356
215 0.0829424
220 0.188122
225 0.116865
230 0.0815192
235 0.0617681
240 0.0787449
245 0.0901798
250 0.139778
255 0.117239
260 0.0673974
265 0.205906
270 0.123339
275 0.157667
280 0.108582
285 0.0872412
290 0.0757238
295 0.0964866
300 0.140234
305 0.163702
310 0.194372
315 0.10971
320 0.214922
325 0.24249
330 0.522748
335 22.6709
340 367.855
345 560.205
350 141.972
355 18.3724
360 4.41823
365 2.47348
370 1.66572
375 2.5432
380 6.98714
385 12.6642
390 13.382
395 13.0238
400 11.3991
405 12.39
410 14.3693
415 15.541
420 14.2031
425 12.477
430 11.359
435 10.9848
440 11.4764
445 10.1558
450 8.83157
455 8.19407
460 7.56744
465 6.82499
470 6.34435
475 5.90343
480 5.45179
485 5.0289
490 4.2091
495 4.08541
500 3.39974
505 3.06987
510 2.90245
515 2.54901
520 2.12652
525 1.94186
530 1.74312
535 1.49392
540 1.2879
545 1.17594
550 0.928728
555 0.809899
560 0.744976
565 0.551212
570 0.563303
575 0.395416
580 0.34259
585 0.492477
590 0.28194
595 0.240354
600 0.0273514
Ex : 353
200 0.13164
205 0.102352
210 0.0625148
215 0.100966
220 0.17561
225 0.117032
230 0.138026
235 0.157825
240 0.0652498
245 0.0712309
250 0.107755
255 0.107567
260 0.130523
265 0.104763
270 0.0993864
275 0.154648
280 0.0898202
285 0.184317
290 0.20902
295 0.260438
300 0.153279
305 0.0690329
310 0.14469
315 0.143412
320 0.190333
325 0.170729
330 0.283685
335 0.498074
340 25.5948
345 405.789
350 567.554
355 141.072
360 17.8416
365 3.64417
370 2.33544
375 1.95903
380 3.17122
385 8.4232
390 15.8396
395 16.3984
400 14.1471
405 13.1617
410 14.3912
415 16.8612
420 16.3162
425 13.8871
430 12.4976
435 12.0529
440 11.6362
445 11.2766
450 9.56144
455 9.0003
460 8.04075
465 7.58502
470 7.07735
475 6.51816
480 5.79402
485 5.08041
490 4.75031
495 4.31693
500 3.67514
505 3.62943
510 3.16756
515 2.69114
520 2.43349
525 2.17934
530 2.05329
535 1.77676
540 1.42277
545 1.47977
550 1.1872
555 1.03808
560 0.916436
565 0.747499
570 0.557534
575 0.530341
580 0.41974
585 0.418478
590 0.399621
595 0.273757
600 0.0311525
Ex : 358
200 0.0745436
205 0.0771008
210 0.0727081
215 0.0759308
220 0.116193
225 0.0583045
230 0.0788692
235 0.128754
240 0.0689506
245 0.0706073
250 0.0765413
255 0.0465483
260 0.0991769
265 0.148804
270 0.0460333
275 0.0966623
280 0.0787974
285 0.107145
290 0.0874193
295 0.101454
300 0.0446805
305 0.0883003
310 0.0708871
315 0.0772415
320 0.131103
325 0.149806
330 0.214272
335 0.238755
340 0.487372
345 24.6946
350 372.81
355 572.874
360 143.036
365 18.0591
370 3.80661
375 2.46098
380 2.95643
385 5.5323
390 10.9453
395 16.1095
400 15.0993
405 13.6526
410 14.0906
415 15.5125
420 15.3748
425 13.3588
430 12.0465
435 11.4465
440 11.4393
445 10.6573
450 9.90399
455 9.01332
460 7.8846
465 7.31268
470 7.21321
475 6.91813
480 5.847
485 5.21839
490 5.01443
495 4.47513
500 4.07302
505 3.55163
510 3.1375
515 2.7863
520 2.48237
525 2.17331
530 1.92397
535 1.81927
540 1.55798
545 1.20754
550 1.094
555 0.936959
560 0.882401
565 0.752892
570 0.686238
575 0.571029
580 0.41989
585 0.367884
590 0.206188
595 0.31781
600 0.403846
Ex : 363
200 0.0577925
205 0.0590665
210 0.062669
215 0.0627302
220 0.0893072
225 0.0497396
230 0.144467
235 0.0666461
240 0.0915104
245 0.137878
250 0.103289
255 0.0635107
260 0.0925061
265 0.0320295
270 0.105565
275 0.128563
280 0.154435
285 0.0679818
290 0.0726111
295 0.0419891
300 0.0828889
305 0.031233
310 0.0640852
315 0.108573
320 0.100124
325 0.185466
330 0.107728
335 0.189204
340 0.267635
345 0.664537
350 21.6246
355 378.285
360 578.006
365 147.118
370 18.5435
375 4.09417
380 4.24158
385 8.01293
390 11.0121
395 13.0102
400 15.4418
405 16.8309
410 17.0555
415 18.0885
420 16.6828
425 14.0235
430 12.7558
435 12.6394
440 12.1998
445 12.216
450 10.3944
455 9.75898
460 8.90138
465 8.24663
470 8.13192
475 7.02355
480 6.69348
485 5.78365
490 5.24471
495 4.77405
500 4.27719
505 3.81177
510 3.3951
515 3.26796
520 2.69183
525 2.48024
530 2.01308
535 1.8272
540 1.66457
545 1.5076
550 1.12258
555 1.11874
560 0.988297
565 0.785296
570 0.668176
575 0.578729
580 0.488219
585 0.292152
590 0.290869
595 0.200412
600 0.30498
Ex : 368
200 0.0918747
205 0.119772
210 0.0970522
215 0.0450122
220 0.0615796
225 0.131276
230 0.112534
235 0.0467927
240 0.0605281
245 0.0629083
250 0.0503472
255 0.0549738
260 0.0521091
265 0.0613852
270 0.110395
275 0.176674
280 0.145695
285 0.0683808
290 0.0739307
295 0.12368
300 0.08817
305 0.133485
310 0.0917465
315 0.0819037
320 0.0895544
325 0.0976355
330 0.085436
335 0.180563
340 0.207334
345 0.259351
350 0.58785
355 17.6882
360 350.672
365 592.104
370 156.521
375 20.1336
380 6.27865
385 9.23999
390 14.1748
395 16.0324
400 15.5493
405 18.385
410 23.4932
415 24.2363
420 21.6069
425 18.1178
430 15.9841
435 15.4955
440 15.8742
445 15.2709
450 13.2735
455 11.5166
460 10.5009
465 9.72793
470 9.06194
475 8.82955
480 7.63721
485 6.82191
490 5.98044
495 5.47893
500 4.62041
505 4.44659
510 3.73191
515 3.63063
520 2.98448
525 2.75819
530 2.47943
535 1.94486
540 1.76429
545 1.58608
550 1.44777
555 1.11756
560 0.921433
565 0.870115
570 0.750485
575 0.571506
580 0.440073
585 0.304203
590 0.313714
595 0.248082
600 0.358265
Ex : 373
200 0.0768187
205 0.0796898
210 0.0818779
215 0.0958984
220 0.0789464
225 0.0433841
230 0.0551521
235 0.0866724
240 0.0993729
245 0.0576908
250 0.0715564
255 0.0364694
260 0.0931234
265 0.0597947
270 0.134462
275 0.103513
280 0.0834685
285 0.119138
290 0.139387
295 0.0579207
300 0.067779
305 0.0591113
310 0.0617381
315 0.110609
320 0.11504
325 0.0761055
330 0.123189
335 0.111139
340 0.141275
345 0.192947
350 0.242793
355 0.364216
360 21.4125
365 357.911
370 591.216
375 155.39
380 21.0635
385 9.09397
390 14.2573
395 17.3459
400 15.6883
405 14.979
410 18.8571
415 25.2181
420 24.053
425 19.338
430 16.0638
435 14.7159
440 15.4928
445 15.1214
450 12.9031
455 11.6369
460 10.2197
465 9.5506
470 8.91277
475 8.47413
480 7.45756
485 6.79518
490 5.98674
495 5.57343
500 4.56176
505 4.20761
510 4.04233
515 3.5488
520 2.96533
525 2.67653
530 2.44025
535 1.97796
540 1.73806
545 1.51693
550 1.26966
555 1.33432
560 1.08617
565 0.83757
570 0.685868
575 0.637747
580 0.38625
585 0.315673
590 0.267642
595 0.224308
600 0.0564845
Ex : 378
200 0.0958231
205 0.067181
210 0.08228
215 0.0645367
220 0.0463703
225 0.0636991
230 0.0826176
235 0.0909411
240 0.10496
245 0.0788538
250 0.107215
255 0.0538982
260 0.0741953
265 0.0523763
270 0.0624426
275 0.0560459
280 0.08778
285 0.048161
290 0.0673311
295 0.0493832
300 0.0444952
305 0.0940096
310 0.064558
315 0.0695131
320 0.155684
325 0.094655
330 0.120615
335 0.134151
340 0.121059
345 0.18562
350 0.230902
355 0.378065
360 0.519039
365 19.4623
370 362.992
375 607.695
380 162.685
385 24.2504
390 12.0502
395 12.8613
400 11.4267
405 11.0104
410 13.008
415 16.7272
420 19.1329
425 15.9848
430 13.4558
435 12.5115
440 11.8327
445 11.8081
450 10.5377
455 9.36875
460 8.5216
465 7.60668
470 7.89721
475 7.15296
480 6.54033
485 6.10756
490 5.5752
495 5.20309
500 4.61887
505 4.1673
510 3.77384
515 3.24055
520 2.90122
525 2.55655
530 2.42434
535 2.03951
540 1.76006
545 1.48626
550 1.32278
555 1.25978
560 1.07662
565 0.891828
570 0.723116
575 0.627718
580 0.439509
585 0.352576
590 0.328136
595 0.215616
600 0.264247
Ex : 383
200 0.0609767
205 0.0362634
210 0.0311639
215 0.0552722
220 0.0583749
225 0.0606908
230 0.0690266
235 0.0542991
240 0.0577637
245 0.065032
250 0.0530224
255 0.0694831
260 0.068328
265 0.0894302
270 0.0537524
275 0.0544904
280 0.0619184
285 0.0552111
290 0.0847197
295 0.124913
300 0.0957789
305 0.0788108
310 0.0471045
315 0.0292667
320 0.0678594
325 0.124587
330 0.0550457
335 0.134628
340 0.105921
345 0.173925
350 0.14258
355 0.146552
360 0.260208
365 0.52867
370 18.5087
375 371.398
380 638.112
385 173.947
390 29.9027
395 13.2998
400 10.8059
405 11.4216
410 14.1848
415 15.5172
420 15.0933
425 15.7113
430 15.1851
435 13.6071
440 13.5374
445 11.9995
450 10.8555
455 9.45788
460 8.91431
465 8.18427
470 8.05363
475 7.28528
480 6.91194
485 6.19015
490 5.43387
495 5.38564
500 4.75147
505 4.23218
510 3.81137
515 3.54402
520 2.86443
525 2.58941
530 2.1647
535 2.09068
540 1.84294
545 1.57301
550 1.37855
555 1.23271
560 0.962722
565 0.865823
570 0.731446
575 0.457758
580 0.574191
585 0.376442
590 0.287518
595 0.282214
600 0.203751
Ex : 388
200 0.0372085
205 0.0132672
210 0.04617
215 0.065995
220 0.0571154
225 0.0479494
230 0.113738
235 0.0733842
240 0.048839
245 0.0854075
250 0.0917183
255 0.0613519
260 0.0602022
265 0.0610784
270 0.0716919
275 0.0764393
280 0.0429282
285 0.0604802
290 0.106538
295 0.0492945
300 0.0558553
305 0.0812001
310 0.0537
315 0.0709037
320 0.0691916
325 0.0733568
330 0.0358213
335 0.120544
340 0.113935
345 0.109714
350 0.0988909
355 0.177184
360 0.168228
365 0.304004
370 0.506097
375 20.2425
380 380.601
385 639.248
390 181.153
395 33.8303
400 15.0107
405 14.211
410 17.1652
415 19.5626
420 18.6513
425 16.2384
430 16.4798
435 17.747
440 16.8499
445 15.0085
450 13.0347
455 11.3535
460 10.2364
465 9.80012
470 9.08564
475 8.48155
480 7.65952
485 6.77459
490 6.07975
495 5.58212
500 5.20306
505 4.62183
510 4.07931
515 3.66101
520 3.15049
525 2.80611
530 2.45271
535 2.12151
540 1.88524
545 1.68525
550 1.49882
555 1.30376
560 1.26781
565 0.986466
570 0.724361
575 0.553306
580 0.498343
585 0.339589
590 0.239619
595 0.214487
600 0.0682126
Ex : 393
200 0.0350501
205 0.0301611
210 0.0591736
215 0.0359274
220 0.0519664
225 0.0797065
230 0.059925
235 0.0316446
240 0.0558567
245 0.0588715
250 0.0727428
255 0.0552695
260 0.0490339
265 0.0870065
270 0.0726533
275 0.054115
280 0.0472525
285 0.0583156
290 0.0360518
295 0.0682913
300 0.0835917
305 0.149966
310 0.050631
315 0.0661915
320 0.037437
325 0.0589916
330 0.0923105
335 0.0773316
340 0.0958222
345 0.0875066
350 0.0897254
355 0.0706875
360 0.134514
365 0.205601
370 0.293084
375 0.702943
380 18.3269
385 373.466
390 621.083
395 181.688
400 33.5305
405 15.1336
410 15.8903
415 19.7632
420 19.7129
425 16.5863
430 14.2564
435 14.9951
440 17.2312
445 15.9584
450 13.6552
455 11.7445
460 9.59539
465 8.96198
470 8.40339
475 8.20637
480 7.51474
485 6.52261
490 5.76301
495 5.33704
500 4.89625
505 4.41036
510 3.84839
515 3.54416
520 3.17658
525 2.76672
530 2.44423
535 2.23566
540 1.89885
545 1.71673
550 1.51403
555 1.22542
560 1.21308
565 0.973203
570 0.944968
575 0.549561
580 0.382162
585 0.348792
590 0.330163
595 0.241757
600 0.150507
Ex : 398
200 0.0577048
205 0.0742697
210 0.0568336
215 0.0482102
220 0.0587248
225 0.066443
230 0.0631948
235 0.0425699
240 0.0856775
245 0.065965
250 0.0663896
255 0.0960305
260 0.0523034
265 0.0460664
270 0.0569628
275 0.0423878
280 0.0785774
285 0.0355526
290 0.0924847
295 0.0668718
300 0.0737498
305 0.0326829
310 0.0466502
315 0.057566
320 0.0674963
325 0.0977665
330 0.0592006
335 0.12509
340 0.0852526
345 0.0822856
350 0.0760804
355 0.115863
360 0.141662
365 0.207553
370 0.24858
375 0.38484
380 0.838122
385 19.0824
390 391.497
395 665.08
400 181.042
405 28.1039
410 11.6459
415 12.3991
420 12.9473
425 10.9022
430 8.93179
435 8.88471
440 10.1962
445 12.4458
450 10.9221
455 9.04987
460 7.67098
465 7.03436
470 6.75454
475 6.30408
480 5.71994
485 5.27383
490 4.87699
495 4.59844
500 4.28291
505 3.8416
510 3.55583
515 3.08491
520 2.76611
525 2.58254
530 2.30793
535 1.8656
540 1.73743
545 1.50759
550 1.27868
555 1.21827
560 1.00796
565 0.86314
570 0.649519
575 0.549521
580 0.405415
585 0.367928
590 0.304114
595 0.213423
600 0.453778
Ex : 403
200 0.0358102
205 0.0475966
210 0.0268732
215 0.0511365
220 0.0614264
225 0.0436968
230 0.0474693
235 0.0392876
240 0.0609234
245 0.0412976
250 0.0236542
255 0.0206
260 0.0549712
265 0.0326259
270 0.0578594
275 0.0487185
280 0.0925605
285 0.0498257
290 0.0558407
295 0.0975653
300 0.0795462
305 0.0431874
310 0.0354205
315 0.0778993
320 0.0526799
325 0.0490589
330 0.0306806
335 0.0905766
340 0.0899628
345 0.0872317
350 0.111968
355 0.150497
360 0.111681
365 0.130144
370 0.142734
375 0.227042
380 0.334268
385 0.890977
390 22.6237
395 390.152
400 645.252
405 178.549
410 25.1665
415 8.42079
420 6.89445
425 6.18008
430 5.61739
435 5.52036
440 6.08972
445 6.62509
450 8.42345
455 8.42174
460 6.51002
465 6.09251
470 5.5791
475 5.07167
480 4.87561
485 4.72718
490 4.28839
495 3.97838
500 3.69973
505 3.31685
510 3.06736
515 2.79019
520 2.67303
525 2.38427
530 2.13677
535 1.94353
540 1.70847
545 1.49862
550 1.2459
555 1.09222
560 1.0375
565 0.865889
570 0.697298
575 0.508712
580 0.474592
585 0.35043
590 0.24729
595 0.194873
600 0.299491
Ex : 408
200 0.0397833
205 0.0962633
210 0.0991911
215 0.0519958
220 0.0485319
225 0.0533182
230 0.0657221
235 0.0313424
240 0.0732762
245 0.0574224
250 0.0472578
255 0.0398677
260 0.0245492
265 0.0552394
270 0.0576981
275 0.042383
280 0.0514085
285 0.0542383
290 0.0622692
295 0.048401
300 0.0442589
305 0.0613504
310 0.0724446
315 0.0350104
320 0.0741734
325 0.0883967
330 0.0525409
335 0.0545006
340 0.0652149
345 0.121475
350 0.0810436
355 0.0849682
360 0.0765824
365 0.089403
370 0.141356
375 0.187339
380 0.186781
385 0.375145
390 0.885329
395 20.6605
400 398.341
405 664.666
410 177.939
415 25.5686
420 7.76555
425 5.68931
430 5.45163
435 5.42757
440 5.60143
445 5.82943
450 5.94988
455 7.17136
460 8.06312
465 6.5548
470 5.8448
475 5.62002
480 4.94882
485 4.65576
490 4.14636
495 3.93398
500 3.69542
505 3.43764
510 3.23998
515 2.85799
520 2.55524
525 2.52717
530 2.09974
535 1.82379
540 1.60498
545 1.53078
550 1.37936
555 1.1295
560 1.04904
565 0.936586
570 0.615402
575 0.672978
580 0.383945
585 0.33377
590 0.301185
595 0.203566
600 0.210689
Ex : 413
200 0.0507763
205 0.0692559
210 0.0685858
215 0.0403378
220 0.0357736
225 0.0424532
230 0.0800068
235 0.0400663
240 0.04097
245 0.0444692
250 0.0845943
255 0.093679
260 0.116378
265 0.0763814
270 0.0775461
275 0.0532271
280 0.0476789
285 0.0791169
290 0.0566197
295 0.0653438
300 0.0597671
305 0.0667306
310 0.139916
315 0.0541142
320 0.0627332
325 0.0663663
330 0.113242
335 0.0726869
340 0.0646811
345 0.103184
350 0.104225
355 0.0779632
360 0.0783864
365 0.0648961
370 0.132612
375 0.15977
380 0.134523
385 0.186023
390 0.372083
395 0.739776
400 22.2749
405 414.455
410 667.858
415 176.498
420 25.0129
425 6.95753
430 4.77213
435 5.08438
440 5.18316
445 5.26457
450 5.04098
455 4.81628
460 5.78433
465 7.50113
470 6.51911
475 5.57128
480 4.88799
485 4.23123
490 3.8419
495 3.61442
500 3.36979
505 3.12155
510 3.20517
515 2.7112
520 2.57962
525 2.12556
530 1.97445
535 1.79053
540 1.56199
545 1.43904
550 1.1972
555 1.12347
560 1.07184
565 0.902851
570 0.778772
575 0.551081
580 0.348457
585 0.340659
590 0.27259
595 0.223746
600 0.242611
Ex : 418
200 0.0703782
205 0.0365551
210 0.0509389
215 0.0779482
220 0.0698524
225 0.0502058
230 0.046433
235 0.0343398
240 0.0667372
245 0.0504469
250 0.0687096
255 0.0324298
260 0.0545043
265 0.0470158
270 0.0244016
275 0.0301288
280 0.0491808
285 0.0369065
290 0.0716436
295 0.0539933
300 0.0669201
305 0.0528527
310 0.0638681
315 0.0476297
320 0.0334548
325 0.0552281
330 0.0680203
335 0.059652
340 0.0397892
345 0.0571451
350 0.0757354
355 0.0667775
360 0.0716873
365 0.112577
370 0.070139
375 0.103922
380 0.133668
385 0.175898
390 0.303433
395 0.395904
400 0.771285
405 21.8174
410 423.127
415 677.768
420 181.29
425 23.6405
430 5.25231
435 3.24179
440 3.6139
445 3.59713
450 3.19384
455 3.0451
460 3.15773
465 3.60197
470 5.61054
475 5.37081
480 4.51143
485 3.6423
490 3.28939
495 3.06129
500 2.93319
505 2.71589
510 2.64457
515 2.32132
520 2.12338
525 1.97476
530 1.81757
535 1.60699
540 1.37366
545 1.30216
550 1.10825
555 0.984601
560 0.882073
565 0.835357
570 0.649017
575 0.485655
580 0.428022
585 0.342031
590 0.281954
595 0.235847
600 0.536989
Ex : 423
200 0.114906
205 0.0448676
210 0.0484199
215 0.0699248
220 0.0356575
225 0.0644288
230 0.0635676
235 0.0319469
240 0.0821616
245 0.0421644
250 0.049323
255 0.0567078
260 0.0454339
265 0.0690245
270 0.0904306
275 0.0431233
280 0.0533721
285 0.0434591
290 0.0670865
295 0.0657674
300 0.0404401
305 0.0225205
310 0.0523689
315 0.0546565
320 0.0491083
325 0.0660981
330 0.096457
335 0.0599288
340 0.0881697
345 0.0711485
350 0.102301
355 0.107551
360 0.132248
365 0.093445
370 0.101065
375 0.0882658
380 0.127946
385 0.123781
390 0.226354
395 0.28794
400 0.35451
405 0.754387
410 22.1734
415 422.567
420 660.955
425 165.216
430 20.8782
435 4.12191
440 1.94634
445 2.29697
450 2.2204
455 1.74248
460 1.92435
465 1.86873
470 2.44389
475 4.14272
480 4.88389
485 3.59959
490 3.282
495 2.78548
500 2.46533
505 2.21808
510 2.1657
515 1.90088
520 1.81695
525 1.67113
530 1.52295
535 1.42238
540 1.42142
545 1.21953
550 1.11427
555 1.0461
560 0.927803
565 0.776643
570 0.700765
575 0.507194
580 0.404564
585 0.344132
590 0.220397
595 0.225918
600 0.135402
Ex : 428
200 0.0662351
205 0.0966251
210 0.025086
215 0.0597746
220 0.0468315
225 0.0653097
230 0.0929473
235 0.0860047
240 0.0707488
245 0.0477127
250 0.0728333
255 0.052655
260 0.0952066
265 0.0464937
270 0.0335476
275 0.0322466
280 0.0709457
285 0.0484893
290 0.0662332
295 0.0923871
300 0.0784492
305 0.0751835
310 0.0658895
315 0.0466968
320 0.0393714
325 0.106909
330 0.0575665
335 0.04559
340 0.0982305
345 0.0623859
350 0.0623413
355 0.0626538
360 0.114572
365 0.09222
370 0.0750541
375 0.0950273
380 0.0912557
385 0.154492
390 0.148525
395 0.209045
400 0.258751
405 0.423659
410 0.801544
415 23.9668
420 411.703
425 665.349
430 178.912
435 22.0401
440 3.84122
445 1.57354
450 1.6968
455 1.54754
460 1.43238
465 1.46646
470 1.50069
475 1.82735
480 2.99029
485 4.40948
490 3.54785
495 2.63458
500 2.60854
505 2.20361
510 1.78618
515 1.68244
520 1.72586
525 1.52295
530 1.32079
535 1.44855
540 1.27002
545 1.08018
550 0.968244
555 0.959985
560 0.823069
565 0.676979
570 0.572805
575 0.507401
580 0.345018
585 0.278497
590 0.248021
595 0.185604
600 0.334246
Ex : 433
200 0.045309
205 0.0450558
210 0.0248443
215 0.040838
220 0.0802839
225 0.0635671
230 0.0684947
235 0.0708307
240 0.0674821
245 0.0678685
250 0.0904621
255 0.0590794
260 0.058924
265 0.0672269
270 0.0657584
275 0.0485658
280 0.0481613
285 0.0482707
290 0.0593641
295 0.0683241
300 0.0755344
305 0.0730921
310 0.0556447
315 0.0798323
320 0.0218178
325 0.0352684
330 0.0681697
335 0.0850609
340 0.090833
345 0.0832721
350 0.0621635
355 0.0510162
360 0.0852449
365 0.127984
370 0.0464144
375 0.094123
380 0.0990877
385 0.0997035
390 0.119399
395 0.107085
400 0.203742
405 0.236579
410 0.353643
415 0.742326
420 27.5964
425 443.149
430 685.904
435 174.24
440 21.3875
445 3.59389
450 1.59864
455 1.59518
460 1.49408
465 1.44555
470 1.2792
475 1.45504
480 1.53875
485 2.60156
490 4.31837
495 3.52753
500 2.5576
505 2.22241
510 2.01958
515 1.6823
520 1.52221
525 1.46462
530 1.37071
535 1.29896
540 1.14763
545 1.02885
550 0.953182
555 0.857061
560 0.694595
565 0.640716
570 0.650343
575 0.449315
580 0.345222
585 0.26849
590 0.208449
595 0.152609
600 0.351558
Ex : 438
200 0.0642722
205 0.0435892
210 0.029262
215 0.0655332
220 0.0614433
225 0.0485559
230 0.0506751
235 0.0427389
240 0.0450044
245 0.0323968
250 0.0314135
255 0.104312
260 0.0754329
265 0.0561008
270 0.105172
275 0.0433774
280 0.0429153
285 0.0353546
290 0.064789
295 0.047495
300 0.0508133
305 0.037269
310 0.0509577
315 0.100028
320 0.0658068
325 0.0493032
330 0.0765581
335 0.0717654
340 0.0496545
345 0.0899901
350 0.0967443
355 0.0874607
360 0.0541854
365 0.0312866
370 0.150176
375 0.108916
380 0.0986933
385 0.109588
390 0.117894
395 0.159726
400 0.137034
405 0.160623
410 0.239882
415 0.386451
420 0.597072
425 25.2505
430 442.988
435 711.229
440 177.568
445 21.789
450 3.75656
455 1.52802
460 1.53379
465 1.61843
470 1.49529
475 1.26088
480 1.3333
485 1.63425
490 1.93364
495 3.23614
500 3.74416
505 2.57352
510 2.20792
515 1.71388
520 1.52554
525 1.35704
530 1.31365
535 1.1959
540 1.14111
545 0.907441
550 0.786492
555 0.769876
560 0.690883
565 0.745731
570 0.615206
575 0.542589
580 0.317431
585 0.286326
590 0.212348
595 0.196039
600 0.0749542
Ex : 443
200 0.0480063
205 0.0410187
210 0.0516251
215 0.0860194
220 0.0809614
225 0.085796
230 0.05142
235 0.0356625
240 0.0313118
245 0.0256755
250 0.0262954
255 0.0404916
260 0.0279252
265 0.0385774
270 0.0549998
275 0.0608208
280 0.0752828
285 0.102133
290 0.040435
295 0.0692478
300 0.0918063
305 0.0378988
310 0.0804302
315 0.0840663
320 0.130638
325 0.0674393
330 0.0520024
335 0.0812403
340 0.113567
345 0.0559025
350 0.0665336
355 0.0641738
360 0.106381
365 0.0912999
370 0.0498192
375 0.106653
380 0.110509
385 0.109837
390 0.0763068
395 0.0965169
400 0.146265
405 0.127741
410 0.13842
415 0.253944
420 0.257666
425 0.717025
430 27.1502
435 464.581
440 715.564
445 179.668
450 22.1433
455 3.80219
460 1.60124
465 1.37114
470 1.56049
475 1.37939
480 1.30822
485 1.42934
490 1.36688
495 1.58574
500 2.88724
505 3.5355
510 2.57803
515 2.0111
520 1.78462
525 1.33254
530 1.30954
535 1.0622
540 1.07518
545 1.07326
550 0.876399
555 0.897107
560 0.771475
565 0.687651
570 0.583365
575 0.466147
580 0.32827
585 0.258817
590 0.297106
595 0.240626
600 0.234604
Ex : 448
200 0.0441608
205 0.056386
210 0.0810532
215 0.0953813
220 0.0693409
225 0.0733912
230 0.0593474
235 0.0587242
240 0.0446638
245 0.103368
250 0.0418577
255 0.0740435
260 0.0410504
265 0.0413831
270 0.100482
275 0.0488127
280 0.0566053
285 0.0425376
290 0.0423388
295 0.0344366
300 0.0599015
305 0.0630745
310 0.035034
315 0.0345455
320 0.0413734
325 0.0412365
330 0.0666789
335 0.0850651
340 0.0605348
345 0.100966
350 0.0395186
355 0.0672636
360 0.0410175
365 0.0636393
370 0.0939233
375 0.0886055
380 0.0652712
385 0.0629445
390 0.0630828
395 0.114397
400 0.125439
405 0.102973
410 0.111851
415 0.177842
420 0.257529
425 0.380679
430 0.711171
435 29.1587
440 498.772
445 753.142
450 184.046
455 22.4938
460 3.83409
465 1.44385
470 1.39731
475 1.65122
480 1.34485
485 1.26184
490 1.11159
495 1.32184
500 1.35986
505 2.04517
510 3.24802
515 2.86872
520 1.96092
525 1.64951
530 1.37034
535 1.26989
540 1.01226
545 1.00431
550 0.981544
555 0.863214
560 0.721609
565 0.676373
570 0.566558
575 0.502302
580 0.382572
585 0.254682
590 0.232381
595 0.186652
600 0.240568
Ex : 453
200 0.0567317
205 0.0424075
210 0.0349155
215 0.0816541
220 0.039267
225 0.0590683
230 0.0411414
235 0.0564729
240 0.0342856
245 0.0266075
250 0.0641013
255 0.063623
260 0.0509908
265 0.0521492
270 0.0424023
275 0.0375756
280 0.161708
285 0.0845901
290 0.0479022
295 0.0723027
300 0.0737263
305 0.0692602
310 0.03147
315 0.0509893
320 0.0689158
325 0.0489657
330 0.0559184
335 0.0652608
340 0.0592084
345 0.0519829
350 0.0557338
355 0.0672255
360 0.083639
365 0.109204
370 0.0833771
375 0.087014
380 0.0786014
385 0.0870289
390 0.126502
395 0.104263
400 0.0742375
405 0.148393
410 0.120478
415 0.139737
420 0.160825
425 0.236554
430 0.391902
435 0.709867
440 31.5716
445 551.996
450 806.638
455 189.45
460 23.1444
465 3.88703
470 1.44222
475 1.31521
480 1.55375
485 1.40716
490 1.1913
495 1.06203
500 1.10085
505 1.2951
510 1.61324
515 3.25798
520 3.03305
525 2.02816
530 1.60599
535 1.47469
540 1.1216
545 1.08487
550 0.906596
555 0.777234
560 0.713829
565 0.649876
570 0.56669
575 0.452891
580 0.42989
585 0.339777
590 0.315151
595 0.228988
600 0.0260579
Ex : 458
200 0.0234618
205 0.0546887
210 0.0635345
215 0.0903525
220 0.0403473
225 0.061907
230 0.0521013
235 0.043915
240 0.0617027
245 0.0425197
250 0.0160423
255 0.0347225
260 0.0475476
265 0.0632232
270 0.0461173
275 0.0468463
280 0.0543097
285 0.0504453
290 0.0445927
295 0.0832649
300 0.0507604
305 0.0413579
310 0.0966631
315 0.0632925
320 0.0786951
325 0.0618805
330 0.0427752
335 0.107998
340 0.0680551
345 0.0460053
350 0.0680807
355 0.065608
360 0.0732855
365 0.0536348
370 0.0602021
375 0.0887106
380 0.120836
385 0.0732047
390 0.08607
395 0.124561
400 0.100491
405 0.0700636
410 0.139121
415 0.142273
420 0.218822
425 0.163517
430 0.250181
435 0.438126
440 0.631396
445 34.5509
450 567.276
455 818.083
460 195.126
465 23.8828
470 4.00848
475 1.43205
480 1.37083
485 1.4651
490 1.3861
495 1.24569
500 1.00576
505 1.07891
510 1.06754
515 1.20922
520 2.34111
525 3.10446
530 2.01401
535 1.51085
540 1.41885
545 1.07561
550 0.996619
555 0.841337
560 0.703868
565 0.68174
570 0.598474
575 0.477924
580 0.358187
585 0.325291
590 0.295458
595 0.263199
600 0.190558
Ex : 463
200 0.0905787
205 0.103739
210 0.125003
215 0.0637855
220 0.0396277
225 0.0258826
230 0.0273598
235 0.0290217
240 0.0502181
245 0.0360503
250 0.0562892
255 0.108529
260 0.046747
265 0.0657221
270 0.0648929
275 0.0562146
280 0.0570651
285 0.0399722
290 0.0507504
295 0.0600855
300 0.0369057
305 0.02567
310 0.062813
315 0.0695108
320 0.0536789
325 0.0516097
330 0.0511913
335 0.0788398
340 0.0539481
345 0.0399226
350 0.0546004
355 0.0481907
360 0.0602738
365 0.0588093
370 0.07192
375 0.0614188
380 0.116192
385 0.11336
390 0.102699
395 0.0636021
400 0.106521
405 0.108362
410 0.0838086
415 0.114849
420 0.123122
425 0.192506
430 0.157379
435 0.235041
440 0.303913
445 0.83326
450 33.6608
455 602.418
460 927.927
465 226.948
470 27.517
475 4.50129
480 1.49405
485 1.07257
490 1.31351
495 1.43262
500 1.11106
505 0.942918
510 0.950432
515 1.08933
520 1.26801
525 1.8146
530 2.93202
535 2.23327
540 1.53418
545 1.31571
550 1.2708
555 0.984854
560 0.675194
565 0.643429
570 0.61532
575 0.428253
580 0.40912
585 0.356048
590 0.297098
595 0.308372
600 0.0999358
Ex : 468
200 0.0382655
205 0.0431042
210 0.0653083
215 0.0454982
220 0.0610606
225 0.0355824
230 0.0485619
235 0.0379483
240 0.0440888
245 0.0702991
250 0.0664168
255 0.0701658
260 0.0516862
265 0.0503288
270 0.0437765
275 0.0967414
280 0.0636913
285 0.0591552
290 0.0385164
295 0.0412429
300 0.0477852
305 0.0527838
310 0.0820215
315 0.0404541
320 0.0470557
325 0.0738228
330 0.0502791
335 0.0628736
340 0.0588195
345 0.0591326
350 0.0633703
355 0.0584346
360 0.0532555
365 0.0728671
370 0.10146
375 0.0943447
380 0.0599696
385 0.0653914
390 0.113275
395 0.0887198
400 0.0701687
405 0.0896434
410 0.0514979
415 0.0609571
420 0.099933
425 0.122698
430 0.152868
435 0.198056
440 0.267642
445 0.397
450 0.79177
455 37.8813
460 598.869
465 968.594
470 234.947
475 28.3301
480 4.5146
485 1.51431
490 1.17808
495 1.28035
500 1.33969
505 1.17639
510 1.03875
515 1.04834
520 1.1218
525 1.05541
530 1.42538
535 2.54671
540 2.63155
545 1.67009
550 1.39809
555 1.28058
560 0.984452
565 0.738688
570 0.650283
575 0.538251
580 0.422151
585 0.350349
590 0.321018
595 0.231765
600 0.79217
Ex : 473
200 0.0653741
205 0.0516019
210 0.0512443
215 0.0583109
220 0.0634891
225 0.0645339
230 0.0343655
235 0.0401703
240 0.0525192
245 0.0528091
250 0.0432259
255 0.0546436
260 0.0690622
265 0.0848321
270 0.0514852
275 0.0813484
280 0.049653
285 0.0781713
290 0.0665279
295 0.0412341
300 0.0643714
305 0.0952906
310 0.0559206
315 0.0594987
320 0.0553743
325 0.0764175
330 0.0492071
335 0.0532298
340 0.0761418
345 0.0903194
350 0.0785187
355 0.0828214
360 0.0745414
365 0.101006
370 0.0643419
375 0.103966
380 0.10237
385 0.0855151
390 0.0673336
395 0.0653555
400 0.0703545
405 0.105948
410 0.0827455
415 0.1177
420 0.115406
425 0.139032
430 0.131472
435 0.113565
440 0.228554
445 0.249856
450 0.427148
455 0.843701
460 44.5538
465 685.624
470 926.729
475 213.912
480 25.9525
485 4.16217
490 1.38931
495 1.15765
500 1.24429
505 1.31707
510 1.18279
515 0.930689
520 0.937996
525 1.07693
530 1.03945
535 1.19513
540 2.06857
545 2.59332
550 1.75271
555 1.21045
560 1.13297
565 0.929917
570 0.668439
575 0.565578
580 0.442944
585 0.359525
590 0.300003
595 0.250813
600 0.167252
Ex : 478
200 0.0490147
205 0.0527106
210 0.0985222
215 0.0780485
220 0.0520404
225 0.0696691
230 0.0466289
235 0.0592711
240 0.0445824
245 0.0356732
250 0.0244594
255 0.0675459
260 0.0543483
265 0.0461548
270 0.132257
275 0.118381
280 0.0669909
285 0.0613258
290 0.0766532
295 0.0671637
300 0.0563273
305 0.0384889
310 0.108569
315 0.0596051
320 0.0674551
325 0.0805926
330 0.0749215
335 0.0932761
340 0.0845761
345 0.071076
350 0.0864188
355 0.0848074
360 0.076749
365 0.0925406
370 0.0718954
375 0.0699349
380 0.0587091
385 0.0882561
390 0.0975299
395 0.146233
400 0.11291
405 0.141631
410 0.0860902
415 0.12592
420 0.0859041
425 0.140798
430 0.125289
435 0.125333
440 0.321432
445 0.247309
450 0.318609
455 0.525599
460 1.02512
465 48.8127
470 711.751
475 988.255
480 238.525
485 28.6729
490 4.3225
495 1.41156
500 1.00259
505 1.13829
510 1.19963
515 1.16435
520 1.0722
525 1.02672
530 0.954234
535 0.986586
540 1.02299
545 1.51961
550 2.19086
555 1.80965
560 1.27875
565 0.915622
570 0.753541
575 0.614472
580 0.45903
585 0.318529
590 0.289438
595 0.292056
600 0.0518265
Ex : 483
200 0.0604341
205 0.0808874
210 0.0911769
215 0.0607674
220 0.0437913
225 0.0367469
230 0.074354
235 0.0403566
240 0.0407459
245 0.0679476
250 0.0434555
255 0.0593288
260 0.161246
265 0.0675376
270 0.0556523
275 0.0622774
280 0.0617909
285 0.0618872
290 0.0934925
295 0.0837091
300 0.049243
305 0.13275
310 0.0480387
315 0.0475539
320 0.0411968
325 0.0736134
330 0.103317
335 0.109018
340 0.0700873
345 0.115256
350 0.0636739
355 0.101526
360 0.101287
365 0.0999319
370 0.0828375
375 0.109329
380 0.105734
385 0.0695959
390 0.0948039
395 0.0657272
400 0.105661
405 0.0943565
410 0.0782471
415 0.0999824
420 0.0722545
425 0.105758
430 0.106822
435 0.131166
440 0.198609
445 0.180641
450 0.257531
455 0.317999
460 0.614688
465 1.15319
470 38.8708
475 679.044
480 1049.62
485 251.667
490 30.3569
495 4.41854
500 1.45224
505 0.985217
510 0.985488
515 1.18466
520 1.18785
525 0.943987
530 0.908473
535 0.88062
540 0.956506
545 0.848448
550 1.05936
555 1.92499
560 1.92604
565 1.2331
570 1.00908
575 0.750263
580 0.500921
585 0.370893
590 0.354095
595 0.358308
600 0.51157
Ex : 488
200 0.0509537
205 0.043747
210 0.096246
215 0.0793163
220 0.0455838
225 0.0502098
230 0.101738
235 0.0736712
240 0.0539433
245 0.0713354
250 0.0493403
255 0.0690894
260 0.0665332
265 0.0660193
270 0.0684751
275 0.0648593
280 0.0770244
285 0.0631912
290 0.126506
295 0.0560767
300 0.0577225
305 0.0505524
310 0.0425789
315 0.0879295
320 0.0724113
325 0.0796112
330 0.051177
335 0.0758151
340 0.0526933
345 0.0936204
350 0.0857487
355 0.0698008
360 0.0586089
365 0.0618745
370 0.108249
375 0.0907694
380 0.134685
385 0.102206
390 0.0668035
395 0.115452
400 0.101262
405 0.106278
410 0.118906
415 0.0624746
420 0.0640335
425 0.0919752
430 0.111155
435 0.103225
440 0.114642
445 0.18504
450 0.171931
455 0.250994
460 0.307245
465 0.559819
470 1.08064
475 47.6577
480 778.031
485 1106.5
490 257.361
495 30.7582
500 4.49237
505 1.37589
510 0.895346
515 1.06012
520 1.18616
525 1.06826
530 0.869344
535 0.856622
540 0.852063
545 0.908589
550 0.817145
555 0.916073
560 1.45002
565 1.96095
570 1.34503
575 0.757671
580 0.626578
585 0.425653
590 0.302372
595 0.288193
600 0.175951
Ex : 493
200 0.0627585
205 0.0639837
210 0.0968113
215 0.0913839
220 0.0504078
225 0.0649509
230 0.0735817
235 0.0696572
240 0.10814
245 0.0675735
250 0.0797954
255 0.133141
260 0.123181
265 0.0728095
270 0.0525353
275 0.06633
280 0.0599601
285 0.0989497
290 0.0883074
295 0.0668683
300 0.0499745
305 0.0997451
310 0.065922
315 0.048093
320 0.0368109
325 0.0629357
330 0.0807344
335 0.0487865
340 0.0952219
345 0.0920179
350 0.0764404
355 0.0836733
360 0.0548234
365 0.0588892
370 0.049788
375 0.0740396
380 0.112713
385 0.0886856
390 0.124865
395 0.124232
400 0.121239
405 0.124934
410 0.138687
415 0.0595838
420 0.0985146
425 0.0781682
430 0.153037
435 0.131585
440 0.115454
445 0.20197
450 0.180467
455 0.152279
460 0.349403
465 0.485361
470 0.628375
475 1.01591
480 43.6349
485 763.917
490 1156.98
495 268.289
500 32.0506
505 4.68138
510 1.54634
515 1.03827
520 1.05641
525 1.29956
530 1.11006
535 1.01412
540 0.849073
545 0.789621
550 0.765442
555 0.681818
560 0.827199
565 1.05611
570 1.536
575 1.42278
580 0.705945
585 0.488571
590 0.51124
595 0.387458
600 0.495553
Ex : 498
200 0.0505902
205 0.0692964
210 0.065932
215 0.147798
220 0.047881
225 0.0728995
230 0.0695454
235 0.0892838
240 0.0827809
245 0.0893877
250 0.121169
255 0.133261
260 0.124742
265 0.144431
270 0.101423
275 0.0848152
280 0.0581684
285 0.0453155
290 0.0628082
295 0.0721475
300 0.110085
305 0.0911964
310 0.0953647
315 0.118788
320 0.0591609
325 0.0658304
330 0.0690382
335 0.0947892
340 0.0971525
345 0.091182
350 0.114516
355 0.122209
360 0.0822814
365 0.117951
370 0.0930841
375 0.137029
380 0.110842
385 0.117645
390 0.104681
395 0.0893484
400 0.103145
405 0.0624791
410 0.106406
415 0.157875
420 0.117054
425 0.0863625
430 0.0827217
435 0.114929
440 0.0964483
445 0.115831
450 0.206768
455 0.132927
460 0.298999
465 0.286213
470 0.377116
475 0.604586
480 1.08498
485 54.6631
490 814.833
495 1137.64
500 262.995
505 31.4952
510 4.74888
515 1.49668
520 1.00134
525 1.02887
530 1.18333
535 1.10855
540 0.959684
545 0.747403
550 0.743719
555 0.710896
560 0.793344
565 0.609861
570 0.739521
575 1.1671
580 1.09002
585 0.559945
590 0.428689
595 0.38352
600 0.195036
Ex : 503
200 0.0987241
205 0.0911912
210 0.066553
215 0.0900546
220 0.0566299
225 0.0811855
230 0.0512082
235 0.0998001
240 0.0967504
245 0.0727858
250 0.125519
255 0.0843415
260 0.118318
265 0.120173
270 0.156066
275 0.0743339
280 0.118988
285 0.0855544
290 0.095419
295 0.182106
300 0.148383
305 0.0768527
310 0.0592834
315 0.0956476
320 0.0889689
325 0.10284
330 0.102649
335 0.0912013
340 0.11643
345 0.0494094
350 0.110796
355 0.0660188
360 0.0895634
365 0.0601387
370 0.110468
375 0.0883293
380 0.0595093
385 0.0578578
390 0.0815856
395 0.0849517
400 0.0875443
405 0.121498
410 0.154064
415 0.0877058
420 0.107562
425 0.103034
430 0.112768
435 0.087933
440 0.12165
445 0.192325
450 0.137963
455 0.236619
460 0.1558
465 0.255516
470 0.232914
475 0.402186
480 0.63124
485 1.08984
490 48.4133
495 822.109
500 1170.68
505 271.11
510 32.5883
515 4.80028
520 1.56663
525 0.992016
530 1.00003
535 0.994757
540 1.14093
545 1.0104
550 0.751188
555 0.706444
560 0.565109
565 0.551762
570 0.478155
575 0.600897
580 0.674165
585 0.883821
590 0.597432
595 0.424146
600 0.457889
Ex : 508
200 0.100258
205 0.0719202
210 0.0596919
215 0.0377352
220 0.0851674
225 0.0975494
230 0.0732752
235 0.0856962
240 0.0653154
245 0.0484597
250 0.178619
255 0.122513
260 0.105208
265 0.0649789
270 0.0531439
275 0.0970046
280 0.0453134
285 0.0939714
290 0.119163
295 0.154234
300 0.0808099
305 0.0741015
310 0.107267
315 0.0785838
320 0.0780701
325 0.0863796
330 0.0908325
335 0.0707879
340 0.121177
345 0.0514343
350 0.0975626
355 0.0682954
360 0.0637894
365 0.0986333
370 0.0910194
375 0.139624
380 0.0859054
385 0.134216
390 0.107326
395 0.0814843
400 0.113218
405 0.0980381
410 0.060595
415 0.101902
420 0.126982
425 0.0753343
430 0.0699641
435 0.132305
440 0.0967336
445 0.113906
450 0.135858
455 0.178019
460 0.171355
465 0.177403
470 0.258064
475 0.304185
480 0.518588
485 0.577544
490 1.21703
495 54.6533
500 856.412
505 1181.62
510 285.793
515 34.1995
520 5.07577
525 1.61888
530 1.07101
535 0.972329
540 0.998987
545 1.03297
550 0.885268
555 0.647973
560 0.667348
565 0.500145
570 0.461009
575 0.495611
580 0.468384
585 0.589176
590 0.708101
595 0.6793
600 0.414903
Ex : 513
200 0.107051
205 0.0967571
210 0.0860556
215 0.0959862
220 0.0893312
225 0.154971
230 0.0963708
235 0.0559262
240 0.0683149
245 0.1137
250 0.0453327
255 0.045953
260 0.0891728
265 0.0696203
270 0.0756388
275 0.0444889
280 0.0777397
285 0.071833
290 0.065381
295 0.0872513
300 0.0932157
305 0.0686115
310 0.0458717
315 0.0972944
320 0.0650128
325 0.0573826
330 0.0552998
335 0.0826915
340 0.131329
345 0.112892
350 0.0890397
355 0.107163
360 0.065359
365 0.133
370 0.12216
375 0.0738336
380 0.05465
385 0.117556
390 0.051921
395 0.0743381
400 0.0734178
405 0.118605
410 0.129431
415 0.0822158
420 0.0761437
425 0.0922652
430 0.200278
435 0.0986287
440 0.134075
445 0.142423
450 0.173216
455 0.151245
460 0.237617
465 0.217155
470 0.302122
475 0.270847
480 0.339835
485 0.33772
490 0.583488
495 1.13405
500 47.9911
505 822.712
510 1195.98
515 296.095
520 35.6146
525 5.46306
530 1.62057
535 0.950977
540 0.795735
545 0.892189
550 0.934065
555 0.775351
560 0.643529
565 0.521973
570 0.485066
575 0.421224
580 0.413472
585 0.297789
590 0.373759
595 0.506394
600 0.403667
Ex : 518
200 0.147822
205 0.105616
210 0.0719665
215 0.0704639
220 0.0591872
225 0.0727858
230 0.0715021
235 0.113954
240 0.0640632
245 0.0866822
250 0.0975151
255 0.0518419
260 0.0689584
265 0.0496531
270 0.120319
275 0.103872
280 0.126067
285 0.132656
290 0.0839311
295 0.107803
300 0.162412
305 0.110757
310 0.0597378
315 0.109521
320 0.106734
325 0.144289
330 0.0887942
335 0.0824059
340 0.0811403
345 0.0811154
350 0.0734424
355 0.0796694
360 0.0866331
365 0.100998
370 0.0968647
375 0.113888
380 0.0746027
385 0.0726819
390 0.109414
395 0.0724703
400 0.106543
405 0.0893011
410 0.0718663
415 0.135479
420 0.148708
425 0.109607
430 0.105181
435 0.162008
440 0.159004
445 0.0962734
450 0.133229
455 0.248141
460 0.179531
465 0.188672
470 0.176067
475 0.209311
480 0.254201
485 0.234217
490 0.376578
495 0.594233
500 1.17891
505 49.3299
510 831.922
515 1229.4
520 297.317
525 35.5523
530 5.06576
535 1.45798
540 0.955192
545 0.609177
550 0.756471
555 0.873594
560 0.619553
565 0.655889
570 0.636177
575 0.546532
580 0.34688
585 0.268349
590 0.31273
595 0.31159
600 0.476419
Ex : 523
200 0.102188
205 0.0661756
210 0.0605746
215 0.09825
220 0.0615125
225 0.0648073
230 0.0608287
235 0.0531588
240 0.119407
245 0.0591992
250 0.0927748
255 0.148203
260 0.0773477
265 0.117829
270 0.0970862
275 0.0768803
280 0.117579
285 0.0825322
290 0.0410119
295 0.0624698
300 0.0500438
305 0.123588
310 0.0876935
315 0.132972
320 0.0565461
325 0.0843011
330 0.0782779
335 0.0587362
340 0.0952197
345 0.113634
350 0.111304
355 0.0780642
360 0.0547904
365 0.0778207
370 0.145382
375 0.121969
380 0.115412
385 0.146475
390 0.0846913
395 0.118081
400 0.135407
405 0.0926356
410 0.117579
415 0.090391
420 0.0859544
425 0.0935786
430 0.180282
435 0.0999747
440 0.124641
445 0.16671
450 0.0957329
455 0.165076
460 0.103898
465 0.126454
470 0.157591
475 0.183371
480 0.18997
485 0.314483
490 0.32025
495 0.413488
500 0.555557
505 1.10493
510 47.0733
515 780.732
520 1215.11
525 308.833
530 36.8958
535 5.17198
540 1.32655
545 0.7166
550 0.62174
555 0.612519
560 0.651095
565 0.498498
570 0.43235
575 0.298906
580 0.308098
585 0.300563
590 0.450794
595 0.250118
600 0.0284624
Ex : 528
200 0.0623635
205 0.0777802
210 0.0563961
215 0.14214
220 0.126404
225 0.0755093
230 0.109989
235 0.145643
240 0.103684
245 0.134677
250 0.0779877
255 0.112026
260 0.101575
265 0.0690041
270 0.087336
275 0.0489428
280 0.114956
285 0.125364
290 0.108732
295 0.112787
300 0.0949573
305 0.0721634
310 0.102433
315 0.07315
320 0.0783364
325 0.100486
330 0.0643244
335 0.0627621
340 0.111932
345 0.137254
350 0.0706465
355 0.0735669
360 0.115043
365 0.139055
370 0.087643
375 0.0692131
380 0.0897714
385 0.0647344
390 0.0776483
395 0.0889461
400 0.0562997
405 0.105668
410 0.130862
415 0.0840032
420 0.129185
425 0.06721
430 0.163863
435 0.103259
440 0.14141
445 0.148068
450 0.0858492
455 0.0843924
460 0.0840982
465 0.144548
470 0.183423
475 0.175804
480 0.187245
485 0.213852
490 0.243609
495 0.337671
500 0.432909
505 0.630617
510 1.18142
515 42.9162
520 801.26
525 1203.77
530 300.333
535 35.9959
540 4.91092
545 1.26698
550 0.759152
555 0.566212
560 0.488118
565 0.584124
570 0.607755
575 0.412764
580 0.42497
585 0.27738
590 0.251948
595 0.27571
600 0.090455
Ex : 533
200 0.0643018
205 0.0437459
210 0.0654241
215 0.0651435
220 0.0479144
225 0.0678865
230 0.0593619
235 0.110054
240 0.139652
245 0.0735137
250 0.0942903
255 0.0598388
260 0.102281
265 0.104515
270 0.0800802
275 0.0586647
280 0.056484
285 0.097381
290 0.142914
295 0.0974411
300 0.0706491
305 0.05698
310 0.0960622
315 0.134365
320 0.0698794
325 0.0781909
330 0.121595
335 0.0941359
340 0.122363
345 0.164639
350 0.136694
355 0.0955645
360 0.104332
365 0.0620223
370 0.0750103
375 0.0815636
380 0.142747
385 0.123621
390 0.108629
395 0.10925
400 0.0767796
405 0.110447
410 0.153515
415 0.134149
420 0.0723856
425 0.125499
430 0.15241
435 0.127979
440 0.144241
445 0.155881
450 0.176122
455 0.152956
460 0.176954
465 0.18461
470 0.114275
475 0.146868
480 0.133584
485 0.117684
490 0.196822
495 0.237787
500 0.338106
505 0.449084
510 0.565974
515 1.16586
520 44.573
525 756.18
530 1177.19
535 302.481
540 36.1143
545 5.05488
550 1.37122
555 0.686824
560 0.522899
565 0.487763
570 0.405629
575 0.497797
580 0.398055
585 0.343843
590 0.358049
595 0.32727
600 0.524889
Ex : 538
200 0.142137
205 0.0960877
210 0.0713574
215 0.106188
220 0.124421
225 0.147821
230 0.115923
235 0.0657512
240 0.141301
245 0.101456
250 0.0656204
255 0.112032
260 0.134797
265 0.0667641
270 0.0401914
275 0.0986438
280 0.069438
285 0.0985152
290 0.104385
295 0.160335
300 0.131733
305 0.149881
310 0.136373
315 0.085821
320 0.0465611
325 0.124724
330 0.0551433
335 0.141112
340 0.0750611
345 0.117538
350 0.0884754
355 0.135041
360 0.116664
365 0.0563923
370 0.0797838
375 0.107237
380 0.165453
385 0.0669156
390 0.084906
395 0.0846289
400 0.191282
405 0.185015
410 0.0952322
415 0.0887603
420 0.0761142
425 0.179889
430 0.0911474
435 0.199283
440 0.101423
445 0.111177
450 0.101133
455 0.2004
460 0.132708
465 0.187643
470 0.218262
475 0.176403
480 0.110086
485 0.191319
490 0.214539
495 0.299474
500 0.15641
505 0.282095
510 0.359303
515 0.701905
520 0.921716
525 36.3349
530 703.783
535 1186.2
540 317.631
545 37.6591
550 5.16358
555 1.24267
560 0.597835
565 0.38929
570 0.376438
575 0.354705
580 0.348811
585 0.393153
590 0.316003
595 0.285292
600 0.262399
Ex : 543
200 0.0497157
205 0.084447
210 0.128246
215 0.105729
220 0.0708043
225 0.0607524
230 0.068775
235 0.109022
240 0.171627
245 0.183096
250 0.0972018
255 0.156765
260 0.143508
265 0.12052
270 0.0838494
275 0.0743023
280 0.10459
285 0.169481
290 0.0560882
295 0.0651936
300 0.0585071
305 0.0427374
310 0.0960762
315 0.120668
320 0.106492
325 0.0947725
330 0.132066
335 0.132849
340 0.149488
345 0.0993193
350 0.179899
355 0.122744
360 0.137544
365 0.103288
370 0.0960072
375 0.161368
380 0.150251
385 0.121364
390 0.0927169
395 0.0872096
400 0.0895069
405 0.150125
410 0.0678935
415 0.14467
420 0.112275
425 0.0840094
430 0.127569
435 0.147335
440 0.161661
445 0.146404
450 0.0743014
455 0.110463
460 0.144862
465 0.135197
470 0.108181
475 0.164712
480 0.233882
485 0.151456
490 0.240913
495 0.284677
500 0.245991
505 0.252145
510 0.37784
515 0.355656
520 0.669257
525 1.00176
530 35.1392
535 687.577
540 1167.91
545 313.78
550 37.4845
555 4.93577
560 1.22292
565 0.527331
570 0.490487
575 0.343953
580 0.251924
585 0.339893
590 0.441887
595 0.287697
600 0.0327388
Ex : 548
200 0.0919399
205 0.136246
210 0.0973957
215 0.166429
220 0.161236
225 0.126736
230 0.0781191
235 0.0422875
240 0.121271
245 0.158205
250 0.0935671
255 0.114741
260 0.105741
265 0.0916342
270 0.0771219
275 0.116232
280 0.0944874
285 0.0793569
290 0.152792
295 0.0884243
300 0.0832295
305 0.0992071
310 0.144561
315 0.113726
320 0.0942166
325 0.134717
330 0.0730914
335 0.113638
340 0.141869
345 0.175153
350 0.0802992
355 0.0825402
360 0.119651
365 0.0673732
370 0.0729776
375 0.0670105
380 0.111813
385 0.138015
390 0.0688827
395 0.117476
400 0.102343
405 0.134181
410 0.0989888
415 0.0814517
420 0.159052
425 0.13424
430 0.157473
435 0.149742
440 0.116841
445 0.156193
450 0.12969
455 0.0984757
460 0.146765
465 0.134951
470 0.112419
475 0.130912
480 0.23654
485 0.165502
490 0.16275
495 0.124457
500 0.131225
505 0.201082
510 0.282775
515 0.246115
520 0.310241
525 0.500344
530 0.868352
535 37.7615
540 691.038
545 1142.07
550 319.071
555 38.0079
560 4.97688
565 1.05871
570 0.560298
575 0.492927
580 0.367416
585 0.288278
590 0.37708
595 0.365931
600 0.267034
Ex : 553
200 0.125809
205 0.167041
210 0.149474
215 0.108799
220 0.145493
225 0.161412
230 0.0782381
235 0.066305
240 0.113603
245 0.114143
250 0.108492
255 0.0875802
260 0.0853477
265 0.0982951
270 0.106042
275 0.108276
280 0.136993
285 0.113902
290 0.0818187
295 0.14939
300 0.102042
305 0.0901571
310 0.0922343
315 0.103066
320 0.130761
325 0.124069
330 0.112824
335 0.13685
340 0.0823401
345 0.134335
350 0.147772
355 0.0795449
360 0.182606
365 0.105228
370 0.122719
375 0.124928
380 0.13449
385 0.133062
390 0.0908136
395 0.190319
400 0.0927193
405 0.160128
410 0.0776693
415 0.0482197
420 0.0976956
425 0.124695
430 0.101212
435 0.174739
440 0.0705572
445 0.0547576
450 0.0739177
455 0.178971
460 0.0993509
465 0.149071
470 0.10197
475 0.156784
480 0.148494
485 0.137316
490 0.167682
495 0.248467
500 0.232182
505 0.166566
510 0.257745
515 0.272285
520 0.265941
525 0.298521
530 0.466444
535 0.745838
540 32.0301
545 677.681
550 1140.46
555 320.346
560 38.2363
565 5.01767
570 0.92221
575 0.520477
580 0.340275
585 0.360806
590 0.226786
595 0.332343
600 0.239936
Ex : 558
200 0.0482959
205 0.12325
210 0.112104
215 0.0543099
220 0.0606819
225 0.0753536
230 0.0694223
235 0.126138
240 0.0840482
245 0.131051
250 0.0850134
255 0.162201
260 0.227561
265 0.0858603
270 0.146209
275 0.143053
280 0.106155
285 0.169397
290 0.136747
295 0.102426
300 0.107271
305 0.132586
310 0.229968
315 0.134631
320 0.0969635
325 0.132728
330 0.0809564
335 0.0828042
340 0.146786
345 0.222337
350 0.0922016
355 0.11168
360 0.115946
365 0.0847662
370 0.166285
375 0.0833903
380 0.0992873
385 0.108888
390 0.0894804
395 0.1928
400 0.165306
405 0.155439
410 0.180548
415 0.156535
420 0.0876399
425 0.127849
430 0.14277
435 0.124384
440 0.183509
445 0.216927
450 0.0884393
455 0.125706
460 0.172588
465 0.216458
470 0.140568
475 0.196965
480 0.120953
485 0.174939
490 0.145767
495 0.144228
500 0.206304
505 0.0903111
510 0.142818
515 0.222154
520 0.262397
525 0.28282
530 0.418498
535 0.614122
540 0.995915
545 30.4101
550 624.057
555 1109.96
560 315.228
565 37.611
570 4.91457
575 0.997448
580 0.422185
585 0.333907
590 0.345379
595 0.240129
600 0.0273258
Ex : 563
200 0.127928
205 0.0876923
210 0.130203
215 0.046974
220 0.0611609
225 0.127091
230 0.1145
235 0.0806737
240 0.0505606
245 0.0653078
250 0.123064
255 0.134693
260 0.0866943
265 0.0872006
270 0.0951839
275 0.0923906
280 0.15403
285 0.0894979
290 0.0743344
295 0.0920934
300 0.0749286
305 0.121813
310 0.0930278
315 0.173416
320 0.113553
325 0.145873
330 0.17699
335 0.12181
340 0.0684116
345 0.0847819
350 0.0616674
355 0.116506
360 0.187613
365 0.152401
370 0.119797
375 0.088682
380 0.0792972
385 0.169752
390 0.106242
395 0.107751
400 0.187816
405 0.109953
410 0.11876
415 0.157003
420 0.15439
425 0.112266
430 0.141651
435 0.111199
440 0.0725995
445 0.168974
450 0.0904893
455 0.143862
460 0.282647
465 0.16018
470 0.103671
475 0.146913
480 0.222442
485 0.159704
490 0.176682
495 0.228585
500 0.212075
505 0.161625
510 0.195044
515 0.184812
520 0.287989
525 0.23296
530 0.277284
535 0.34196
540 0.498407
545 0.784523
550 29.5964
555 602.597
560 1043.35
565 302.889
570 36.028
575 4.62723
580 0.887092
585 0.425688
590 0.355725
595 0.268775
600 0.389554
Ex : 568
200 0.0681291
205 0.11198
210 0.0666272
215 0.120873
220 0.0782035
225 0.103536
230 0.115479
235 0.0669669
240 0.128716
245 0.163014
250 0.083676
255 0.152949
260 0.0790852
265 0.170929
270 0.0877997
275 0.0396642
280 0.144643
285 0.145305
290 0.12473
295 0.136131
300 0.0643728
305 0.103194
310 0.0842794
315 0.0714284
320 0.234153
325 0.137661
330 0.213092
335 0.183364
340 0.155643
345 0.101586
350 0.111155
355 0.0943382
360 0.102846
365 0.134554
370 0.0816941
375 0.0896233
380 0.160978
385 0.133154
390 0.208381
395 0.123452
400 0.195374
405 0.1214
410 0.11988
415 0.0934291
420 0.183294
425 0.116675
430 0.0837204
435 0.227419
440 0.21329
445 0.160992
450 0.187003
455 0.220134
460 0.162027
465 0.199748
470 0.123382
475 0.0898433
480 0.123543
485 0.1178
490 0.24845
495 0.251133
500 0.139714
505 0.116417
510 0.151936
515 0.240048
520 0.151358
525 0.216585
530 0.266339
535 0.28569
540 0.315715
545 0.438398
550 0.864356
555 22.713
560 539.752
565 1018.9
570 311.24
575 37.1346
580 4.71342
585 0.884881
590 0.51808
595 0.290738
600 0.222986
Ex : 573
200 0.138549
205 0.0909405
210 0.119674
215 0.11609
220 0.0980977
225 0.131512
230 0.0577241
235 0.110994
240 0.102938
245 0.135426
250 0.187094
255 0.126936
260 0.147773
265 0.0585247
270 0.0761577
275 0.0958757
280 0.117741
285 0.115418
290 0.154768
295 0.155397
300 0.115538
305 0.109324
310 0.13449
315 0.140707
320 0.0754333
325 0.102575
330 0.0505952
335 0.10724
340 0.0861832
345 0.0694162
350 0.087356
355 0.154971
360 0.175972
365 0.165893
370 0.211224
375 0.157448
380 0.0663458
385 0.178512
390 0.113012
395 0.113865
400 0.0391268
405 0.171837
410 0.129395
415 0.151749
420 0.199622
425 0.0892313
430 0.0689476
435 0.131243
440 0.138223
445 0.111978
450 0.184435
455 0.115452
460 0.0819859
465 0.102532
470 0.145491
475 0.0879492
480 0.139866
485 0.135109
490 0.117275
495 0.124209
500 0.145822
505 0.157423
510 0.249813
515 0.172674
520 0.115344
525 0.236939
530 0.154275
535 0.279816
540 0.225366
545 0.329014
550 0.402973
555 0.536462
560 19.5054
565 473.583
570 933.666
575 288.5
580 34.5787
585 4.39318
590 0.879628
595 0.367106
600 0.969335
Ex : 578
200 0.110732
205 0.209438
210 0.184484
215 0.23146
220 0.0914244
225 0.0844113
230 0.18435
235 0.0956322
240 0.126879
245 0.0834042
250 0.0576464
255 0.199321
260 0.140726
265 0.14195
270 0.0920846
275 0.0728446
280 0.049481
285 0.283516
290 0.0863723
295 0.0758443
300 0.0865596
305 0.059919
310 0.106935
315 0.096417
320 0.0825976
325 0.141384
330 0.253965
335 0.132235
340 0.137082
345 0.135482
350 0.0595673
355 0.0785265
360 0.0975273
365 0.166692
370 0.121519
375 0.160656
380 0.149766
385 0.104815
390 0.117154
395 0.111363
400 0.121843
405 0.133404
410 0.102296
415 0.128182
420 0.154506
425 0.162883
430 0.146947
435 0.134076
440 0.171912
445 0.197734
450 0.133641
455 0.113984
460 0.0850106
465 0.149685
470 0.211952
475 0.168889
480 0.0574524
485 0.147565
490 0.212043
495 0.176737
500 0.165508
505 0.246562
510 0.242714
515 0.27518
520 0.218943
525 0.202447
530 0.185381
535 0.169909
540 0.22107
545 0.281551
550 0.258332
555 0.405376
560 0.639308
565 17.0184
570 428.995
575 824.809
580 254.699
585 30.4071
590 3.79798
595 0.757791
600 0.0862337
Ex : 583
200 0.18705
205 0.0747673
210 0.095176
215 0.233016
220 0.153267
225 0.131457
230 0.119802
235 0.0852636
240 0.108865
245 0.208535
250 0.105845
255 0.146673
260 0.161977
265 0.122075
270 0.100672
275 0.0985526
280 0.124268
285 0.121396
290 0.105325
295 0.104803
300 0.17006
305 0.105162
310 0.0722499
315 0.0718858
320 0.0587949
325 0.0973713
330 0.101804
335 0.110785
340 0.102062
345 0.156088
350 0.154816
355 0.110942
360 0.10129
365 0.0851408
370 0.0857089
375 0.215064
380 0.0862492
385 0.15921
390 0.147069
395 0.141503
400 0.162006
405 0.158465
410 0.134745
415 0.199246
420 0.0722877
425 0.185855
430 0.158136
435 0.119452
440 0.106611
445 0.135565
450 0.173459
455 0.160216
460 0.163768
465 0.140413
470 0.123744
475 0.125793
480 0.118829
485 0.130913
490 0.170697
495 0.160191
500 0.178716
505 0.0955583
510 0.085918
515 0.10876
520 0.128821
525 0.10469
530 0.159465
535 0.248374
540 0.132127
545 0.211073
550 0.275524
555 0.32476
560 0.451657
565 0.697181
570 13.86
575 378.145
580 721.405
585 210.453
590 25.0012
595 3.16813
600 0.360521
Ex : 588
200 0.0634535
205 0.108448
210 0.118124
215 0.175285
220 0.12437
225 0.103158
230 0.0920077
235 0.282613
240 0.0872594
245 0.0973085
250 0.0528064
255 0.148295
260 0.123688
265 0.0683894
270 0.0712597
275 0.111344
280 0.086598
285 0.0935806
290 0.0894159
295 0.0756483
300 0.15164
305 0.204225
310 0.0812376
315 0.0884471
320 0.170673
325 0.229312
330 0.0735867
335 0.112861
340 0.0592412
345 0.120009
350 0.0968732
355 0.1435
360 0.0677957
365 0.2518
370 0.0844594
375 0.0597063
380 0.1173
385 0.0849842
390 0.0634224
395 0.140378
400 0.132155
405 0.120339
410 0.141665
415 0.132118
420 0.131616
425 0.208039
430 0.184676
435 0.102439
440 0.169194
445 0.0999018
450 0.135406
455 0.116008
460 0.233862
465 0.18625
470 0.15521
475 0.114891
480 0.166586
485 0.149053
490 0.146174
495 0.14982
500 0.124824
505 0.239993
510 0.169221
515 0.135916
520 0.236825
525 0.133721
530 0.190138
535 0.188003
540 0.166387
545 0.181062
550 0.245265
555 0.196681
560 0.186276
565 0.458416
570 0.458272
575 13.1478
580 323.007
585 607.094
590 185.509
595 22.0679
600 3.0603
Ex : 593
200 0.146152
205 0.12407
210 0.113086
215 0.0703976
220 0.097067
225 0.0572476
230 0.185935
235 0.0917313
240 0.0931876
245 0.0904382
250 0.0899792
255 0.173844
260 0.0573597
265 0.136842
270 0.0864103
275 0.144213
280 0.140004
285 0.0912229
290 0.201513
295 0.174168
300 0.110866
305 0.0507254
310 0.11576
315 0.157169
320 0.102002
325 0.0949752
330 0.102674
335 0.162908
340 0.0740165
345 0.119118
350 0.086073
355 0.160018
360 0.189024
365 0.116266
370 0.279671
375 0.17639
380 0.15247
385 0.244532
390 0.178195
395 0.117222
400 0.1687
405 0.224153
410 0.194115
415 0.160073
420 0.144379
425 0.185384
430 0.104117
435 0.149713
440 0.103362
445 0.101317
450 0.126497
455 0.132555
460 0.239093
465 0.204513
470 0.11014
475 0.140636
480 0.205662
485 0.156568
490 0.173475
495 0.11192
500 0.18441
505 0.2575
510 0.109896
515 0.156704
520 0.109876
525 0.14112
530 0.16257
535 0.114367
540 0.192285
545 0.173377
550 0.3064
555 0.209147
560 0.348457
565 0.178927
570 0.349062
575 0.351069
580 10.6681
585 277.719
590 516.749
595 158.127
600 21.2279
Ex : 598
200 0.0940284
205 0.152107
210 0.172382
215 0.205635
220 0.138904
225 0.0919463
230 0.176648
235 0.115385
240 0.134275
245 0.158353
250 0.130189
255 0.122905
260 0.109673
265 0.192366
270 0.128316
275 0.179038
280 0.116873
285 0.140894
290 0.0644485
295 0.112172
300 0.110215
305 0.145893
310 0.129835
315 0.124916
320 0.0815793
325 0.104866
330 0.182651
335 0.127251
340 0.120778
345 0.169426
350 0.086608
355 0.126195
360 0.110853
365 0.155671
370 0.245164
375 0.161799
380 0.16877
385 0.108673
390 0.173402
395 0.17384
400 0.134902
405 0.119511
410 0.280929
415 0.255377
420 0.1084
425 0.159839
430 0.138904
435 0.170452
440 0.127384
445 0.136016
450 0.248654
455 0.119396
460 0.198713
465 0.159017
470 0.121948
475 0.179724
480 0.145072
485 0.136761
490 0.202928
495 0.128754
500 0.110353
505 0.152209
510 0.0632205
515 0.216338
520 0.178829
525 0.150038
530 0.121782
535 0.152794
540 0.161188
545 0.120603
550 0.175252
555 0.289281
560 0.192392
565 0.250356
570 0.228169
575 0.382367
580 0.452334
585 11.2725
590 256.169
595 460.235
600 300.15
Ex : 603
200 0.0978111
205 0.0933882
210 0.0887596
215 0.0921206
220 0.0976911
225 0.0666261
230 0.0617338
235 0.132151
240 0.24799
245 0.152721
250 0.0640585
255 0.0354034
260 0.0474857
265 0.165669
270 0.130488
275 0.105013
280 0.0606658
285 0.0979362
290 0.125125
295 0.154324
300 0.139979
305 0.101198
310 0.0879399
315 0.264415
320 0.162914
325 0.135711
330 0.182897
335 0.131698
340 0.129035
345 0.116849
350 0.114588
355 0.0789979
360 0.127676
365 0.189623
370 0.0919876
375 0.101134
380 0.12136
385 0.183539
390 0.22316
395 0.150254
400 0.0817706
405 0.0875618
410 0.14077
415 0.187509
420 0.0702378
425 0.24837
430 0.132658
435 0.126705
440 0.111693
445 0.135887
450 0.176479
455 0.0932893
460 0.133105
465 0.229548
470 0.126095
475 0.101662
480 0.120484
485 0.134765
490 0.134602
495 0.138196
500 0.238163
505 0.232479
510 0.136989
515 0.0785875
520 0.160758
525 0.16164
530 0.186739
535 0.214026
540 0.0832948
545 0.169566
550 0.25154
555 0.210881
560 0.187772
565 0.152977
570 0.175753
575 0.265687
580 0.268672
585 0.366982
590 8.88085
595 210.659
600 417.861
