File format V 1.0
ven. 6. janv. 13:28:16 2017
Operator : 
Comments : 

=============================================
SpectroFluorometer parameters
Mode : 3D measurement
Data : Fluorescence
Phospho. : Ordinary
Spectrum : Fluorescence

Scan speed : 2400 nm/mn
Response : 100 ms
PM Voltage : 700 V
Shutter : On

Lambda Ex. Start : 203
Lambda Ex. End : 603
Lambda Ex. Step : 5
Ex. Slit : 5 nm

Lambda Em. Start : 200
Lambda Em. End : 600
Lambda Em. Step : 5
Em. Slit : 5 nm

Repetition : 1
Decal lambda em : 10
=============================================
DATA
Ex : 203
200 8.49309
205 15.748
210 11.8078
215 10.8733
220 9.56924
225 9.72728
230 10.1346
235 14.877
240 11.9563
245 9.16921
250 9.44069
255 12.3537
260 8.52511
265 11.0637
270 9.49742
275 10.2487
280 10.6457
285 10.0194
290 7.88768
295 9.31442
300 9.01128
305 10.5351
310 9.14187
315 11.0155
320 11.305
325 12.3482
330 10.9267
335 7.67039
340 8.71533
345 12.4011
350 11.6473
355 9.06867
360 9.1529
365 11.9672
370 10.9075
375 11.7665
380 9.98945
385 12.6832
390 13.0183
395 14.2221
400 11.6223
405 7.64335
410 8.99056
415 10.2984
420 13.2316
425 10.7845
430 11.544
435 8.7886
440 13.5574
445 12.6224
450 11.0458
455 11.3821
460 9.72696
465 16.3339
470 13.1857
475 9.69266
480 9.58139
485 11.9816
490 11.3534
495 12.5798
500 10.628
505 9.17694
510 7.95753
515 9.04915
520 12.0041
525 8.93755
530 11.2515
535 11.1084
540 11.8136
545 11.9584
550 11.1679
555 11.2276
560 13.6192
565 10.7269
570 8.07913
575 11.0954
580 8.24799
585 7.83683
590 8.22238
595 9.5133
600 28.1118
Ex : 208
200 7.24545
205 10.0168
210 9.69841
215 12.5526
220 8.55432
225 9.84351
230 7.95263
235 9.64327
240 8.20348
245 8.0318
250 7.53885
255 8.08574
260 12.1275
265 11.492
270 12.3552
275 11.0265
280 10.7692
285 10.1766
290 9.85445
295 11.9029
300 10.2528
305 13.7102
310 12.3958
315 8.46555
320 10.83
325 9.36312
330 12.3148
335 11.3202
340 7.86784
345 11.2659
350 10.7979
355 9.05137
360 9.26248
365 10.2836
370 10.3545
375 10.7029
380 11.6658
385 12.7442
390 12.2619
395 11.2088
400 12.0243
405 14.2731
410 11.6468
415 11.2738
420 11.4762
425 14.9577
430 10.6873
435 10.3993
440 11.3725
445 11.0627
450 8.31524
455 13.7076
460 14.2375
465 13.8333
470 14.2047
475 15.6697
480 9.11553
485 10.4567
490 13.7894
495 10.325
500 12.5948
505 11.9742
510 12.1935
515 10.4023
520 11.7852
525 11.0937
530 9.00526
535 10.0468
540 9.40168
545 12.2102
550 9.74007
555 9.39459
560 13.6071
565 14.2709
570 12.1867
575 8.20491
580 9.72387
585 11.9746
590 13.6936
595 9.27546
600 1.05551
Ex : 213
200 10.8034
205 12.1063
210 11.4703
215 13.1034
220 9.41749
225 10.0322
230 9.6404
235 10.2295
240 11.9732
245 12.1266
250 9.96215
255 10.4451
260 12.7054
265 10.7008
270 9.52177
275 12.1208
280 12.1398
285 9.65411
290 5.41552
295 13.4532
300 11.7223
305 11.5173
310 12.2105
315 10.4873
320 8.5046
325 10.8334
330 14.7444
335 10.9203
340 13.901
345 15.1322
350 17.5018
355 11.3877
360 11.557
365 11.9701
370 18.2124
375 10.9931
380 10.6439
385 12.2744
390 10.5645
395 11.0424
400 11.7277
405 13.3909
410 11.9964
415 11.2791
420 10.3094
425 11.3372
430 10.6436
435 12.2908
440 11.5816
445 10.8953
450 12.4749
455 9.00667
460 10.1105
465 10.0413
470 11.0346
475 7.34684
480 11.1737
485 10.8651
490 14.1073
495 10.4216
500 10.7247
505 11.0918
510 15.5395
515 12.8052
520 11.0094
525 9.91793
530 10.2508
535 14.6377
540 10.2089
545 9.80525
550 11.2884
555 11.5283
560 10.9329
565 12.2492
570 7.84646
575 12.0433
580 12.0712
585 13.6186
590 10.4078
595 10.5616
600 21.7323
Ex : 218
200 7.67788
205 7.73558
210 7.32137
215 8.21817
220 12.1937
225 9.33823
230 11.5183
235 9.44124
240 10.2825
245 9.54391
250 12.906
255 10.7335
260 12.5582
265 11.1056
270 11.4892
275 8.83048
280 10.1877
285 11.2718
290 10.4786
295 8.55567
300 9.57061
305 9.59511
310 9.96538
315 10.8358
320 11.044
325 13.1393
330 10.3003
335 12.0091
340 7.20676
345 10.1943
350 11.8332
355 13.2648
360 9.93662
365 9.93793
370 13.1068
375 12.1634
380 11.2749
385 8.61627
390 9.03576
395 17.9471
400 11.8627
405 7.84477
410 9.93937
415 9.81154
420 13.4417
425 11.9021
430 15.4686
435 13.593
440 8.78416
445 9.54229
450 9.9873
455 10.7679
460 10.2686
465 13.252
470 10.7003
475 11.8725
480 12.1492
485 10.9543
490 11.5843
495 14.0245
500 12.5164
505 11.4914
510 13.0239
515 11.5661
520 9.71364
525 9.60056
530 13.654
535 12.2784
540 11.8758
545 10.4477
550 14.3681
555 10.9241
560 10.3903
565 9.31072
570 10.4102
575 13.9164
580 11.0159
585 11.7662
590 10.3288
595 8.93661
600 7.57486
Ex : 223
200 9.24123
205 8.25411
210 10.318
215 11.1795
220 9.91454
225 7.87213
230 10.1048
235 9.57489
240 13.8023
245 11.9541
250 10.5792
255 12.6557
260 8.14889
265 8.99365
270 11.9546
275 12.9006
280 11.777
285 14.4766
290 12.8646
295 8.53739
300 8.65196
305 12.0129
310 10.0567
315 8.16409
320 14.0284
325 12.0032
330 10.2403
335 11.3783
340 10.7198
345 9.53466
350 11.9755
355 8.80769
360 13.6746
365 12.3645
370 10.9657
375 11.8344
380 9.93607
385 9.58523
390 14.6215
395 14.2496
400 11.0931
405 10.0769
410 12.07
415 8.72618
420 11.1488
425 11.7236
430 9.67951
435 13.5714
440 12.7292
445 9.78541
450 9.91753
455 8.30092
460 12.9798
465 11.3737
470 12.4362
475 9.36382
480 10.9149
485 11.4755
490 9.6936
495 10.6229
500 11.3603
505 10.0138
510 9.72488
515 10.9592
520 10.8871
525 10.0147
530 9.01121
535 14.4002
540 7.73229
545 12.8907
550 14.4474
555 12.2986
560 13.4305
565 11.3448
570 8.42375
575 9.94995
580 7.82045
585 13.3307
590 11.9679
595 13.8539
600 22.55
Ex : 228
200 7.80841
205 11.3554
210 9.54473
215 11.6204
220 11.8264
225 14.882
230 9.53272
235 9.56648
240 8.86273
245 10.1634
250 9.34431
255 9.92538
260 9.46469
265 12.1704
270 10.9068
275 9.02599
280 9.1238
285 9.70878
290 9.31304
295 7.88053
300 10.7486
305 10.8811
310 7.56717
315 10.1367
320 11.2816
325 13.1621
330 9.76269
335 9.80847
340 10.3319
345 14.5889
350 14.9651
355 11.3653
360 8.47701
365 9.94298
370 11.635
375 11.5323
380 10.5682
385 11.9626
390 11.9841
395 8.37665
400 9.52112
405 9.61612
410 11.1199
415 9.78849
420 9.74089
425 10.0428
430 10.3362
435 11.2836
440 11.5545
445 9.57352
450 10.8377
455 10.6886
460 11.0849
465 6.64399
470 11.1757
475 10.3398
480 11.7631
485 11.9465
490 11.1683
495 11.8037
500 11.1395
505 11.035
510 7.7957
515 8.54954
520 10.1842
525 13.2113
530 10.7402
535 12.9398
540 12.9852
545 13.1658
550 9.63816
555 15.1335
560 10.0968
565 11.8068
570 11.4478
575 10.2741
580 12.5947
585 8.71896
590 11.3147
595 14.1782
600 2.67687
Ex : 233
200 9.62903
205 9.16885
210 8.96667
215 9.7895
220 9.73243
225 11.7277
230 9.87467
235 7.27995
240 9.84249
245 11.1334
250 8.96982
255 9.09152
260 9.20031
265 8.91917
270 7.95629
275 10.715
280 11.9459
285 8.99242
290 8.86194
295 7.31439
300 10.5345
305 10.2606
310 10.8483
315 10.6019
320 8.66503
325 10.0321
330 9.0017
335 8.39596
340 9.98024
345 9.17972
350 10.8734
355 9.8241
360 10.2455
365 8.80343
370 7.56401
375 14.4171
380 9.01105
385 9.6533
390 8.14401
395 12.8868
400 9.76262
405 10.8517
410 10.944
415 7.04203
420 8.74928
425 8.35301
430 9.79811
435 10.8523
440 10.3105
445 10.3067
450 11.0777
455 11.7807
460 10.1121
465 9.32018
470 7.03521
475 11.7304
480 13.017
485 13.3408
490 10.0603
495 8.69934
500 8.14828
505 8.70576
510 8.90527
515 7.51221
520 11.8711
525 10.8557
530 8.53349
535 10.1148
540 10.3427
545 9.28301
550 12.0218
555 10.3546
560 11.3099
565 10.464
570 10.419
575 11.0636
580 8.83099
585 7.70149
590 11.0517
595 12.1217
600 10.7732
Ex : 238
200 8.87456
205 7.59266
210 6.90454
215 10.3989
220 12.3212
225 6.70959
230 8.52127
235 10.0019
240 9.99705
245 11.0421
250 11.0249
255 9.23708
260 8.96442
265 7.49414
270 9.26676
275 8.55214
280 9.10927
285 8.71238
290 8.53945
295 8.05808
300 4.86837
305 7.3096
310 8.95265
315 7.43612
320 7.75794
325 6.57534
330 10.038
335 10.1491
340 5.93908
345 8.30376
350 8.14218
355 6.23111
360 9.20464
365 9.4984
370 8.18384
375 10.841
380 9.90205
385 11.1998
390 9.15294
395 11.3043
400 9.2097
405 9.41584
410 8.06079
415 9.03573
420 7.90934
425 6.77733
430 7.74927
435 9.00537
440 9.12342
445 8.63183
450 10.1867
455 9.99739
460 9.45064
465 8.69047
470 9.32893
475 10.0493
480 6.95387
485 11.5966
490 9.04894
495 9.22794
500 10.4632
505 8.19069
510 6.73444
515 6.1359
520 8.76856
525 9.82134
530 8.3845
535 9.61571
540 8.60109
545 9.03697
550 9.8342
555 8.89117
560 7.88153
565 7.61509
570 8.66449
575 6.9645
580 8.68625
585 8.32703
590 11.357
595 7.49256
600 5.28364
Ex : 243
200 7.61386
205 10.0693
210 9.51814
215 9.64593
220 10.0552
225 8.4054
230 8.2684
235 8.85323
240 7.38471
245 8.15005
250 9.7726
255 9.74823
260 7.42845
265 6.12402
270 4.81497
275 6.21489
280 7.50936
285 8.12867
290 6.44012
295 8.68229
300 8.7314
305 7.01919
310 7.26066
315 7.14438
320 8.63472
325 6.76429
330 8.74857
335 8.82418
340 7.56716
345 8.59712
350 11.1949
355 7.71308
360 9.82058
365 7.75957
370 8.59786
375 10.1762
380 8.79432
385 7.93575
390 7.24886
395 6.53918
400 9.46438
405 5.72038
410 7.35744
415 8.62383
420 6.78833
425 9.22287
430 8.46533
435 9.70505
440 7.95577
445 9.65768
450 9.63648
455 6.50985
460 7.14211
465 8.69212
470 8.04259
475 8.19555
480 8.10198
485 8.42415
490 9.14798
495 6.69623
500 7.60757
505 7.68498
510 7.68613
515 9.52176
520 9.13016
525 7.98091
530 8.72526
535 10.7214
540 9.50389
545 6.94651
550 6.68517
555 5.97787
560 6.38179
565 8.38598
570 8.10641
575 6.74949
580 6.95682
585 9.72604
590 8.19642
595 5.97704
600 16.1887
Ex : 248
200 7.89041
205 7.18388
210 7.56894
215 6.38325
220 6.86527
225 5.45717
230 9.11315
235 6.78449
240 6.0739
245 6.86525
250 8.01513
255 8.15796
260 6.43998
265 6.44282
270 6.97722
275 8.99331
280 6.12037
285 7.61755
290 8.41224
295 8.07801
300 7.25255
305 9.76517
310 6.14167
315 5.93257
320 6.87594
325 7.20291
330 6.52692
335 5.97209
340 6.85792
345 7.3548
350 7.25813
355 5.23561
360 4.30219
365 5.59263
370 7.2921
375 7.39889
380 7.00271
385 6.07382
390 9.12557
395 7.00919
400 6.81502
405 7.07399
410 6.56794
415 5.33908
420 6.80087
425 7.97368
430 8.69731
435 6.9633
440 8.18334
445 8.73626
450 6.87373
455 7.76011
460 7.39813
465 6.94943
470 9.51227
475 7.0157
480 6.55868
485 9.35743
490 8.65823
495 7.87421
500 5.67737
505 8.0647
510 8.22127
515 8.63627
520 6.61722
525 6.15786
530 6.37037
535 7.39437
540 7.33264
545 8.21114
550 6.57596
555 7.55702
560 7.12213
565 8.71794
570 5.96884
575 7.99545
580 8.53328
585 8.01947
590 6.292
595 6.05169
600 8.88604
Ex : 253
200 5.12871
205 5.68149
210 5.33013
215 5.12706
220 5.25093
225 6.15335
230 5.13125
235 4.60182
240 6.60763
245 6.08709
250 6.2622
255 6.47849
260 4.8519
265 6.77454
270 5.67273
275 4.49444
280 6.99029
285 6.61631
290 5.65452
295 6.1422
300 7.55722
305 7.10793
310 5.4778
315 6.19722
320 3.86463
325 6.23122
330 4.29929
335 4.57056
340 6.00689
345 5.46336
350 7.50781
355 6.3719
360 7.15548
365 4.93599
370 5.78552
375 6.39378
380 6.7643
385 6.29266
390 4.60505
395 7.63774
400 6.17537
405 4.68332
410 6.47746
415 6.57435
420 6.41762
425 6.2871
430 7.31584
435 5.97788
440 7.37962
445 6.15038
450 5.70822
455 6.22475
460 4.66629
465 5.74548
470 5.93116
475 6.99941
480 5.14983
485 7.21697
490 6.5882
495 6.59339
500 6.69146
505 6.82409
510 7.9228
515 7.40325
520 5.85547
525 5.75542
530 7.34136
535 7.08218
540 6.58485
545 5.30312
550 5.55579
555 5.7295
560 7.29852
565 4.94775
570 6.17135
575 4.96134
580 5.52471
585 5.26635
590 4.95168
595 5.09369
600 0.579642
Ex : 258
200 5.46589
205 6.27786
210 5.46607
215 3.51755
220 4.29671
225 4.58296
230 6.07964
235 4.60312
240 4.55684
245 3.22755
250 3.31608
255 3.54796
260 3.90726
265 3.12069
270 4.54555
275 4.35569
280 5.56191
285 4.03538
290 4.73343
295 4.44292
300 6.72289
305 4.6622
310 4.22743
315 4.03481
320 5.22595
325 5.99264
330 7.77157
335 4.65817
340 4.43402
345 4.51515
350 5.37648
355 4.38092
360 4.68866
365 5.08669
370 3.85152
375 5.89171
380 6.04664
385 4.66981
390 6.00944
395 6.18681
400 4.46264
405 4.35492
410 5.83411
415 6.47229
420 5.66046
425 5.4435
430 4.54763
435 6.34412
440 6.14054
445 4.33995
450 5.26643
455 6.73239
460 5.89753
465 5.45662
470 4.25665
475 5.61749
480 5.75417
485 5.84943
490 3.465
495 5.36421
500 4.81275
505 5.24492
510 5.04327
515 6.17604
520 5.25672
525 4.71109
530 3.89868
535 4.58812
540 3.85841
545 4.24783
550 3.59375
555 5.34612
560 4.4824
565 5.16878
570 3.67627
575 6.73556
580 4.53016
585 4.42452
590 4.44859
595 4.8516
600 1.586
Ex : 263
200 3.7084
205 3.84665
210 3.68047
215 2.85942
220 4.18924
225 4.19239
230 3.41722
235 4.47509
240 3.67145
245 2.69135
250 3.48931
255 4.30262
260 3.32039
265 4.27177
270 3.39874
275 4.03005
280 3.16637
285 3.91363
290 3.04097
295 3.85592
300 2.97041
305 3.37845
310 2.87717
315 2.61806
320 3.77814
325 3.10509
330 4.88549
335 5.77189
340 2.97621
345 4.17937
350 2.9238
355 5.52785
360 4.60272
365 4.4813
370 3.91215
375 3.63892
380 3.68557
385 4.61772
390 4.69867
395 5.14837
400 3.75207
405 4.5438
410 3.93367
415 4.21156
420 4.37996
425 4.99815
430 4.60808
435 4.43661
440 4.68168
445 3.81651
450 4.74791
455 4.05724
460 4.8537
465 4.47088
470 3.91454
475 4.13184
480 4.67749
485 4.63939
490 4.25611
495 3.88051
500 3.46312
505 4.79038
510 3.99178
515 4.59595
520 5.22594
525 3.63128
530 5.54229
535 3.84671
540 4.19739
545 4.20674
550 4.87439
555 4.4243
560 3.61629
565 4.78068
570 3.4165
575 3.68203
580 3.53092
585 3.44486
590 5.09777
595 4.05881
600 4.00669
Ex : 268
200 2.71125
205 4.27524
210 3.4698
215 3.55032
220 2.68407
225 2.71843
230 2.87361
235 2.60007
240 2.736
245 3.17773
250 3.36455
255 3.03814
260 2.18273
265 2.52944
270 3.60913
275 2.98926
280 2.82041
285 2.20738
290 2.41096
295 2.98201
300 2.56598
305 3.26956
310 3.46052
315 3.06915
320 2.55309
325 3.37443
330 3.2355
335 2.87132
340 2.61233
345 3.26622
350 2.92921
355 3.50313
360 3.04836
365 3.41764
370 3.57482
375 2.31623
380 3.54197
385 3.69371
390 3.29856
395 3.90804
400 3.90587
405 3.79432
410 4.57461
415 3.12523
420 4.01081
425 3.2848
430 3.88672
435 3.28083
440 2.83627
445 3.44296
450 3.83517
455 3.31547
460 3.62522
465 3.60694
470 3.91296
475 3.0187
480 3.11991
485 3.92729
490 3.88081
495 3.0526
500 4.03461
505 3.25854
510 3.00894
515 3.30505
520 2.50721
525 2.78587
530 3.31398
535 3.62803
540 3.47876
545 3.65733
550 3.06569
555 2.61211
560 3.62164
565 2.91042
570 2.40541
575 2.65067
580 2.23497
585 3.00908
590 2.50275
595 2.86552
600 5.34791
Ex : 273
200 2.56636
205 2.29914
210 1.85918
215 2.1208
220 2.28877
225 3.48747
230 2.22767
235 2.78953
240 2.1509
245 2.52851
250 1.67484
255 2.19164
260 1.97645
265 1.98916
270 2.98466
275 1.77169
280 2.52675
285 2.17129
290 2.18799
295 2.29698
300 3.19379
305 2.92901
310 2.31823
315 1.97148
320 2.21013
325 2.71594
330 2.67258
335 2.31037
340 2.38138
345 2.59548
350 2.33507
355 2.42403
360 3.0298
365 2.64637
370 3.00321
375 3.07661
380 3.22868
385 2.55114
390 2.95258
395 2.64961
400 3.68315
405 3.89221
410 3.70295
415 2.98133
420 2.96632
425 3.32918
430 3.2382
435 2.85221
440 4.03093
445 3.59135
450 3.4889
455 2.801
460 2.4613
465 3.39215
470 2.83941
475 2.87794
480 2.47568
485 3.68093
490 2.48001
495 2.52158
500 2.32112
505 2.49816
510 2.31873
515 2.59762
520 2.99087
525 2.12373
530 2.01684
535 3.3398
540 3.25158
545 2.19211
550 2.20148
555 2.32137
560 2.16252
565 1.92578
570 2.38181
575 2.90657
580 2.16679
585 1.76062
590 1.84262
595 2.44107
600 0.277784
Ex : 278
200 2.02959
205 2.20047
210 2.04359
215 2.14275
220 2.01097
225 2.57769
230 1.94194
235 2.10342
240 1.80854
245 1.7593
250 2.45862
255 1.89558
260 1.64456
265 2.58741
270 2.10808
275 1.84741
280 2.03802
285 2.35881
290 2.15319
295 1.94308
300 1.69989
305 1.87752
310 2.0027
315 2.03491
320 1.91641
325 1.69382
330 1.80057
335 1.84333
340 2.22968
345 1.85594
350 2.52471
355 2.03572
360 2.30469
365 2.09173
370 2.33788
375 2.69423
380 2.53341
385 2.59242
390 2.44492
395 2.40968
400 2.20165
405 2.06726
410 2.79227
415 2.34785
420 2.5677
425 2.83354
430 2.90482
435 2.29882
440 2.03023
445 2.61817
450 2.46438
455 2.13088
460 2.11169
465 2.79753
470 2.65066
475 2.35533
480 2.32884
485 1.66464
490 2.29529
495 1.76714
500 2.5586
505 1.85674
510 1.80721
515 1.89305
520 2.11175
525 1.83323
530 2.68348
535 2.48348
540 2.26287
545 2.15333
550 2.40484
555 3.27464
560 3.1597
565 1.9731
570 1.99245
575 1.92353
580 2.2777
585 2.18856
590 1.95248
595 2.51477
600 2.28728
Ex : 283
200 1.6501
205 2.29047
210 2.24317
215 1.65074
220 2.09194
225 1.50451
230 1.46452
235 1.35488
240 1.55495
245 1.55908
250 1.50547
255 1.3377
260 1.68452
265 1.66177
270 1.73136
275 2.10635
280 1.87509
285 1.74466
290 1.85554
295 1.51779
300 1.23352
305 1.39738
310 1.7569
315 1.51071
320 1.57371
325 1.76879
330 1.3199
335 1.47328
340 1.75594
345 1.85832
350 1.97206
355 1.73392
360 1.77042
365 2.46425
370 2.01356
375 1.98098
380 2.37198
385 2.1576
390 2.37797
395 2.72505
400 1.96294
405 2.34915
410 2.21052
415 2.29038
420 1.84086
425 2.19845
430 2.46727
435 2.46557
440 2.52104
445 2.39568
450 1.90106
455 1.79902
460 2.28532
465 2.11594
470 1.89755
475 2.12587
480 1.75742
485 1.43394
490 1.58287
495 1.55568
500 1.81018
505 1.63383
510 1.70173
515 2.63628
520 1.3841
525 1.67743
530 1.56894
535 1.8975
540 1.61945
545 1.02757
550 1.90802
555 1.96393
560 2.73698
565 1.94244
570 2.05079
575 1.46863
580 1.84217
585 1.5843
590 1.82825
595 2.23009
600 1.08934
Ex : 288
200 1.56975
205 1.45576
210 1.056
215 1.42875
220 1.32272
225 1.35337
230 1.32181
235 1.25544
240 1.2941
245 1.14287
250 1.46798
255 1.66735
260 1.53095
265 1.26663
270 1.72208
275 1.16662
280 2.17103
285 1.66831
290 1.42394
295 1.12589
300 1.17493
305 1.27408
310 1.41809
315 1.72891
320 1.55051
325 1.61263
330 1.68409
335 1.53536
340 1.46013
345 0.976652
350 1.81928
355 1.89397
360 1.68089
365 1.61607
370 1.78557
375 1.82218
380 1.44324
385 2.28645
390 2.18249
395 1.51933
400 1.83178
405 1.83237
410 1.76838
415 1.7737
420 1.73151
425 1.69121
430 1.43093
435 1.77028
440 2.22072
445 1.92968
450 2.40201
455 1.68167
460 1.62891
465 2.18257
470 1.49746
475 1.75633
480 1.99003
485 1.47018
490 2.0925
495 1.24641
500 1.97758
505 1.38673
510 1.48867
515 1.73907
520 1.3752
525 1.27773
530 1.46414
535 1.88844
540 1.69989
545 1.71878
550 1.53252
555 1.29121
560 1.70634
565 1.55753
570 1.84649
575 2.09583
580 1.60165
585 1.24508
590 1.09241
595 1.44628
600 1.36096
Ex : 293
200 1.12228
205 1.12941
210 1.13358
215 1.13354
220 1.03873
225 1.5251
230 1.20544
235 1.1592
240 0.975171
245 0.90833
250 1.21784
255 0.782485
260 1.18958
265 1.20218
270 1.22411
275 1.39702
280 1.04697
285 1.26668
290 1.18726
295 1.45974
300 1.08129
305 1.21042
310 1.04704
315 0.881924
320 1.23887
325 1.59657
330 1.57505
335 1.34984
340 1.11952
345 1.43254
350 1.98347
355 1.57707
360 1.36151
365 1.66037
370 1.51534
375 1.43016
380 1.5622
385 1.14164
390 1.2674
395 1.77661
400 1.75436
405 1.27021
410 1.69272
415 1.90668
420 1.85144
425 1.74023
430 1.58432
435 1.50313
440 1.70318
445 1.61777
450 1.20065
455 1.99824
460 1.80128
465 1.84459
470 1.75876
475 1.71161
480 1.83627
485 1.69466
490 1.36896
495 1.40367
500 1.63274
505 1.32781
510 1.30115
515 1.39668
520 1.57704
525 1.16071
530 1.59376
535 1.61672
540 1.26264
545 1.09949
550 1.23354
555 1.16196
560 0.849016
565 1.05768
570 1.06999
575 1.64141
580 1.55993
585 1.48352
590 1.1234
595 1.13205
600 0.433456
Ex : 298
200 1.18987
205 1.30835
210 1.17441
215 1.22768
220 0.976654
225 0.918945
230 1.03734
235 1.28051
240 0.8536
245 0.843434
250 1.13916
255 0.981007
260 1.17384
265 1.01785
270 0.951192
275 0.782712
280 0.987641
285 1.04938
290 1.43061
295 1.2693
300 1.19688
305 1.3244
310 0.924161
315 0.953832
320 1.10066
325 0.957804
330 1.04508
335 1.25082
340 1.44767
345 1.40349
350 0.818179
355 1.26239
360 1.16811
365 1.33505
370 1.35887
375 1.56814
380 1.64772
385 1.67771
390 1.77381
395 1.61931
400 1.48098
405 1.32118
410 1.79841
415 1.40714
420 1.27577
425 1.4017
430 1.30739
435 1.68694
440 1.80363
445 1.63992
450 1.25766
455 1.41051
460 1.50634
465 1.63385
470 1.59959
475 1.36815
480 1.25672
485 1.22445
490 1.27329
495 1.18479
500 1.15011
505 1.36941
510 1.20869
515 0.949222
520 0.918858
525 0.865605
530 1.32108
535 1.16738
540 1.21092
545 1.18598
550 1.0696
555 1.08311
560 1.48817
565 1.20423
570 1.02867
575 1.02062
580 0.935123
585 1.11173
590 1.62043
595 1.64891
600 4.06068
Ex : 303
200 0.748023
205 1.06538
210 0.681371
215 0.810703
220 0.901722
225 1.12197
230 0.919038
235 1.03064
240 0.804536
245 0.867827
250 0.838043
255 0.922646
260 1.02513
265 0.842318
270 0.865966
275 0.764963
280 0.964877
285 0.878225
290 0.845341
295 1.04271
300 1.30826
305 0.844961
310 0.857714
315 1.01536
320 0.932715
325 0.820288
330 0.890184
335 1.21705
340 1.20707
345 1.23598
350 0.962656
355 1.24673
360 1.23825
365 1.19688
370 1.0055
375 1.21644
380 1.54963
385 1.17735
390 1.59874
395 1.35959
400 1.48012
405 1.49066
410 1.24315
415 1.8135
420 1.38494
425 1.53298
430 1.54341
435 1.59329
440 1.542
445 2.04071
450 1.37794
455 1.31902
460 1.42883
465 1.58887
470 1.02512
475 1.46904
480 1.12416
485 1.23593
490 1.16032
495 1.05388
500 0.981158
505 1.07017
510 1.22667
515 1.2259
520 1.24404
525 0.930578
530 1.03257
535 1.14406
540 0.653748
545 1.08821
550 0.842689
555 1.03544
560 0.887019
565 1.02412
570 0.786507
575 0.88509
580 1.1036
585 0.736948
590 1.02937
595 1.29037
600 1.8049
Ex : 308
200 0.767241
205 0.867892
210 0.704783
215 0.870863
220 0.760327
225 0.765985
230 0.883915
235 0.786555
240 0.615802
245 0.55561
250 0.801779
255 0.796942
260 0.895543
265 0.889183
270 0.959445
275 0.908868
280 0.745393
285 0.784753
290 0.73081
295 0.891739
300 0.993936
305 1.06301
310 1.05939
315 0.981109
320 0.905284
325 0.924776
330 0.932181
335 0.876678
340 1.15081
345 1.23391
350 1.14868
355 1.1725
360 1.07784
365 1.49305
370 1.56863
375 1.32548
380 1.33511
385 1.11262
390 1.09044
395 1.11739
400 1.31755
405 1.30083
410 1.517
415 1.35758
420 1.34931
425 1.1417
430 1.29928
435 1.34955
440 1.18172
445 1.27553
450 1.12584
455 1.55742
460 1.40928
465 1.457
470 1.24065
475 1.28682
480 1.02614
485 1.12911
490 1.20413
495 1.02472
500 1.15822
505 1.0056
510 1.10653
515 1.14232
520 1.06396
525 0.955253
530 0.953413
535 0.758064
540 0.911851
545 0.891206
550 1.02072
555 0.807535
560 0.819006
565 0.722319
570 0.742903
575 0.893773
580 0.823461
585 0.960079
590 0.938626
595 0.636093
600 0.375879
Ex : 313
200 0.7116
205 0.762972
210 0.625052
215 0.651583
220 0.684864
225 0.433971
230 0.796168
235 0.724014
240 0.590095
245 0.506874
250 0.808506
255 0.561401
260 0.652166
265 0.807687
270 0.635312
275 0.952027
280 0.796971
285 0.749999
290 0.716487
295 0.833921
300 0.709242
305 0.949485
310 0.914301
315 0.771435
320 0.73337
325 0.628971
330 0.940007
335 0.756126
340 0.901197
345 1.15728
350 1.02156
355 1.08785
360 1.20636
365 1.37713
370 1.41011
375 1.75322
380 1.61619
385 1.73283
390 1.74908
395 1.65415
400 1.83319
405 2.06542
410 1.88649
415 2.00222
420 1.65601
425 2.08429
430 2.0193
435 2.27417
440 1.53203
445 1.73443
450 1.71554
455 1.72535
460 1.50155
465 1.49874
470 1.50456
475 1.45925
480 1.21275
485 1.12533
490 1.35685
495 1.00974
500 1.2851
505 1.29134
510 0.947266
515 1.03678
520 0.842517
525 1.03215
530 1.1041
535 0.888885
540 0.952367
545 0.95157
550 0.749098
555 0.760659
560 0.785238
565 0.685916
570 0.851853
575 0.668949
580 0.802474
585 0.676208
590 0.797203
595 0.687353
600 0.0782181
Ex : 318
200 0.495866
205 0.687551
210 0.517848
215 0.564502
220 0.581864
225 0.605703
230 0.631899
235 0.622897
240 0.527131
245 0.523867
250 0.600219
255 0.86584
260 0.572154
265 0.532494
270 0.585693
275 0.617894
280 0.62173
285 0.673784
290 0.748695
295 0.669029
300 0.627605
305 0.804412
310 0.986545
315 1.74077
320 1.3016
325 1.13542
330 1.38063
335 1.46981
340 2.08563
345 2.42001
350 3.21493
355 4.1695
360 4.9648
365 5.84562
370 6.81719
375 7.69483
380 8.73512
385 10.0313
390 9.99782
395 11.4725
400 11.6985
405 12.3982
410 12.1394
415 12.7521
420 11.8092
425 11.5442
430 11.5848
435 10.7114
440 10.3301
445 10.9168
450 10.2111
455 9.15503
460 8.59182
465 7.87195
470 7.02694
475 6.61245
480 6.4118
485 5.22592
490 5.04181
495 4.34942
500 3.61619
505 3.5005
510 3.18597
515 2.98113
520 2.33215
525 2.45752
530 2.15579
535 2.14937
540 1.65653
545 1.86027
550 1.38613
555 1.406
560 1.35755
565 1.18254
570 1.01292
575 0.941986
580 0.790208
585 0.713172
590 0.717912
595 0.624184
600 0.701219
Ex : 323
200 0.562644
205 0.598087
210 0.563177
215 0.554487
220 0.62207
225 0.517388
230 0.633152
235 0.541339
240 0.520886
245 0.586536
250 0.622556
255 0.526039
260 0.636757
265 0.684886
270 0.637689
275 0.616955
280 0.580202
285 0.55094
290 0.566675
295 0.826737
300 0.606474
305 0.69474
310 0.760976
315 8.06366
320 33.3625
325 15.3025
330 4.17384
335 4.14653
340 5.42914
345 6.8854
350 9.8442
355 14.1253
360 16.5609
365 18.2778
370 20.8159
375 25.3463
380 28.8185
385 32.4753
390 35.3699
395 37.5206
400 38.7782
405 39.6907
410 39.5426
415 40.8254
420 39.8735
425 38.0588
430 37.1055
435 36.7198
440 35.6242
445 32.3083
450 30.7185
455 28.698
460 28.0474
465 25.3427
470 23.1184
475 21.3227
480 18.9422
485 17.4962
490 15.9781
495 14.3723
500 12.4841
505 11.1227
510 9.4778
515 8.56384
520 7.53331
525 6.66311
530 5.9391
535 4.68726
540 4.43452
545 3.88676
550 3.43156
555 3.21022
560 2.55069
565 2.35536
570 2.13031
575 1.70107
580 1.34896
585 1.16139
590 1.057
595 1.04881
600 0.562453
Ex : 328
200 0.50482
205 0.366007
210 0.499531
215 0.501253
220 0.486436
225 0.470177
230 0.503969
235 0.373824
240 0.589999
245 0.442821
250 0.4409
255 0.716316
260 0.58896
265 0.521145
270 0.517679
275 0.536994
280 0.569656
285 0.573468
290 0.621904
295 0.614109
300 0.518416
305 0.57277
310 0.597796
315 2.5903
320 70.2169
325 165.214
330 49.4698
335 9.67834
340 6.94184
345 7.81906
350 9.68401
355 13.6458
360 19.2621
365 21.4606
370 23.4655
375 26.5015
380 29.2301
385 34.4476
390 37.4424
395 39.5257
400 39.5608
405 40.7003
410 42.3451
415 42.4619
420 40.8633
425 39.8618
430 39.1115
435 37.2625
440 35.4866
445 34.2618
450 31.6904
455 29.2124
460 28.1972
465 25.3991
470 23.7925
475 21.6764
480 19.6283
485 18.4476
490 17.1333
495 14.5731
500 12.7404
505 11.3721
510 10.1432
515 9.06864
520 8.14676
525 6.69462
530 5.96771
535 5.35736
540 4.85161
545 4.50341
550 3.82635
555 3.52942
560 2.92126
565 2.82633
570 2.28766
575 2.08968
580 1.61567
585 1.47826
590 1.20256
595 0.922669
600 0.47489
Ex : 333
200 0.487851
205 0.485118
210 0.516811
215 0.503693
220 0.467742
225 0.453058
230 0.388256
235 0.553936
240 0.398796
245 0.547688
250 0.5017
255 0.586987
260 0.629482
265 0.491745
270 0.416653
275 0.382096
280 0.551266
285 0.470651
290 0.478462
295 0.631748
300 0.687794
305 0.487469
310 0.559127
315 0.647212
320 9.83559
325 191.839
330 333.384
335 87.9681
340 14.318
345 7.24156
350 7.00096
355 7.14261
360 10.7082
365 14.8289
370 16.2909
375 16.2523
380 17.7518
385 19.9836
390 23.8475
395 24.59
400 24.5863
405 25.7028
410 26.5135
415 27.9054
420 26.219
425 24.9123
430 23.5409
435 23.2374
440 22.6771
445 20.8655
450 19.3409
455 18.8172
460 17.2149
465 15.6779
470 14.9524
475 13.4995
480 12.5612
485 11.6778
490 10.3346
495 9.18022
500 9.01592
505 7.56866
510 6.97957
515 6.32943
520 5.62919
525 5.03206
530 4.70109
535 4.00582
540 3.55232
545 3.31835
550 2.80324
555 2.87471
560 2.60509
565 2.24677
570 1.85413
575 1.65169
580 1.59539
585 1.1055
590 1.1747
595 1.05735
600 0.772569
Ex : 338
200 0.537059
205 0.40079
210 0.550394
215 0.377395
220 0.504568
225 0.417182
230 0.38908
235 0.40315
240 0.439264
245 0.374473
250 0.370023
255 0.549927
260 0.479
265 0.520012
270 0.431291
275 0.496431
280 0.463211
285 0.553321
290 0.602711
295 0.483226
300 0.627542
305 0.534905
310 0.592998
315 0.562193
320 0.702554
325 17.4654
330 267.267
335 385.338
340 97.0064
345 14.5743
350 5.94082
355 4.88678
360 4.69761
365 6.75334
370 11.2846
375 11.7611
380 10.9635
385 12.5042
390 15.4069
395 16.3782
400 15.7772
405 16.0657
410 17.1323
415 18.8457
420 18.5401
425 16.7613
430 15.5515
435 15.0729
440 15.3012
445 14.8409
450 13.4929
455 12.5979
460 11.7664
465 11.0041
470 10.6867
475 9.59381
480 9.06449
485 8.38069
490 7.6536
495 7.1974
500 6.63042
505 6.01525
510 5.27003
515 5.14977
520 4.3798
525 4.16694
530 3.86608
535 3.4362
540 3.04575
545 2.71377
550 2.50496
555 2.48416
560 2.20939
565 2.02694
570 1.6479
575 1.63748
580 1.43354
585 1.38671
590 0.925163
595 0.863934
600 0.77752
Ex : 343
200 0.338899
205 0.456305
210 0.399139
215 0.460537
220 0.448232
225 0.417893
230 0.366326
235 0.418101
240 0.460387
245 0.400986
250 0.49912
255 0.431949
260 0.490919
265 0.393728
270 0.468208
275 0.424392
280 0.435867
285 0.483129
290 0.487905
295 0.508445
300 0.548256
305 0.438816
310 0.39395
315 0.45463
320 0.659669
325 0.996725
330 20.3392
335 295.406
340 427.792
345 104.91
350 14.9357
355 5.07098
360 4.05134
365 3.38745
370 4.60996
375 8.8022
380 11.2797
385 11.7522
390 12.9834
395 13.5012
400 12.8864
405 14.0563
410 15.2548
415 16.8967
420 16.1034
425 14.7915
430 13.9996
435 13.6731
440 13.7961
445 12.9815
450 11.9188
455 11.1538
460 10.6811
465 10.0043
470 9.54062
475 8.95467
480 8.29631
485 8.24062
490 7.37663
495 6.74718
500 6.51316
505 5.90471
510 5.51415
515 5.36241
520 4.44034
525 3.99778
530 3.69763
535 3.39722
540 3.14998
545 2.9214
550 2.55842
555 2.29551
560 2.13865
565 1.89469
570 1.80947
575 1.49551
580 1.43141
585 1.26058
590 1.03805
595 0.947494
600 0.958339
Ex : 348
200 0.415166
205 0.429841
210 0.373434
215 0.392721
220 0.351892
225 0.427224
230 0.368188
235 0.308193
240 0.372366
245 0.349763
250 0.508295
255 0.356163
260 0.304099
265 0.422705
270 0.311568
275 0.331558
280 0.373704
285 0.377335
290 0.402632
295 0.35944
300 0.340611
305 0.363321
310 0.456155
315 0.512578
320 0.603041
325 0.640745
330 0.908778
335 19.9248
340 302.516
345 453.639
350 116.662
355 16.1522
360 4.75249
365 3.55401
370 2.84952
375 3.78541
380 8.21945
385 14.2309
390 16.4636
395 16.3865
400 14.7433
405 15.9455
410 18.023
415 19.806
420 18.4287
425 17.5968
430 15.7392
435 15.9038
440 15.7728
445 15.155
450 13.6868
455 12.5926
460 11.7267
465 11.1298
470 10.3191
475 9.81081
480 9.48483
485 8.7071
490 8.00123
495 7.41835
500 7.37375
505 6.53189
510 5.72482
515 5.34146
520 4.93192
525 4.34979
530 4.17016
535 4.00528
540 3.441
545 3.10774
550 2.63209
555 2.59836
560 2.20275
565 2.00276
570 1.78681
575 1.64007
580 1.43247
585 1.27513
590 0.975553
595 0.847023
600 1.55151
Ex : 353
200 0.298882
205 0.452651
210 0.450447
215 0.342877
220 0.351546
225 0.338774
230 0.321994
235 0.31591
240 0.388075
245 0.366561
250 0.364146
255 0.319252
260 0.443261
265 0.344093
270 0.333989
275 0.41244
280 0.35379
285 0.312807
290 0.364239
295 0.351499
300 0.457907
305 0.366708
310 0.342703
315 0.47533
320 0.460485
325 0.491269
330 0.652831
335 0.955735
340 20.2233
345 306.582
350 443.425
355 110.582
360 15.2629
365 4.42819
370 3.13464
375 3.05607
380 4.59344
385 10.2918
390 18.412
395 20.4237
400 17.3259
405 16.3924
410 19.3246
415 21.7175
420 20.9329
425 18.4748
430 16.9126
435 16.6424
440 16.645
445 16.8031
450 15.2685
455 13.3386
460 13.0342
465 11.8471
470 11.596
475 10.8
480 10.1868
485 9.44526
490 8.60667
495 8.15168
500 7.82461
505 7.38419
510 6.7582
515 5.90829
520 5.58162
525 5.21821
530 4.78119
535 4.24684
540 3.81351
545 3.49821
550 3.1668
555 2.98409
560 2.55013
565 2.30141
570 1.7914
575 1.69296
580 1.43178
585 1.43195
590 1.07967
595 0.95912
600 1.04067
Ex : 358
200 0.330708
205 0.423724
210 0.349948
215 0.323619
220 0.273306
225 0.328279
230 0.465337
235 0.337509
240 0.410737
245 0.421578
250 0.350359
255 0.360038
260 0.352563
265 0.34069
270 0.364975
275 0.329985
280 0.330957
285 0.362377
290 0.313967
295 0.36315
300 0.395536
305 0.408546
310 0.445807
315 0.391674
320 0.433868
325 0.470817
330 0.659186
335 0.57991
340 1.08398
345 19.6582
350 293.839
355 448.859
360 112.196
365 15.2754
370 3.99124
375 3.3137
380 4.12452
385 6.93396
390 13.7015
395 18.9039
400 18.2506
405 16.516
410 17.7481
415 19.7788
420 19.8148
425 17.3447
430 16.3192
435 15.3608
440 15.8184
445 14.9761
450 14.4432
455 12.948
460 12.1908
465 11.6926
470 11.3857
475 11.0008
480 10.3002
485 9.9307
490 9.36482
495 8.437
500 8.0467
505 7.76429
510 7.38317
515 6.39427
520 5.85273
525 5.40664
530 4.99686
535 4.62372
540 4.02784
545 3.89537
550 3.46049
555 3.27367
560 2.75518
565 2.42064
570 2.1232
575 1.87798
580 1.36682
585 1.25198
590 1.0334
595 1.11744
600 1.70159
Ex : 363
200 0.370954
205 0.320424
210 0.263171
215 0.336862
220 0.345157
225 0.337206
230 0.381835
235 0.293852
240 0.312981
245 0.31218
250 0.247767
255 0.442597
260 0.391051
265 0.349146
270 0.406807
275 0.34746
280 0.423317
285 0.322697
290 0.3987
295 0.312677
300 0.358946
305 0.327339
310 0.363496
315 0.411031
320 0.386904
325 0.353729
330 0.545717
335 0.533054
340 0.676079
345 0.998227
350 18.0299
355 288.918
360 459.449
365 119.377
370 15.9313
375 4.26894
380 5.29793
385 8.88675
390 13.37
395 16.1822
400 18.3218
405 20.1816
410 21.1846
415 22.1231
420 20.6076
425 18.5634
430 16.8913
435 16.7879
440 17.2702
445 16.4225
450 15.1468
455 13.9214
460 13.4351
465 12.5811
470 12.5984
475 11.4495
480 10.7252
485 10.5693
490 9.81077
495 9.01993
500 8.6801
505 7.98616
510 7.66886
515 7.15775
520 6.13449
525 5.80189
530 5.49244
535 4.76235
540 4.42818
545 4.09627
550 3.62447
555 3.25036
560 3.05886
565 2.56894
570 2.013
575 1.8879
580 1.53718
585 1.29568
590 1.18281
595 0.977888
600 1.24316
Ex : 368
200 0.333998
205 0.240166
210 0.276863
215 0.229556
220 0.353348
225 0.334358
230 0.314214
235 0.374129
240 0.360183
245 0.33821
250 0.316926
255 0.29302
260 0.264909
265 0.321626
270 0.396204
275 0.290314
280 0.292514
285 0.276074
290 0.391674
295 0.322407
300 0.295709
305 0.338289
310 0.313099
315 0.327353
320 0.342093
325 0.404154
330 0.43699
335 0.502809
340 0.548146
345 0.527798
350 0.83939
355 14.4619
360 278.865
365 467.611
370 126.171
375 17.0512
380 6.43572
385 10.2865
390 16.3305
395 18.7464
400 18.0781
405 21.0985
410 27.0393
415 29.0679
420 26.9793
425 22.4391
430 20.4648
435 20.5361
440 20.0022
445 19.3987
450 17.9497
455 15.9539
460 14.5612
465 14.1769
470 13.5315
475 13.4329
480 12.5968
485 11.5639
490 11.1447
495 10.181
500 9.88288
505 9.31976
510 8.36856
515 7.64875
520 7.00097
525 6.65219
530 5.99081
535 5.63209
540 5.17261
545 4.55855
550 4.14866
555 3.74857
560 3.25843
565 2.96079
570 2.4916
575 2.05476
580 1.75807
585 1.41979
590 1.13523
595 0.993913
600 1.26311
Ex : 373
200 0.320029
205 0.277966
210 0.220556
215 0.284051
220 0.259774
225 0.310144
230 0.248473
235 0.272902
240 0.205277
245 0.270803
250 0.242189
255 0.264644
260 0.338764
265 0.264144
270 0.27733
275 0.234537
280 0.298937
285 0.338607
290 0.251281
295 0.265601
300 0.270132
305 0.281941
310 0.335055
315 0.383389
320 0.316142
325 0.295071
330 0.338434
335 0.333634
340 0.391588
345 0.458222
350 0.526711
355 0.865947
360 17.5779
365 286.193
370 466.839
375 125.387
380 17.9596
385 9.53883
390 16.1825
395 19.8604
400 17.9735
405 17.668
410 22.4088
415 29.5861
420 28.572
425 23.7789
430 19.7874
435 18.9533
440 20.1077
445 18.8264
450 17.6319
455 15.5567
460 14.5812
465 13.8523
470 13.6175
475 13.6077
480 12.904
485 12.3537
490 11.8795
495 10.7281
500 10.2538
505 9.95807
510 8.94493
515 8.46088
520 7.52315
525 7.00726
530 6.39813
535 5.84134
540 5.24385
545 4.84026
550 4.45856
555 4.01634
560 3.45736
565 3.11093
570 2.69558
575 2.1986
580 1.82669
585 1.60056
590 1.08804
595 1.03489
600 1.19303
Ex : 378
200 0.210833
205 0.238853
210 0.246364
215 0.266244
220 0.286119
225 0.234691
230 0.29025
235 0.350208
240 0.242421
245 0.292578
250 0.293994
255 0.32726
260 0.278377
265 0.262118
270 0.32848
275 0.209977
280 0.32903
285 0.301474
290 0.259473
295 0.28317
300 0.332129
305 0.266998
310 0.348427
315 0.318143
320 0.276707
325 0.354308
330 0.350344
335 0.35022
340 0.398325
345 0.344291
350 0.508091
355 0.520931
360 0.916081
365 16.0507
370 291.137
375 482.499
380 130.991
385 21.4668
390 12.9335
395 14.5845
400 13.3384
405 13.3436
410 15.3472
415 19.8416
420 22.8758
425 19.6873
430 17.0676
435 15.8664
440 15.3249
445 15.0442
450 13.7439
455 13.1982
460 12.3533
465 12.6092
470 12.5124
475 12.4638
480 12.0464
485 11.4741
490 11.4798
495 11.1788
500 10.1973
505 9.719
510 9.17923
515 8.68493
520 7.97615
525 7.16272
530 6.62469
535 5.93515
540 5.6273
545 5.15539
550 4.73488
555 4.25427
560 3.84238
565 3.31407
570 2.87046
575 2.38569
580 1.73104
585 1.44643
590 1.23762
595 0.967643
600 0.930128
Ex : 383
200 0.283951
205 0.254264
210 0.295467
215 0.235676
220 0.302069
225 0.267555
230 0.245351
235 0.229341
240 0.270452
245 0.278805
250 0.342998
255 0.246301
260 0.245106
265 0.266498
270 0.291233
275 0.233334
280 0.294221
285 0.30135
290 0.238261
295 0.265794
300 0.326297
305 0.28912
310 0.281119
315 0.289875
320 0.307693
325 0.312709
330 0.294211
335 0.30311
340 0.366809
345 0.456728
350 0.466418
355 0.464249
360 0.584383
365 0.915278
370 15.1272
375 291.805
380 506.722
385 143.258
390 27.2052
395 14.7161
400 12.7715
405 13.6755
410 16.116
415 17.8234
420 17.9163
425 18.5479
430 18.3526
435 17.334
440 16.5335
445 15.5145
450 13.7166
455 13.0432
460 12.3728
465 12.5376
470 12.399
475 12.3527
480 12.2035
485 12.2141
490 11.2113
495 10.9496
500 10.6268
505 9.92368
510 9.22663
515 8.62765
520 7.95846
525 7.57071
530 6.71323
535 6.13267
540 5.4733
545 5.15084
550 4.73141
555 4.06603
560 3.68474
565 3.27058
570 2.69425
575 2.32387
580 1.83536
585 1.41612
590 1.30488
595 1.03935
600 0.751276
Ex : 388
200 0.244924
205 0.245718
210 0.246387
215 0.211921
220 0.21955
225 0.215315
230 0.218723
235 0.267234
240 0.239706
245 0.284268
250 0.199816
255 0.26283
260 0.188128
265 0.250545
270 0.237208
275 0.181307
280 0.284006
285 0.226475
290 0.24401
295 0.270044
300 0.250565
305 0.277539
310 0.351728
315 0.316043
320 0.242903
325 0.263691
330 0.320419
335 0.351697
340 0.318229
345 0.259603
350 0.442842
355 0.468479
360 0.449335
365 0.644937
370 0.907293
375 17.3405
380 312.283
385 524.731
390 151.075
395 31.9811
400 16.932
405 16.4067
410 19.8241
415 22.7931
420 21.9976
425 19.6813
430 19.5764
435 21.629
440 20.0513
445 19.0338
450 17.2632
455 15.3192
460 14.1799
465 13.8904
470 13.8078
475 13.4021
480 12.8335
485 12.4974
490 11.8193
495 11.4088
500 10.9951
505 10.2669
510 9.67213
515 8.89194
520 8.08446
525 7.50294
530 6.7519
535 6.26973
540 5.70399
545 5.14484
550 4.78987
555 4.24541
560 3.72728
565 3.17968
570 2.71074
575 2.26093
580 1.99595
585 1.42073
590 1.24855
595 1.07782
600 1.58608
Ex : 393
200 0.314658
205 0.240357
210 0.290022
215 0.237994
220 0.305092
225 0.226706
230 0.213338
235 0.264466
240 0.242147
245 0.201631
250 0.211972
255 0.295007
260 0.223056
265 0.255543
270 0.249957
275 0.251092
280 0.219785
285 0.297993
290 0.213233
295 0.290226
300 0.297324
305 0.265099
310 0.259167
315 0.244451
320 0.270978
325 0.224283
330 0.299095
335 0.313488
340 0.245692
345 0.315851
350 0.326409
355 0.373527
360 0.338816
365 0.475583
370 0.624202
375 0.916028
380 16.9146
385 315.913
390 548.19
395 160.963
400 33.2942
405 16.9478
410 18.19
415 23.1041
420 23.2545
425 19.779
430 17.0045
435 17.7345
440 20.4903
445 19.777
450 17.4382
455 15.5127
460 13.2697
465 13.2872
470 13.3521
475 13.4847
480 12.9019
485 12.2148
490 11.8931
495 11.4462
500 11.2235
505 10.7705
510 9.77739
515 8.83489
520 8.2951
525 7.70203
530 7.09766
535 6.59148
540 6.04134
545 5.43926
550 4.69026
555 4.18425
560 3.95336
565 3.34942
570 2.97341
575 2.3698
580 1.88559
585 1.64128
590 1.30727
595 1.116
600 0.838547
Ex : 398
200 0.258566
205 0.222294
210 0.207228
215 0.191216
220 0.268157
225 0.234707
230 0.282749
235 0.286189
240 0.249814
245 0.286154
250 0.258455
255 0.20826
260 0.262777
265 0.346003
270 0.225131
275 0.234771
280 0.238607
285 0.248137
290 0.180575
295 0.189406
300 0.289267
305 0.256242
310 0.321105
315 0.283184
320 0.206645
325 0.268609
330 0.283347
335 0.285602
340 0.31514
345 0.297855
350 0.294181
355 0.246879
360 0.3763
365 0.439645
370 0.490412
375 0.690623
380 1.17443
385 17.887
390 325.206
395 565.799
400 158.977
405 26.7971
410 12.618
415 14.0957
420 14.7294
425 12.9457
430 10.8903
435 10.8665
440 12.4271
445 14.6693
450 14.1479
455 12.2459
460 11.3372
465 11.157
470 11.417
475 11.5773
480 11.2828
485 11.0463
490 11.2372
495 10.7859
500 10.459
505 9.98265
510 9.25709
515 9.0213
520 8.56286
525 7.71668
530 7.06248
535 6.59206
540 5.90289
545 5.4308
550 4.91882
555 4.46913
560 3.81868
565 3.27575
570 2.89876
575 2.36235
580 1.88763
585 1.51002
590 1.2808
595 1.15492
600 0.831862
Ex : 403
200 0.242412
205 0.216059
210 0.262885
215 0.25747
220 0.195924
225 0.252583
230 0.221328
235 0.235038
240 0.232472
245 0.218232
250 0.255941
255 0.222095
260 0.29205
265 0.311388
270 0.246261
275 0.200778
280 0.230125
285 0.301647
290 0.268434
295 0.255713
300 0.270307
305 0.230794
310 0.2623
315 0.222954
320 0.203798
325 0.228725
330 0.253067
335 0.290414
340 0.268536
345 0.308715
350 0.283671
355 0.363158
360 0.319139
365 0.322567
370 0.368987
375 0.496682
380 0.649696
385 1.39855
390 19.9183
395 338.614
400 562.353
405 155.783
410 22.9892
415 8.89916
420 7.75594
425 7.26723
430 6.57796
435 6.6337
440 7.71328
445 8.47473
450 10.6945
455 11.2042
460 10.4505
465 10.1469
470 10.1427
475 10.2839
480 10.571
485 10.7219
490 10.4527
495 10.4245
500 10.1772
505 9.97926
510 9.70082
515 9.17614
520 8.13582
525 7.75544
530 7.1475
535 6.33246
540 5.95421
545 5.45283
550 4.95831
555 4.44746
560 3.89064
565 3.5701
570 2.92998
575 2.65749
580 2.05919
585 1.5254
590 1.30094
595 1.10279
600 1.13047
Ex : 408
200 0.217199
205 0.249933
210 0.245481
215 0.215895
220 0.208887
225 0.238333
230 0.28418
235 0.241563
240 0.22687
245 0.267768
250 0.288795
255 0.179167
260 0.209387
265 0.253452
270 0.31549
275 0.296373
280 0.296248
285 0.229308
290 0.243266
295 0.27989
300 0.230284
305 0.254936
310 0.230281
315 0.279177
320 0.331002
325 0.261474
330 0.2459
335 0.281236
340 0.355188
345 0.259596
350 0.306503
355 0.353989
360 0.331639
365 0.374307
370 0.376426
375 0.468688
380 0.44126
385 0.73602
390 1.16206
395 18.158
400 344.873
405 574.819
410 154.307
415 23.1662
420 8.00673
425 6.53913
430 6.4376
435 6.66119
440 7.02588
445 7.27743
450 8.15479
455 10.0247
460 11.9274
465 11.0257
470 10.7753
475 10.9084
480 10.6618
485 10.9395
490 10.7604
495 10.9998
500 10.42
505 10.0246
510 9.69067
515 9.21749
520 8.26279
525 7.91609
530 7.36989
535 6.59629
540 6.1187
545 5.49996
550 5.12544
555 4.41433
560 3.89776
565 3.52774
570 3.11483
575 2.43315
580 2.09944
585 1.57826
590 1.24445
595 1.10967
600 0.869348
Ex : 413
200 0.243632
205 0.224539
210 0.179161
215 0.22933
220 0.30412
225 0.252728
230 0.240559
235 0.301032
240 0.228709
245 0.287706
250 0.280206
255 0.227678
260 0.19602
265 0.175659
270 0.229519
275 0.257371
280 0.261829
285 0.232772
290 0.24222
295 0.258735
300 0.204206
305 0.233323
310 0.250687
315 0.222351
320 0.284426
325 0.312379
330 0.227958
335 0.242935
340 0.271333
345 0.296716
350 0.250371
355 0.263604
360 0.297171
365 0.346834
370 0.398746
375 0.33611
380 0.422392
385 0.518321
390 0.729017
395 1.08451
400 20.9205
405 357.021
410 586.437
415 154.927
420 22.951
425 7.35176
430 5.78642
435 6.19147
440 6.86755
445 6.93128
450 6.99489
455 7.46468
460 9.00115
465 11.4344
470 11.9209
475 11.1917
480 10.8768
485 10.621
490 10.4976
495 10.3191
500 10.4886
505 9.94773
510 9.55224
515 9.00398
520 8.30257
525 8.11193
530 7.155
535 6.61004
540 6.10127
545 5.63407
550 5.10604
555 4.63006
560 4.24367
565 3.56913
570 2.98202
575 2.53062
580 1.89228
585 1.56894
590 1.31395
595 1.034
600 1.11726
Ex : 418
200 0.211907
205 0.221558
210 0.282541
215 0.221361
220 0.214044
225 0.212752
230 0.211952
235 0.195287
240 0.204984
245 0.251997
250 0.222672
255 0.202806
260 0.249934
265 0.250098
270 0.298264
275 0.205549
280 0.206931
285 0.218426
290 0.307837
295 0.228134
300 0.212485
305 0.202241
310 0.2259
315 0.248637
320 0.223475
325 0.283434
330 0.250176
335 0.255936
340 0.243332
345 0.282892
350 0.287921
355 0.303343
360 0.267675
365 0.30015
370 0.379534
375 0.30893
380 0.317828
385 0.406726
390 0.56369
395 0.687611
400 1.1532
405 19.9926
410 359.548
415 601.293
420 162.449
425 22.0876
430 5.80905
435 4.26334
440 4.84498
445 5.00132
450 5.04158
455 5.35581
460 6.24354
465 7.57186
470 10.2437
475 10.9488
480 10.8403
485 10.6143
490 10.2187
495 10.3329
500 9.65367
505 9.34881
510 9.26698
515 8.79265
520 7.98717
525 7.6219
530 6.85891
535 6.58159
540 6.00148
545 5.43351
550 4.87889
555 4.44261
560 3.87446
565 3.47145
570 3.04565
575 2.46192
580 2.05029
585 1.6521
590 1.28709
595 1.09033
600 0.550876
Ex : 423
200 0.212
205 0.258883
210 0.241953
215 0.300735
220 0.282191
225 0.236588
230 0.210061
235 0.23359
240 0.24239
245 0.207811
250 0.301847
255 0.216978
260 0.262972
265 0.209045
270 0.285151
275 0.234865
280 0.257481
285 0.211908
290 0.26484
295 0.26178
300 0.20103
305 0.176583
310 0.2461
315 0.237783
320 0.24612
325 0.227444
330 0.182604
335 0.27348
340 0.322082
345 0.284082
350 0.317401
355 0.321245
360 0.287608
365 0.266389
370 0.290323
375 0.300006
380 0.285626
385 0.383367
390 0.461726
395 0.532318
400 0.835318
405 1.08273
410 21.3029
415 388.198
420 610.295
425 154.41
430 20.1714
435 4.52031
440 2.98886
445 3.52006
450 3.84006
455 4.05764
460 4.76774
465 5.57386
470 6.66512
475 9.47834
480 10.7062
485 9.87998
490 9.90937
495 9.75044
500 9.31605
505 8.59471
510 8.54642
515 8.2927
520 7.6068
525 7.15462
530 6.73236
535 6.13109
540 5.57269
545 5.08993
550 4.55949
555 4.09706
560 3.71436
565 3.463
570 2.79949
575 2.32538
580 1.97065
585 1.54733
590 1.21847
595 1.00413
600 0.514959
Ex : 428
200 0.201668
205 0.218254
210 0.220935
215 0.259175
220 0.222816
225 0.248017
230 0.26016
235 0.256516
240 0.232227
245 0.220724
250 0.27755
255 0.256783
260 0.234225
265 0.252103
270 0.22838
275 0.258325
280 0.30981
285 0.249526
290 0.234221
295 0.221902
300 0.20195
305 0.214585
310 0.25139
315 0.249712
320 0.24252
325 0.219792
330 0.253651
335 0.248146
340 0.224274
345 0.233763
350 0.272439
355 0.242713
360 0.215853
365 0.241281
370 0.298528
375 0.316186
380 0.301286
385 0.333635
390 0.437917
395 0.426197
400 0.499213
405 0.732304
410 1.09362
415 23.706
420 391.488
425 619.959
430 162.547
435 20.9238
440 4.5062
445 2.80178
450 3.3561
455 3.87512
460 4.15919
465 4.85639
470 5.38262
475 6.28846
480 8.4849
485 10.4528
490 9.73119
495 9.34059
500 9.11388
505 8.36319
510 7.73908
515 7.46098
520 7.16032
525 6.76306
530 6.44491
535 5.84807
540 5.50019
545 5.0008
550 4.55506
555 3.96943
560 3.60572
565 3.11991
570 2.79385
575 2.29991
580 1.68195
585 1.35125
590 1.14465
595 1.0745
600 0.943272
Ex : 433
200 0.239294
205 0.220326
210 0.243001
215 0.220403
220 0.266433
225 0.230724
230 0.254876
235 0.265513
240 0.213205
245 0.252513
250 0.249962
255 0.236472
260 0.228691
265 0.31094
270 0.183794
275 0.185572
280 0.173516
285 0.281114
290 0.245528
295 0.248577
300 0.281654
305 0.210773
310 0.21382
315 0.210131
320 0.23187
325 0.270655
330 0.233313
335 0.266435
340 0.311348
345 0.277712
350 0.248942
355 0.234706
360 0.303548
365 0.272419
370 0.336603
375 0.340926
380 0.31947
385 0.292401
390 0.361894
395 0.415084
400 0.46408
405 0.514172
410 0.702807
415 1.08124
420 25.7062
425 423.142
430 645.121
435 162.657
440 20.7879
445 4.41981
450 2.8792
455 3.51664
460 4.19637
465 4.54636
470 4.90587
475 5.81637
480 6.36671
485 7.6486
490 9.75433
495 9.40707
500 8.37675
505 8.13035
510 7.26234
515 7.13478
520 6.47356
525 5.95219
530 5.87279
535 5.38782
540 5.01166
545 4.38573
550 4.05831
555 3.78702
560 3.37413
565 2.81055
570 2.65936
575 2.02013
580 1.69869
585 1.36624
590 1.19703
595 1.03124
600 1.26403
Ex : 438
200 0.199682
205 0.203541
210 0.216818
215 0.241038
220 0.299827
225 0.240962
230 0.173614
235 0.286377
240 0.250069
245 0.254726
250 0.207001
255 0.211413
260 0.197909
265 0.264724
270 0.201687
275 0.213186
280 0.224405
285 0.304064
290 0.30226
295 0.210262
300 0.196055
305 0.209327
310 0.219566
315 0.233147
320 0.243993
325 0.217385
330 0.2273
335 0.287398
340 0.264068
345 0.259083
350 0.202332
355 0.203439
360 0.228444
365 0.262183
370 0.276418
375 0.295445
380 0.334729
385 0.296435
390 0.33375
395 0.360398
400 0.378326
405 0.492251
410 0.634016
415 0.689724
420 0.927701
425 25.172
430 429.172
435 693.774
440 175.163
445 22.3292
450 4.8898
455 3.13596
460 3.61094
465 4.24043
470 4.48356
475 4.83295
480 5.47844
485 6.0297
490 6.77257
495 8.36219
500 9.12569
505 7.46505
510 7.24844
515 6.75221
520 6.06857
525 5.67228
530 5.10466
535 4.7171
540 4.5026
545 4.00853
550 3.83358
555 3.54255
560 3.09111
565 2.50955
570 2.19082
575 1.87457
580 1.56536
585 1.26548
590 1.09668
595 0.955175
600 0.842209
Ex : 443
200 0.288382
205 0.193255
210 0.193376
215 0.206817
220 0.22379
225 0.210608
230 0.260137
235 0.201194
240 0.243441
245 0.253236
250 0.214736
255 0.248036
260 0.234323
265 0.215234
270 0.221828
275 0.24759
280 0.249202
285 0.32591
290 0.263177
295 0.272422
300 0.235719
305 0.244349
310 0.213212
315 0.224727
320 0.206593
325 0.270349
330 0.251587
335 0.287061
340 0.25589
345 0.251498
350 0.303469
355 0.237789
360 0.309923
365 0.239622
370 0.271247
375 0.284037
380 0.332942
385 0.341579
390 0.349963
395 0.392353
400 0.394155
405 0.419764
410 0.549887
415 0.602899
420 0.63152
425 1.10233
430 28.2577
435 462.053
440 707.996
445 176.09
450 22.67
455 4.9476
460 3.19749
465 3.7693
470 4.39726
475 4.50944
480 4.76158
485 4.99375
490 5.45298
495 5.74557
500 7.37736
505 8.03157
510 6.85122
515 6.13886
520 5.62074
525 5.36873
530 4.62768
535 4.25947
540 4.00154
545 3.599
550 3.34245
555 2.96584
560 2.72965
565 2.4521
570 2.09495
575 1.81298
580 1.39707
585 1.19755
590 0.977764
595 0.861892
600 0.643668
Ex : 448
200 0.20132
205 0.280938
210 0.224018
215 0.26204
220 0.278599
225 0.264425
230 0.229592
235 0.263331
240 0.233162
245 0.238274
250 0.250381
255 0.241294
260 0.281681
265 0.253479
270 0.331623
275 0.265964
280 0.287302
285 0.252156
290 0.250535
295 0.233285
300 0.269251
305 0.289152
310 0.291447
315 0.298009
320 0.251344
325 0.369599
330 0.306985
335 0.239415
340 0.299557
345 0.320594
350 0.254028
355 0.289041
360 0.292945
365 0.312955
370 0.287609
375 0.303109
380 0.364868
385 0.284743
390 0.354403
395 0.317007
400 0.361887
405 0.298633
410 0.483904
415 0.440614
420 0.589963
425 0.823714
430 1.16656
435 29.1617
440 495.247
445 746.098
450 185.09
455 23.8008
460 5.2595
465 3.44905
470 3.78699
475 4.20752
480 4.48154
485 4.57732
490 4.75883
495 4.85908
500 4.95716
505 5.72188
510 6.91323
515 6.43351
520 5.27455
525 4.97376
530 4.29961
535 3.79611
540 3.46937
545 3.26212
550 2.8921
555 2.5976
560 2.35426
565 2.06219
570 2.02023
575 1.55423
580 1.3817
585 1.0937
590 0.915191
595 0.824966
600 0.81597
Ex : 453
200 0.181213
205 0.23574
210 0.262039
215 0.180386
220 0.244991
225 0.295542
230 0.234045
235 0.249891
240 0.30277
245 0.302452
250 0.205561
255 0.254788
260 0.244866
265 0.270716
270 0.212321
275 0.229964
280 0.229384
285 0.263911
290 0.272273
295 0.220783
300 0.199708
305 0.261434
310 0.2797
315 0.26965
320 0.330934
325 0.245224
330 0.233914
335 0.2436
340 0.264672
345 0.254361
350 0.332477
355 0.227362
360 0.313388
365 0.220073
370 0.265739
375 0.296787
380 0.327043
385 0.304027
390 0.333432
395 0.287928
400 0.350672
405 0.345333
410 0.389555
415 0.422165
420 0.543466
425 0.624765
430 0.805029
435 1.05478
440 31.8075
445 535.153
450 779.289
455 183.988
460 23.7591
465 5.42306
470 3.07126
475 3.39902
480 3.75904
485 4.09488
490 3.86946
495 3.91433
500 4.01532
505 4.12689
510 4.37077
515 5.83377
520 5.81506
525 4.59729
530 4.14477
535 3.5673
540 3.12278
545 2.76029
550 2.69536
555 2.31585
560 2.15638
565 1.96993
570 1.52008
575 1.42971
580 1.3417
585 0.995164
590 0.86254
595 0.728343
600 0.606677
Ex : 458
200 0.201324
205 0.212046
210 0.244458
215 0.261208
220 0.217686
225 0.232157
230 0.264722
235 0.228165
240 0.256148
245 0.228098
250 0.308429
255 0.269228
260 0.297158
265 0.229692
270 0.237242
275 0.381099
280 0.271679
285 0.288467
290 0.253603
295 0.223522
300 0.247913
305 0.276549
310 0.224854
315 0.211837
320 0.262599
325 0.254401
330 0.244022
335 0.304923
340 0.257907
345 0.281784
350 0.318392
355 0.315871
360 0.261205
365 0.216067
370 0.336684
375 0.34496
380 0.330316
385 0.315375
390 0.302272
395 0.281974
400 0.302657
405 0.359406
410 0.449057
415 0.395517
420 0.385262
425 0.560635
430 0.590432
435 0.789491
440 1.22002
445 35.095
450 556.75
455 824.29
460 198.706
465 25.5324
470 5.43162
475 2.9486
480 3.03232
485 3.56094
490 3.50066
495 3.21759
500 3.23562
505 3.15568
510 3.30306
515 3.42467
520 4.58147
525 5.06547
530 3.91981
535 3.43376
540 3.06599
545 2.59945
550 2.3542
555 2.04649
560 2.02635
565 1.90612
570 1.46837
575 1.38181
580 1.09015
585 0.946557
590 0.695884
595 0.678455
600 0.275435
Ex : 463
200 0.322349
205 0.209674
210 0.257555
215 0.248353
220 0.203075
225 0.196577
230 0.202359
235 0.324997
240 0.230877
245 0.22918
250 0.228935
255 0.228771
260 0.229044
265 0.266674
270 0.30759
275 0.241362
280 0.250302
285 0.233797
290 0.194825
295 0.306229
300 0.306167
305 0.249234
310 0.3428
315 0.299549
320 0.283857
325 0.248964
330 0.240216
335 0.252788
340 0.243062
345 0.301018
350 0.260291
355 0.26811
360 0.254344
365 0.296841
370 0.312184
375 0.316147
380 0.261141
385 0.278422
390 0.327743
395 0.345153
400 0.373214
405 0.27222
410 0.366396
415 0.394107
420 0.350479
425 0.431516
430 0.428803
435 0.522252
440 0.725086
445 1.21331
450 33.4746
455 563.675
460 854.68
465 205.978
470 26.0982
475 5.21
480 2.75836
485 2.76452
490 2.86566
495 2.8233
500 2.77924
505 2.69715
510 2.5429
515 2.56943
520 2.5455
525 3.35319
530 4.27259
535 3.76843
540 2.85224
545 2.77355
550 2.33346
555 1.91621
560 1.73992
565 1.57245
570 1.31551
575 1.23474
580 1.01868
585 0.840795
590 0.794407
595 0.623242
600 0.71418
Ex : 468
200 0.240781
205 0.271496
210 0.19514
215 0.239305
220 0.271777
225 0.220541
230 0.278441
235 0.231181
240 0.214217
245 0.215385
250 0.204445
255 0.228056
260 0.242019
265 0.159913
270 0.229981
275 0.242565
280 0.210074
285 0.25392
290 0.260117
295 0.215798
300 0.213437
305 0.19073
310 0.266097
315 0.204824
320 0.204781
325 0.200991
330 0.20629
335 0.279169
340 0.260267
345 0.219928
350 0.263212
355 0.226998
360 0.26207
365 0.303613
370 0.277169
375 0.22387
380 0.256867
385 0.232741
390 0.248966
395 0.273221
400 0.297159
405 0.340385
410 0.323956
415 0.327596
420 0.343711
425 0.324704
430 0.380163
435 0.453014
440 0.535235
445 0.795438
450 1.1765
455 36.8493
460 574.455
465 900.873
470 216.377
475 27.0892
480 5.13692
485 2.56091
490 2.19793
495 2.5703
500 2.52672
505 2.43915
510 2.092
515 2.16449
520 2.20597
525 2.27231
530 2.50405
535 3.49602
540 3.60701
545 2.67238
550 2.30383
555 2.18914
560 1.77096
565 1.49877
570 1.29002
575 1.15385
580 0.966472
585 0.805884
590 0.647507
595 0.585688
600 0.585641
Ex : 473
200 0.247751
205 0.249619
210 0.2206
215 0.267947
220 0.278013
225 0.220755
230 0.259645
235 0.239578
240 0.215469
245 0.215635
250 0.263931
255 0.221702
260 0.274896
265 0.273173
270 0.223083
275 0.273566
280 0.221327
285 0.243881
290 0.226923
295 0.288156
300 0.299076
305 0.275511
310 0.170095
315 0.186068
320 0.21697
325 0.314071
330 0.220759
335 0.251999
340 0.262195
345 0.269213
350 0.25538
355 0.271498
360 0.228846
365 0.268469
370 0.300061
375 0.289843
380 0.302006
385 0.28488
390 0.302263
395 0.275723
400 0.262824
405 0.30785
410 0.347817
415 0.288907
420 0.313453
425 0.289994
430 0.402594
435 0.458703
440 0.532972
445 0.621707
450 0.836376
455 1.24421
460 41.999
465 620.784
470 869.186
475 199.913
480 24.9319
485 4.78041
490 2.2848
495 1.99703
500 2.19499
505 2.3244
510 2.01602
515 1.97792
520 2.05376
525 1.97956
530 1.96162
535 2.05865
540 2.96929
545 3.37076
550 2.55459
555 2.03201
560 1.93075
565 1.58032
570 1.21541
575 1.12495
580 0.873851
585 0.719288
590 0.695618
595 0.612237
600 0.779161
Ex : 478
200 0.34666
205 0.242969
210 0.219704
215 0.179081
220 0.270402
225 0.261018
230 0.250394
235 0.258242
240 0.276208
245 0.281739
250 0.359414
255 0.335443
260 0.315073
265 0.258009
270 0.327462
275 0.281095
280 0.283674
285 0.258169
290 0.271441
295 0.241077
300 0.371589
305 0.2763
310 0.243724
315 0.266041
320 0.265798
325 0.310966
330 0.281047
335 0.287592
340 0.372187
345 0.424219
350 0.326238
355 0.358509
360 0.276804
365 0.279661
370 0.362105
375 0.343794
380 0.271292
385 0.317282
390 0.335073
395 0.24154
400 0.334768
405 0.296771
410 0.374514
415 0.3104
420 0.372656
425 0.413867
430 0.405665
435 0.451978
440 0.47747
445 0.565678
450 0.702081
455 0.977404
460 1.60065
465 45.2472
470 636.405
475 888.794
480 214.889
485 26.7718
490 5.1574
495 2.25227
500 1.78589
505 1.92485
510 1.95241
515 1.96865
520 1.90818
525 1.7094
530 1.8027
535 1.71737
540 1.75348
545 2.54857
550 3.26293
555 2.49545
560 1.8762
565 1.66068
570 1.44418
575 1.12714
580 1.0128
585 0.818575
590 0.803227
595 0.610015
600 0.663363
Ex : 483
200 0.211364
205 0.236552
210 0.290699
215 0.312312
220 0.30663
225 0.317826
230 0.274215
235 0.24124
240 0.267605
245 0.261405
250 0.286548
255 0.295979
260 0.273966
265 0.263632
270 0.25799
275 0.281798
280 0.310233
285 0.327235
290 0.289624
295 0.242718
300 0.276628
305 0.265902
310 0.211383
315 0.224803
320 0.215515
325 0.288626
330 0.355312
335 0.289988
340 0.278035
345 0.319201
350 0.247165
355 0.2566
360 0.250452
365 0.31057
370 0.308993
375 0.320358
380 0.297579
385 0.315047
390 0.322178
395 0.36051
400 0.331873
405 0.281739
410 0.311483
415 0.317559
420 0.329314
425 0.447564
430 0.414638
435 0.452527
440 0.438171
445 0.524222
450 0.605909
455 0.715422
460 0.944809
465 1.55395
470 36.4276
475 649.311
480 966.871
485 229.58
490 28.2628
495 4.89204
500 2.23647
505 1.64231
510 1.71422
515 1.82276
520 1.9881
525 1.78953
530 1.79298
535 1.6553
540 1.54511
545 1.55491
550 1.80615
555 2.62638
560 2.73503
565 1.98388
570 1.47358
575 1.24658
580 1.07219
585 0.853588
590 0.794964
595 0.628674
600 0.500551
Ex : 488
200 0.241098
205 0.323113
210 0.283437
215 0.23701
220 0.246735
225 0.300756
230 0.320257
235 0.257686
240 0.360492
245 0.292836
250 0.273884
255 0.330906
260 0.324924
265 0.318745
270 0.285149
275 0.31638
280 0.321406
285 0.323545
290 0.277959
295 0.361898
300 0.357229
305 0.269732
310 0.259481
315 0.341638
320 0.300056
325 0.335512
330 0.301693
335 0.323382
340 0.294334
345 0.282205
350 0.239883
355 0.37968
360 0.363924
365 0.35151
370 0.294506
375 0.33309
380 0.32487
385 0.330472
390 0.396225
395 0.38769
400 0.317695
405 0.378482
410 0.430266
415 0.399639
420 0.407606
425 0.381349
430 0.456114
435 0.371537
440 0.356736
445 0.460734
450 0.506601
455 0.606749
460 0.864532
465 1.13906
470 1.55082
475 42.4755
480 665.036
485 920.632
490 217.553
495 26.9319
500 4.83059
505 2.13137
510 1.50818
515 1.57998
520 1.90722
525 1.9471
530 1.70671
535 1.59231
540 1.69299
545 1.78708
550 1.52138
555 1.48548
560 2.05429
565 2.59756
570 1.98729
575 1.45871
580 1.12852
585 0.993021
590 0.749007
595 0.741255
600 0.729177
Ex : 493
200 0.248915
205 0.318981
210 0.282736
215 0.327191
220 0.289594
225 0.356787
230 0.366272
235 0.338114
240 0.303373
245 0.218586
250 0.330695
255 0.277347
260 0.267204
265 0.247471
270 0.249101
275 0.220843
280 0.310959
285 0.27936
290 0.274969
295 0.250893
300 0.327271
305 0.321004
310 0.322085
315 0.280904
320 0.355746
325 0.403458
330 0.396196
335 0.302492
340 0.289127
345 0.259006
350 0.344415
355 0.279946
360 0.334005
365 0.291701
370 0.245681
375 0.289679
380 0.419726
385 0.327793
390 0.295421
395 0.390401
400 0.370415
405 0.389009
410 0.422497
415 0.420647
420 0.390087
425 0.388166
430 0.32638
435 0.468858
440 0.397921
445 0.431171
450 0.462438
455 0.457304
460 0.576298
465 0.822279
470 1.06953
475 1.52274
480 40.0589
485 655.097
490 963.27
495 220.691
500 27.161
505 4.64814
510 2.13864
515 1.7095
520 1.5974
525 1.9345
530 2.07763
535 1.77724
540 1.54359
545 1.52071
550 1.45465
555 1.25188
560 1.24276
565 1.57052
570 2.1858
575 1.9642
580 1.2601
585 1.01778
590 0.912411
595 0.7371
600 1.41834
Ex : 498
200 0.327012
205 0.312537
210 0.28631
215 0.278393
220 0.282749
225 0.263203
230 0.295658
235 0.271471
240 0.31593
245 0.352814
250 0.285152
255 0.289394
260 0.317774
265 0.333543
270 0.310551
275 0.370501
280 0.295337
285 0.34422
290 0.302323
295 0.352749
300 0.365029
305 0.271439
310 0.301098
315 0.354995
320 0.338839
325 0.37154
330 0.419034
335 0.31097
340 0.30159
345 0.314816
350 0.339756
355 0.445626
360 0.335648
365 0.410172
370 0.361527
375 0.313874
380 0.343615
385 0.315461
390 0.392057
395 0.337669
400 0.341835
405 0.442136
410 0.429948
415 0.414252
420 0.463795
425 0.421365
430 0.400669
435 0.495211
440 0.459468
445 0.496785
450 0.454533
455 0.629785
460 0.647663
465 0.608489
470 0.75308
475 1.08175
480 1.49566
485 46.5786
490 691.853
495 938.925
500 216.148
505 26.6459
510 4.70232
515 2.02399
520 1.71484
525 1.71622
530 1.81081
535 1.67651
540 1.66722
545 1.53229
550 1.3014
555 1.2783
560 1.29935
565 1.20775
570 1.21223
575 1.68613
580 1.66987
585 1.17285
590 0.94829
595 0.80466
600 0.770362
Ex : 503
200 0.399274
205 0.437582
210 0.320246
215 0.316832
220 0.372592
225 0.289613
230 0.323321
235 0.364263
240 0.431809
245 0.295115
250 0.407868
255 0.263343
260 0.365401
265 0.296483
270 0.369763
275 0.399424
280 0.343317
285 0.341584
290 0.308012
295 0.356863
300 0.310941
305 0.356626
310 0.382596
315 0.279105
320 0.294556
325 0.401176
330 0.327879
335 0.365919
340 0.343682
345 0.350221
350 0.353479
355 0.286949
360 0.292366
365 0.403749
370 0.415708
375 0.338005
380 0.355352
385 0.321101
390 0.342056
395 0.425486
400 0.385825
405 0.430801
410 0.383997
415 0.401328
420 0.368419
425 0.444779
430 0.426157
435 0.452039
440 0.439196
445 0.483665
450 0.565812
455 0.554808
460 0.527056
465 0.650116
470 0.721358
475 0.77649
480 1.04876
485 1.62156
490 41.8829
495 675.767
500 945.809
505 215.417
510 26.6183
515 4.73958
520 2.11117
525 1.61757
530 1.65122
535 1.62983
540 1.6771
545 1.60376
550 1.46157
555 1.26613
560 1.25248
565 1.20726
570 1.15941
575 1.07696
580 1.24913
585 1.40406
590 1.16372
595 0.787385
600 0.837951
Ex : 508
200 0.335617
205 0.301154
210 0.286739
215 0.402334
220 0.424225
225 0.400159
230 0.391068
235 0.340068
240 0.345329
245 0.447852
250 0.377984
255 0.403598
260 0.337541
265 0.319818
270 0.381373
275 0.32548
280 0.417009
285 0.293693
290 0.323317
295 0.237268
300 0.377547
305 0.308134
310 0.417263
315 0.377813
320 0.267759
325 0.324555
330 0.382931
335 0.346601
340 0.326953
345 0.383581
350 0.368039
355 0.472411
360 0.454562
365 0.398051
370 0.345305
375 0.43579
380 0.43089
385 0.394956
390 0.431175
395 0.329863
400 0.380635
405 0.427754
410 0.399691
415 0.482813
420 0.432809
425 0.385602
430 0.427905
435 0.40764
440 0.436786
445 0.530321
450 0.442453
455 0.512742
460 0.652875
465 0.619196
470 0.650773
475 0.731263
480 0.882876
485 1.11986
490 1.69971
495 46.2641
500 678.55
505 952.006
510 228.149
515 28.0532
520 4.99467
525 2.29919
530 1.74372
535 1.57949
540 1.62785
545 1.70968
550 1.53725
555 1.42888
560 1.20694
565 1.07492
570 1.08946
575 0.993377
580 0.904475
585 0.95337
590 1.20301
595 1.27937
600 1.15022
Ex : 513
200 0.327138
205 0.345463
210 0.39826
215 0.323633
220 0.362317
225 0.326092
230 0.271905
235 0.416733
240 0.431043
245 0.42592
250 0.385809
255 0.299228
260 0.333203
265 0.355286
270 0.340807
275 0.377598
280 0.339623
285 0.357993
290 0.350312
295 0.332294
300 0.404857
305 0.417469
310 0.324547
315 0.279379
320 0.304937
325 0.343359
330 0.338767
335 0.394309
340 0.322882
345 0.36766
350 0.367982
355 0.423319
360 0.377322
365 0.402711
370 0.355041
375 0.363658
380 0.383378
385 0.396793
390 0.377721
395 0.38498
400 0.322197
405 0.405891
410 0.351633
415 0.398254
420 0.422668
425 0.435065
430 0.414668
435 0.439284
440 0.513479
445 0.498917
450 0.422651
455 0.496316
460 0.52402
465 0.65925
470 0.554218
475 0.619268
480 0.757849
485 0.752541
490 1.11138
495 1.46841
500 41.2629
505 656.353
510 946.849
515 232.345
520 28.7352
525 4.99608
530 2.27538
535 1.56698
540 1.50803
545 1.61555
550 1.5644
555 1.46054
560 1.17152
565 1.0894
570 0.952777
575 1.00693
580 0.968813
585 0.849191
590 0.81646
595 0.992981
600 0.965441
Ex : 518
200 0.353353
205 0.304851
210 0.382255
215 0.375604
220 0.414052
225 0.342727
230 0.392098
235 0.376684
240 0.385412
245 0.365508
250 0.334005
255 0.458633
260 0.366011
265 0.291429
270 0.418497
275 0.322327
280 0.352621
285 0.356941
290 0.292281
295 0.382943
300 0.282852
305 0.424943
310 0.522375
315 0.409126
320 0.426433
325 0.446223
330 0.395425
335 0.334722
340 0.429615
345 0.380288
350 0.467415
355 0.386438
360 0.434797
365 0.294663
370 0.290226
375 0.386258
380 0.381751
385 0.399554
390 0.38829
395 0.428757
400 0.377359
405 0.45548
410 0.407315
415 0.427964
420 0.424225
425 0.402423
430 0.365077
435 0.370148
440 0.418503
445 0.50071
450 0.450547
455 0.451649
460 0.488595
465 0.498077
470 0.491553
475 0.528766
480 0.720144
485 0.720872
490 0.853487
495 1.05993
500 1.46531
505 42.8201
510 641.252
515 940.168
520 230.197
525 28.3163
530 4.86545
535 2.03812
540 1.54581
545 1.28085
550 1.49062
555 1.48807
560 1.35269
565 1.22004
570 1.03533
575 0.971461
580 0.870791
585 0.821958
590 0.78107
595 0.742061
600 1.02303
Ex : 523
200 0.403319
205 0.352192
210 0.411014
215 0.398493
220 0.374005
225 0.299631
230 0.297791
235 0.38048
240 0.373795
245 0.325083
250 0.324449
255 0.397836
260 0.466642
265 0.38041
270 0.43058
275 0.444014
280 0.296545
285 0.396141
290 0.339871
295 0.376155
300 0.375037
305 0.364437
310 0.333863
315 0.337571
320 0.431652
325 0.402848
330 0.411708
335 0.393776
340 0.37984
345 0.39123
350 0.438904
355 0.388598
360 0.310736
365 0.373224
370 0.433371
375 0.3807
380 0.37265
385 0.386388
390 0.358609
395 0.490684
400 0.396901
405 0.51001
410 0.437379
415 0.378691
420 0.354331
425 0.455352
430 0.498246
435 0.444878
440 0.399102
445 0.442576
450 0.466233
455 0.52174
460 0.622342
465 0.567254
470 0.561816
475 0.583153
480 0.478273
485 0.619198
490 0.725849
495 0.898715
500 1.00946
505 1.38378
510 37.8958
515 617.84
520 923.504
525 236.239
530 28.9748
535 4.73954
540 2.01224
545 1.44715
550 1.33108
555 1.26261
560 1.57854
565 1.33591
570 1.26283
575 0.997932
580 0.792593
585 0.766949
590 0.777626
595 0.7459
600 0.934727
Ex : 528
200 0.411954
205 0.387743
210 0.336971
215 0.422146
220 0.344738
225 0.429927
230 0.363777
235 0.35399
240 0.36765
245 0.275954
250 0.395559
255 0.377437
260 0.434087
265 0.289807
270 0.396082
275 0.417044
280 0.340195
285 0.323019
290 0.330112
295 0.337232
300 0.430513
305 0.29466
310 0.355848
315 0.401136
320 0.374135
325 0.359813
330 0.422874
335 0.344969
340 0.382784
345 0.370307
350 0.424179
355 0.436033
360 0.497335
365 0.450673
370 0.465365
375 0.42762
380 0.379093
385 0.314864
390 0.367462
395 0.451772
400 0.503909
405 0.438317
410 0.379673
415 0.433108
420 0.490175
425 0.35863
430 0.389654
435 0.493072
440 0.470494
445 0.471779
450 0.527695
455 0.504422
460 0.4864
465 0.491065
470 0.490211
475 0.493265
480 0.550638
485 0.50693
490 0.633513
495 0.738543
500 0.911174
505 1.09302
510 1.58586
515 36.4239
520 608.013
525 915.863
530 228.079
535 28.1579
540 4.76682
545 1.97067
550 1.38778
555 1.29439
560 1.23561
565 1.2713
570 1.2076
575 1.02296
580 0.781589
585 0.70479
590 0.835771
595 0.665191
600 1.61513
Ex : 533
200 0.393205
205 0.415344
210 0.414385
215 0.529292
220 0.455339
225 0.324838
230 0.441742
235 0.367819
240 0.389869
245 0.371201
250 0.299437
255 0.299925
260 0.424531
265 0.400757
270 0.394207
275 0.30261
280 0.340221
285 0.336627
290 0.428383
295 0.388767
300 0.389877
305 0.38489
310 0.391677
315 0.487387
320 0.394134
325 0.383916
330 0.395443
335 0.408052
340 0.412364
345 0.365945
350 0.366734
355 0.444229
360 0.560985
365 0.376824
370 0.499285
375 0.499861
380 0.487491
385 0.477252
390 0.416603
395 0.42788
400 0.396553
405 0.377783
410 0.447125
415 0.538603
420 0.498365
425 0.410573
430 0.425071
435 0.330843
440 0.622793
445 0.576781
450 0.479784
455 0.387297
460 0.525384
465 0.553029
470 0.547217
475 0.458137
480 0.532376
485 0.563205
490 0.597352
495 0.648972
500 0.59724
505 0.793433
510 1.01307
515 1.44026
520 35.2206
525 576.812
530 899.485
535 235.24
540 28.896
545 4.68318
550 1.85433
555 1.40117
560 1.16305
565 1.21503
570 1.16599
575 1.0476
580 0.960656
585 0.939186
590 0.884692
595 0.686145
600 0.406834
Ex : 538
200 0.470784
205 0.419215
210 0.425088
215 0.382841
220 0.371803
225 0.413042
230 0.490164
235 0.406511
240 0.454628
245 0.397144
250 0.383177
255 0.317166
260 0.302202
265 0.403414
270 0.416349
275 0.336146
280 0.326337
285 0.453811
290 0.488778
295 0.53458
300 0.4467
305 0.373315
310 0.421369
315 0.372899
320 0.410793
325 0.384809
330 0.391495
335 0.506702
340 0.484491
345 0.375868
350 0.436298
355 0.512387
360 0.464055
365 0.425871
370 0.415513
375 0.476966
380 0.599361
385 0.433286
390 0.421512
395 0.452927
400 0.398291
405 0.519134
410 0.411427
415 0.483702
420 0.593172
425 0.440471
430 0.511808
435 0.446221
440 0.396222
445 0.442694
450 0.4657
455 0.55604
460 0.434539
465 0.482202
470 0.671769
475 0.616264
480 0.456341
485 0.499225
490 0.578085
495 0.667839
500 0.646859
505 0.8459
510 0.946334
515 0.925029
520 1.51784
525 29.842
530 560.987
535 905.706
540 243.758
545 29.9041
550 4.74954
555 1.79475
560 1.31285
565 0.925108
570 0.997287
575 1.14116
580 0.973137
585 0.955189
590 0.944979
595 0.665064
600 0.531161
Ex : 543
200 0.334962
205 0.43901
210 0.467912
215 0.419235
220 0.435482
225 0.388031
230 0.444957
235 0.447761
240 0.457876
245 0.422259
250 0.45774
255 0.452217
260 0.458086
265 0.424356
270 0.525748
275 0.404254
280 0.388169
285 0.353846
290 0.406204
295 0.388402
300 0.395626
305 0.439513
310 0.330357
315 0.417691
320 0.441292
325 0.399802
330 0.447585
335 0.501696
340 0.471441
345 0.448672
350 0.392025
355 0.488017
360 0.42606
365 0.446428
370 0.48518
375 0.420902
380 0.517955
385 0.402164
390 0.415651
395 0.482985
400 0.491605
405 0.480142
410 0.576842
415 0.465303
420 0.508919
425 0.452145
430 0.507407
435 0.481821
440 0.611474
445 0.589107
450 0.565104
455 0.549272
460 0.471522
465 0.443076
470 0.475634
475 0.513616
480 0.498716
485 0.528034
490 0.554767
495 0.634299
500 0.67834
505 0.642369
510 0.902222
515 0.919188
520 1.10975
525 1.36382
530 27.5246
535 527.585
540 891.928
545 244.382
550 29.8528
555 4.67466
560 1.57418
565 1.19837
570 0.901436
575 0.905143
580 0.7844
585 0.980206
590 0.869219
595 0.817572
600 0.410257
Ex : 548
200 0.480425
205 0.377674
210 0.374437
215 0.423279
220 0.424698
225 0.424393
230 0.459231
235 0.380602
240 0.384292
245 0.458675
250 0.426376
255 0.391325
260 0.613049
265 0.489471
270 0.36252
275 0.310141
280 0.373952
285 0.358262
290 0.426091
295 0.400483
300 0.387538
305 0.384661
310 0.377791
315 0.580216
320 0.39737
325 0.344322
330 0.519131
335 0.460947
340 0.369205
345 0.58429
350 0.44804
355 0.472122
360 0.487434
365 0.456426
370 0.405773
375 0.513721
380 0.452646
385 0.460212
390 0.444956
395 0.529822
400 0.457513
405 0.433818
410 0.415659
415 0.44532
420 0.526133
425 0.454581
430 0.531892
435 0.488822
440 0.427216
445 0.434432
450 0.475436
455 0.44432
460 0.374534
465 0.571146
470 0.543909
475 0.570921
480 0.50313
485 0.47443
490 0.578985
495 0.560163
500 0.728055
505 0.621112
510 0.670006
515 0.841636
520 0.846668
525 0.967182
530 1.37573
535 30.5415
540 537.631
545 868.441
550 238.996
555 29.4272
560 4.49859
565 1.48773
570 1.09567
575 0.988323
580 0.819341
585 0.748464
590 0.805042
595 0.754206
600 0.790643
Ex : 553
200 0.452412
205 0.531504
210 0.416657
215 0.464383
220 0.445008
225 0.512637
230 0.405191
235 0.397374
240 0.427494
245 0.446124
250 0.42568
255 0.470918
260 0.550322
265 0.529659
270 0.580121
275 0.467712
280 0.484829
285 0.395085
290 0.364899
295 0.449621
300 0.394154
305 0.418187
310 0.448661
315 0.496282
320 0.476114
325 0.449811
330 0.429676
335 0.467599
340 0.485414
345 0.574835
350 0.370187
355 0.401862
360 0.458889
365 0.380372
370 0.52765
375 0.500571
380 0.490831
385 0.519739
390 0.634101
395 0.536049
400 0.440546
405 0.509892
410 0.603597
415 0.555437
420 0.523636
425 0.543461
430 0.454379
435 0.468489
440 0.459575
445 0.475725
450 0.403852
455 0.541543
460 0.459461
465 0.548912
470 0.529693
475 0.545375
480 0.452366
485 0.53635
490 0.533694
495 0.545427
500 0.627149
505 0.625261
510 0.562773
515 0.726099
520 0.677012
525 0.861193
530 0.985884
535 1.25413
540 25.0976
545 496.784
550 851.439
555 239.165
560 29.1694
565 4.55185
570 1.56435
575 1.10757
580 0.830199
585 0.822
590 1.04316
595 0.782305
600 0.59085
Ex : 558
200 0.383728
205 0.378593
210 0.423169
215 0.373485
220 0.352329
225 0.495296
230 0.429747
235 0.440624
240 0.471164
245 0.445201
250 0.469949
255 0.481775
260 0.470364
265 0.374854
270 0.426489
275 0.481906
280 0.331372
285 0.428697
290 0.460359
295 0.355656
300 0.494868
305 0.495436
310 0.406677
315 0.45212
320 0.382188
325 0.457865
330 0.382245
335 0.454495
340 0.558594
345 0.524413
350 0.455465
355 0.450827
360 0.444287
365 0.364873
370 0.45669
375 0.483683
380 0.478918
385 0.444572
390 0.458941
395 0.484833
400 0.400684
405 0.501112
410 0.530284
415 0.585751
420 0.41369
425 0.43157
430 0.432594
435 0.411298
440 0.623968
445 0.534798
450 0.569056
455 0.480586
460 0.507667
465 0.565996
470 0.667581
475 0.43119
480 0.606046
485 0.628223
490 0.519322
495 0.588911
500 0.663502
505 0.580714
510 0.526777
515 0.600532
520 0.692838
525 0.712354
530 0.900655
535 0.984601
540 1.3024
545 24.2882
550 473.315
555 837.977
560 237.975
565 28.9567
570 4.43576
575 1.54552
580 1.03537
585 0.92846
590 0.774074
595 0.796127
600 0.384185
Ex : 563
200 0.499619
205 0.694335
210 0.371108
215 0.483835
220 0.530162
225 0.511831
230 0.443706
235 0.35244
240 0.473352
245 0.506799
250 0.424235
255 0.57292
260 0.444124
265 0.455847
270 0.455335
275 0.458338
280 0.384911
285 0.45779
290 0.654004
295 0.591511
300 0.581148
305 0.413305
310 0.503504
315 0.407422
320 0.505008
325 0.521124
330 0.387684
335 0.537649
340 0.587897
345 0.379895
350 0.444996
355 0.458105
360 0.47608
365 0.601425
370 0.488077
375 0.545619
380 0.578248
385 0.622681
390 0.533823
395 0.581443
400 0.446046
405 0.509451
410 0.439609
415 0.509433
420 0.479048
425 0.437419
430 0.527196
435 0.546143
440 0.494047
445 0.384495
450 0.525632
455 0.610387
460 0.538401
465 0.521925
470 0.572243
475 0.52157
480 0.576885
485 0.518605
490 0.443133
495 0.561882
500 0.595989
505 0.538196
510 0.662061
515 0.603187
520 0.636559
525 0.650938
530 0.746828
535 0.697119
540 1.15438
545 1.40088
550 23.519
555 465.821
560 809.964
565 233.554
570 28.5368
575 4.27509
580 1.25479
585 0.903328
590 0.988179
595 0.80033
600 0.108117
Ex : 568
200 0.425004
205 0.610633
210 0.441081
215 0.491466
220 0.491811
225 0.489122
230 0.5186
235 0.414596
240 0.391126
245 0.49569
250 0.407601
255 0.479541
260 0.448532
265 0.550211
270 0.487967
275 0.472358
280 0.36103
285 0.465714
290 0.599761
295 0.44611
300 0.424104
305 0.497726
310 0.534312
315 0.538616
320 0.504535
325 0.468297
330 0.478884
335 0.400561
340 0.499923
345 0.438377
350 0.454292
355 0.759225
360 0.648208
365 0.476481
370 0.505575
375 0.56205
380 0.464266
385 0.479371
390 0.526555
395 0.525605
400 0.484419
405 0.432203
410 0.59816
415 0.557827
420 0.450948
425 0.494907
430 0.461688
435 0.510565
440 0.450172
445 0.470845
450 0.552009
455 0.449677
460 0.491954
465 0.591491
470 0.518965
475 0.617285
480 0.615525
485 0.704193
490 0.624152
495 0.583223
500 0.547402
505 0.555551
510 0.652291
515 0.52204
520 0.607695
525 0.613851
530 0.675149
535 0.738044
540 0.821534
545 0.910273
550 1.22412
555 18.484
560 418.995
565 791.314
570 239.304
575 29.3547
580 4.28335
585 1.24987
590 0.932548
595 0.795172
600 1.0882
Ex : 573
200 0.705445
205 0.593434
210 0.517123
215 0.426156
220 0.594018
225 0.53332
230 0.525086
235 0.442501
240 0.413103
245 0.393077
250 0.38701
255 0.505635
260 0.440786
265 0.414446
270 0.420917
275 0.412908
280 0.469417
285 0.509754
290 0.4623
295 0.538693
300 0.447914
305 0.432188
310 0.544744
315 0.470192
320 0.456838
325 0.382784
330 0.522498
335 0.507191
340 0.485304
345 0.478943
350 0.530212
355 0.581861
360 0.547777
365 0.415544
370 0.521058
375 0.4735
380 0.353605
385 0.497235
390 0.377921
395 0.412258
400 0.465917
405 0.504425
410 0.51052
415 0.519474
420 0.429756
425 0.486
430 0.450223
435 0.460195
440 0.5083
445 0.575025
450 0.534807
455 0.629291
460 0.432555
465 0.611722
470 0.600292
475 0.559456
480 0.579378
485 0.589918
490 0.524217
495 0.558909
500 0.480944
505 0.574024
510 0.533369
515 0.587612
520 0.627294
525 0.681359
530 0.671061
535 0.649345
540 0.685582
545 0.901551
550 1.06376
555 1.14801
560 15.5046
565 357.395
570 709.897
575 221.77
580 27.3325
585 3.94559
590 1.24357
595 0.852615
600 1.0616
Ex : 578
200 0.401729
205 0.436557
210 0.414944
215 0.493745
220 0.374391
225 0.439126
230 0.537884
235 0.411065
240 0.471253
245 0.456109
250 0.423021
255 0.491388
260 0.546535
265 0.543833
270 0.413838
275 0.374619
280 0.593538
285 0.444603
290 0.581749
295 0.688778
300 0.514381
305 0.484823
310 0.435143
315 0.605602
320 0.602181
325 0.489777
330 0.467996
335 0.410623
340 0.467811
345 0.569373
350 0.445592
355 0.650578
360 0.510359
365 0.431849
370 0.516762
375 0.448023
380 0.50244
385 0.371371
390 0.489227
395 0.536214
400 0.602125
405 0.598845
410 0.47875
415 0.470003
420 0.64671
425 0.601738
430 0.460926
435 0.639887
440 0.632353
445 0.679988
450 0.615241
455 0.686676
460 0.568498
465 0.46785
470 0.600877
475 0.526569
480 0.521093
485 0.719864
490 0.629392
495 0.655289
500 0.441028
505 0.642179
510 0.547565
515 0.693555
520 0.568574
525 0.61652
530 0.711995
535 0.706884
540 0.672575
545 0.567316
550 0.865236
555 0.919267
560 1.1591
565 14.3819
570 326.36
575 631.121
580 192.189
585 23.5592
590 3.51378
595 1.2366
600 0.522281
Ex : 583
200 0.370396
205 0.46517
210 0.486544
215 0.47346
220 0.470888
225 0.472565
230 0.656027
235 0.489294
240 0.621573
245 0.562711
250 0.527726
255 0.572459
260 0.535882
265 0.573095
270 0.551609
275 0.479049
280 0.549921
285 0.603572
290 0.406707
295 0.33738
300 0.380372
305 0.577616
310 0.418676
315 0.46674
320 0.61557
325 0.484537
330 0.525886
335 0.546171
340 0.442824
345 0.522881
350 0.51146
355 0.529228
360 0.44422
365 0.602326
370 0.571229
375 0.42822
380 0.517959
385 0.49603
390 0.476595
395 0.501385
400 0.617872
405 0.47373
410 0.463703
415 0.604829
420 0.638475
425 0.459774
430 0.489494
435 0.567168
440 0.458886
445 0.490218
450 0.637481
455 0.659877
460 0.606328
465 0.490143
470 0.493838
475 0.501132
480 0.65307
485 0.494731
490 0.509965
495 0.503423
500 0.597831
505 0.538984
510 0.609299
515 0.580501
520 0.606941
525 0.695801
530 0.646214
535 0.588466
540 0.56926
545 0.616798
550 0.814314
555 0.817254
560 1.02831
565 1.18478
570 12.4292
575 284.931
580 528.234
585 156.274
590 19.3951
595 2.95448
600 0.5939
Ex : 588
200 0.464229
205 0.550705
210 0.537173
215 0.438769
220 0.400617
225 0.580422
230 0.534325
235 0.566258
240 0.580248
245 0.551568
250 0.522186
255 0.397226
260 0.445081
265 0.483669
270 0.445661
275 0.446644
280 0.437404
285 0.45281
290 0.456826
295 0.509477
300 0.495412
305 0.466944
310 0.505214
315 0.462396
320 0.4878
325 0.511384
330 0.442347
335 0.403843
340 0.602641
345 0.485033
350 0.425341
355 0.477561
360 0.541259
365 0.564017
370 0.445468
375 0.439243
380 0.483282
385 0.653231
390 0.527333
395 0.431698
400 0.434761
405 0.412005
410 0.46433
415 0.540513
420 0.429946
425 0.499445
430 0.536396
435 0.670088
440 0.518879
445 0.494159
450 0.604349
455 0.59393
460 0.541386
465 0.495873
470 0.618824
475 0.605337
480 0.650556
485 0.651061
490 0.624793
495 0.587259
500 0.581495
505 0.645333
510 0.452306
515 0.702608
520 0.550188
525 0.541979
530 0.621932
535 0.573019
540 0.583191
545 0.526249
550 0.657203
555 0.66775
560 0.76503
565 0.996171
570 1.07839
575 10.1155
580 239.859
585 450.873
590 137.141
595 16.9406
600 2.74124
Ex : 593
200 0.406668
205 0.512709
210 0.477812
215 0.383083
220 0.437773
225 0.408377
230 0.605208
235 0.63803
240 0.450026
245 0.605315
250 0.597596
255 0.534548
260 0.458616
265 0.639346
270 0.581065
275 0.509884
280 0.509716
285 0.564617
290 0.522536
295 0.579942
300 0.562664
305 0.522694
310 0.485353
315 0.482119
320 0.410462
325 0.551471
330 0.557603
335 0.48379
340 0.399349
345 0.501984
350 0.378418
355 0.533226
360 0.636044
365 0.458546
370 0.617299
375 0.457199
380 0.423417
385 0.451243
390 0.529725
395 0.590422
400 0.436316
405 0.435366
410 0.569818
415 0.547003
420 0.566273
425 0.385258
430 0.514842
435 0.519017
440 0.551269
445 0.61762
450 0.707468
455 0.543754
460 0.554909
465 0.536306
470 0.623586
475 0.552251
480 0.520032
485 0.495953
490 0.49362
495 0.484416
500 0.686079
505 0.634894
510 0.610025
515 0.678787
520 0.623318
525 0.74024
530 0.48246
535 0.429015
540 0.663005
545 0.654749
550 0.84686
555 0.755059
560 0.742718
565 0.721679
570 0.744924
575 0.861975
580 9.80263
585 222.802
590 395.143
595 119.855
600 17.4208
Ex : 598
200 0.475943
205 0.430879
210 0.467811
215 0.604254
220 0.49732
225 0.599677
230 0.445762
235 0.602523
240 0.621705
245 0.52589
250 0.438418
255 0.525553
260 0.621109
265 0.512139
270 0.595268
275 0.423186
280 0.404741
285 0.518804
290 0.512783
295 0.374558
300 0.533864
305 0.47365
310 0.611886
315 0.445234
320 0.641122
325 0.554983
330 0.536688
335 0.471529
340 0.523415
345 0.431085
350 0.575331
355 0.648109
360 0.582977
365 0.464052
370 0.540357
375 0.540487
380 0.528454
385 0.569781
390 0.465683
395 0.567574
400 0.472887
405 0.509216
410 0.621532
415 0.592866
420 0.548499
425 0.466818
430 0.640926
435 0.587672
440 0.634267
445 0.470332
450 0.60895
455 0.546683
460 0.410796
465 0.708901
470 0.472831
475 0.582246
480 0.689979
485 0.541886
490 0.610827
495 0.57037
500 0.570146
505 0.624406
510 0.736877
515 0.538913
520 0.612247
525 0.556484
530 0.597483
535 0.679327
540 0.683062
545 0.671296
550 0.663262
555 0.729115
560 0.681162
565 0.65095
570 0.843619
575 0.864793
580 1.03947
585 9.77366
590 197.334
595 349.639
600 229.45
Ex : 603
200 0.501508
205 0.602371
210 0.669431
215 0.602925
220 0.477102
225 0.625342
230 0.582837
235 0.476571
240 0.47128
245 0.635139
250 0.567634
255 0.434102
260 0.517334
265 0.592676
270 0.599382
275 0.381293
280 0.431621
285 0.561672
290 0.646964
295 0.728211
300 0.509705
305 0.602531
310 0.407978
315 0.524836
320 0.478454
325 0.629213
330 0.492612
335 0.598345
340 0.454369
345 0.40963
350 0.511661
355 0.496205
360 0.547648
365 0.425877
370 0.641968
375 0.513545
380 0.533744
385 0.453593
390 0.556426
395 0.686465
400 0.77518
405 0.58139
410 0.519232
415 0.642097
420 0.503259
425 0.667027
430 0.642253
435 0.633742
440 0.521264
445 0.615558
450 0.610838
455 0.581808
460 0.700558
465 0.704178
470 0.481871
475 0.413241
480 0.662554
485 0.780086
490 0.636498
495 0.538094
500 0.742194
505 0.538474
510 0.646214
515 0.662542
520 0.564378
525 0.567741
530 0.640657
535 0.566266
540 0.540891
545 0.695376
550 0.592282
555 0.604112
560 0.799103
565 0.629045
570 0.69647
575 0.670656
580 0.70876
585 0.880131
590 8.57909
595 167.936
600 323.734
