File format V 1.0
ven. 6. janv. 01:59:50 2017
Operator : 
Comments : 

=============================================
SpectroFluorometer parameters
Mode : 3D measurement
Data : Fluorescence
Phospho. : Ordinary
Spectrum : Fluorescence

Scan speed : 2400 nm/mn
Response : 100 ms
PM Voltage : 700 V
Shutter : On

Lambda Ex. Start : 203
Lambda Ex. End : 603
Lambda Ex. Step : 5
Ex. Slit : 5 nm

Lambda Em. Start : 200
Lambda Em. End : 600
Lambda Em. Step : 5
Em. Slit : 5 nm

Repetition : 1
Decal lambda em : 10
=============================================
DATA
Ex : 203
200 1.77703
205 4.68019
210 6.118
215 2.67083
220 3.26753
225 1.90588
230 2.33392
235 5.70483
240 6.36823
245 3.62331
250 2.58135
255 3.13983
260 3.07661
265 0.893645
270 4.64496
275 2.96993
280 7.92533
285 3.91245
290 3.65562
295 2.54526
300 2.38207
305 4.23504
310 7.94226
315 4.93376
320 2.4971
325 5.46903
330 3.00637
335 3.44383
340 6.61215
345 5.50074
350 3.32512
355 5.75932
360 4.49343
365 4.93624
370 3.36903
375 3.56256
380 3.05236
385 5.00671
390 6.82381
395 2.4002
400 5.86212
405 4.31037
410 4.41025
415 4.86199
420 4.6584
425 6.16903
430 4.64801
435 3.04367
440 3.13995
445 5.25785
450 4.29283
455 4.69798
460 4.07375
465 4.60488
470 5.76739
475 6.38748
480 3.47046
485 4.92924
490 5.27529
495 2.222
500 2.88269
505 9.03833
510 3.81614
515 3.26551
520 1.76173
525 3.40315
530 3.98421
535 6.1488
540 5.1615
545 3.0594
550 3.15736
555 4.67596
560 5.53244
565 2.66072
570 4.86702
575 2.90201
580 3.42265
585 5.10536
590 4.22804
595 4.90167
600 0.557791
Ex : 208
200 2.22024
205 4.73868
210 2.58433
215 5.05668
220 2.59708
225 2.48917
230 2.81263
235 1.81625
240 1.58712
245 3.93613
250 3.44644
255 3.78827
260 2.94298
265 6.26349
270 3.46169
275 4.30695
280 3.36264
285 2.94827
290 3.83015
295 2.90008
300 1.98866
305 2.30159
310 2.41412
315 3.52601
320 3.44721
325 2.08273
330 3.54671
335 5.80354
340 2.41411
345 3.86231
350 5.84419
355 6.31111
360 5.65475
365 6.72552
370 1.95071
375 4.18482
380 3.43213
385 2.60893
390 3.47088
395 5.67602
400 3.9485
405 4.20231
410 3.79047
415 3.97062
420 5.89481
425 4.58589
430 4.57307
435 3.74187
440 4.5876
445 4.50997
450 3.68982
455 1.98647
460 5.81092
465 4.96162
470 2.19653
475 1.82783
480 0.980264
485 7.43343
490 8.1711
495 3.47768
500 6.9974
505 2.78571
510 2.37139
515 2.08626
520 3.28595
525 2.4073
530 2.631
535 5.89394
540 4.88018
545 2.63142
550 6.77366
555 6.95013
560 6.71388
565 2.73044
570 3.89335
575 2.41302
580 4.50474
585 2.47999
590 3.88242
595 3.59647
600 0.409264
Ex : 213
200 2.55705
205 2.73269
210 3.61299
215 3.37721
220 3.68207
225 4.68835
230 3.61095
235 3.40337
240 2.63445
245 5.49592
250 3.49814
255 3.08016
260 2.49925
265 4.71542
270 3.43312
275 1.82134
280 5.76042
285 1.95841
290 2.34863
295 2.22799
300 2.5523
305 6.02861
310 4.05361
315 3.22525
320 2.32029
325 2.30785
330 9.24576
335 3.4312
340 3.41681
345 10.5612
350 5.96879
355 4.28734
360 7.78202
365 4.43038
370 3.90964
375 2.8139
380 4.4593
385 3.35974
390 6.78133
395 3.55448
400 4.85371
405 5.37214
410 4.25397
415 3.57204
420 3.39375
425 6.06131
430 4.82911
435 3.25448
440 4.59587
445 3.22705
450 6.84062
455 4.62586
460 4.51726
465 2.89572
470 2.89951
475 2.0218
480 6.45682
485 3.79619
490 2.96321
495 4.29241
500 4.03907
505 4.49968
510 2.90194
515 8.09969
520 2.96231
525 3.41771
530 1.76056
535 4.14538
540 4.03439
545 4.73406
550 2.28733
555 3.15059
560 2.25511
565 4.70436
570 4.70683
575 2.66842
580 2.76139
585 2.76625
590 2.5514
595 3.7162
600 3.5246
Ex : 218
200 9.02548
205 2.96114
210 7.70019
215 2.86046
220 5.0441
225 0.953005
230 4.59336
235 5.83993
240 1.49499
245 8.65316
250 5.91149
255 2.68525
260 6.48886
265 4.98647
270 2.1831
275 3.37006
280 2.09946
285 2.03543
290 3.13142
295 2.50349
300 4.66411
305 5.13136
310 2.8831
315 4.55328
320 3.46463
325 3.48503
330 5.99929
335 5.88575
340 3.95981
345 3.99543
350 3.11328
355 1.78538
360 2.93932
365 3.79242
370 3.95817
375 3.27946
380 2.41482
385 3.7081
390 2.76524
395 3.361
400 5.7831
405 4.35351
410 3.7388
415 3.15313
420 4.69797
425 3.14109
430 6.54898
435 7.32031
440 7.84836
445 6.34845
450 4.3187
455 3.37744
460 8.00228
465 4.20708
470 4.01728
475 3.3157
480 2.64087
485 4.10429
490 4.33357
495 4.51096
500 5.12399
505 3.93159
510 2.82943
515 3.61116
520 3.16408
525 5.70001
530 5.20866
535 4.67599
540 4.25648
545 2.61391
550 6.61621
555 4.53941
560 5.29099
565 4.83926
570 4.03758
575 4.25172
580 1.36449
585 2.58946
590 2.82502
595 2.32112
600 0.264134
Ex : 223
200 1.20231
205 1.8312
210 5.29959
215 4.39965
220 4.1857
225 2.58774
230 2.88744
235 3.17833
240 4.68123
245 2.50264
250 2.70818
255 2.70093
260 2.11625
265 1.66429
270 2.19416
275 5.83563
280 4.09741
285 1.9511
290 4.28084
295 3.56776
300 6.19367
305 2.07843
310 3.63185
315 2.19117
320 3.90158
325 4.84114
330 5.06409
335 5.03464
340 4.6618
345 2.54607
350 4.96244
355 4.99573
360 3.4736
365 2.06502
370 8.30004
375 2.04226
380 3.76039
385 4.65271
390 4.07428
395 5.48162
400 5.99505
405 4.02947
410 3.66168
415 2.76705
420 4.60568
425 3.3778
430 4.48801
435 1.91387
440 3.09658
445 4.98456
450 3.46702
455 4.50489
460 5.25829
465 5.1992
470 3.00905
475 3.2638
480 5.62089
485 1.82301
490 3.0464
495 5.98811
500 2.34442
505 2.00444
510 3.19688
515 2.73081
520 4.05923
525 3.08152
530 4.03934
535 2.48131
540 4.89503
545 2.43752
550 2.38632
555 5.729
560 5.12222
565 3.5947
570 3.17561
575 5.58531
580 3.27682
585 3.55493
590 3.9899
595 1.78849
600 0.203524
Ex : 228
200 8.13636
205 3.35474
210 3.02969
215 6.67025
220 2.92999
225 2.07078
230 1.59516
235 3.69506
240 4.13079
245 4.36383
250 3.12988
255 1.8184
260 2.02392
265 2.44079
270 3.35429
275 2.33562
280 3.5942
285 4.30393
290 4.53952
295 6.38578
300 3.96081
305 2.35606
310 5.50431
315 1.79455
320 2.13825
325 4.70473
330 2.63368
335 7.93686
340 4.61066
345 5.41961
350 4.19437
355 3.04624
360 2.57052
365 3.71988
370 1.93861
375 3.59135
380 1.758
385 2.12683
390 4.79216
395 6.44966
400 3.56443
405 4.08758
410 5.61411
415 5.2257
420 3.00648
425 1.19096
430 3.28772
435 3.99233
440 6.02848
445 3.97303
450 4.25658
455 4.68422
460 3.36671
465 5.77599
470 2.32274
475 3.97074
480 2.99909
485 3.4354
490 3.1234
495 4.5649
500 6.09517
505 2.19809
510 3.16353
515 2.89048
520 5.13591
525 3.36415
530 3.95326
535 2.27766
540 2.44923
545 3.13118
550 2.66678
555 1.49544
560 1.00369
565 7.16062
570 3.24924
575 3.36199
580 2.18286
585 5.75513
590 3.37535
595 5.91401
600 9.38733
Ex : 233
200 3.13918
205 4.05396
210 3.97224
215 3.38875
220 2.2251
225 4.519
230 2.43201
235 1.78733
240 1.54747
245 5.95974
250 4.12973
255 5.51814
260 2.37161
265 3.15652
270 2.30313
275 2.44275
280 1.56558
285 3.02139
290 4.88745
295 3.91617
300 4.43114
305 2.18498
310 2.96412
315 2.14763
320 5.551
325 3.97272
330 6.90223
335 4.25558
340 2.11065
345 1.91881
350 4.66918
355 2.44573
360 4.55604
365 5.38515
370 3.79189
375 5.01704
380 3.46485
385 2.97187
390 2.18937
395 3.04188
400 4.49002
405 2.26028
410 2.03449
415 3.30771
420 2.00914
425 2.18607
430 2.67977
435 3.94873
440 3.38859
445 2.9532
450 5.21018
455 4.00573
460 1.67561
465 2.45488
470 2.29849
475 3.61579
480 3.61056
485 3.52009
490 2.5623
495 2.76717
500 2.78126
505 3.75734
510 4.49138
515 6.94615
520 5.77101
525 3.56503
530 4.06697
535 4.6922
540 3.103
545 2.92711
550 3.00139
555 1.65503
560 1.22224
565 1.14411
570 4.24931
575 6.162
580 2.00339
585 2.1535
590 3.33453
595 3.39155
600 0.385946
Ex : 238
200 6.75127
205 4.88279
210 3.353
215 5.38548
220 2.42184
225 2.74431
230 2.13393
235 4.21266
240 2.12119
245 2.42209
250 4.27182
255 2.32183
260 1.36787
265 1.35925
270 3.37803
275 4.04053
280 1.7744
285 3.45412
290 1.43068
295 2.39359
300 4.10723
305 4.28154
310 1.92079
315 3.46939
320 2.70154
325 3.23836
330 2.44223
335 8.28007
340 3.32625
345 4.17525
350 4.4546
355 3.71835
360 4.34015
365 4.06086
370 3.73325
375 1.30693
380 2.28347
385 2.1637
390 5.15727
395 4.41289
400 2.2155
405 4.73312
410 3.40272
415 5.20226
420 2.27709
425 2.26898
430 3.47398
435 2.63714
440 1.75416
445 1.57123
450 3.82943
455 6.99008
460 4.29615
465 4.17926
470 3.32892
475 3.06428
480 3.01127
485 3.62029
490 3.59623
495 4.52407
500 3.85993
505 3.9538
510 3.2261
515 3.99013
520 2.43197
525 3.90132
530 4.31716
535 1.96263
540 1.95209
545 1.37499
550 4.68363
555 3.01099
560 4.26172
565 2.09435
570 5.71935
575 4.71224
580 3.07069
585 1.61832
590 4.02734
595 2.8156
600 0.320404
Ex : 243
200 1.7113
205 2.09988
210 2.09127
215 2.75403
220 1.67326
225 4.55156
230 1.93738
235 4.72438
240 2.02342
245 1.76065
250 2.00869
255 1.59084
260 1.70646
265 4.88203
270 4.94074
275 2.17528
280 1.39312
285 4.63423
290 2.95378
295 3.19007
300 3.54734
305 1.96733
310 1.52948
315 1.06025
320 2.25116
325 1.16709
330 2.58721
335 4.03872
340 3.69482
345 1.3525
350 3.36733
355 4.90138
360 2.91468
365 2.38355
370 1.23531
375 2.98187
380 3.10964
385 1.29748
390 2.32052
395 4.11434
400 4.91865
405 2.68738
410 3.53629
415 3.49305
420 3.44191
425 2.04341
430 2.44238
435 2.86609
440 1.95526
445 1.03995
450 2.56886
455 3.11335
460 4.37516
465 3.65261
470 3.12868
475 3.32851
480 3.40383
485 2.22991
490 2.23916
495 2.38547
500 3.19444
505 1.828
510 1.30451
515 0.932262
520 2.32357
525 3.9064
530 2.62452
535 2.25664
540 1.60369
545 1.31423
550 2.71267
555 3.55811
560 1.37972
565 2.60056
570 2.00402
575 1.41473
580 2.76747
585 3.72116
590 1.5937
595 1.63488
600 0.186043
Ex : 248
200 2.57639
205 3.33894
210 3.27489
215 3.32886
220 1.94158
225 1.67444
230 0.917102
235 1.33883
240 1.08335
245 1.93474
250 0.9658
255 1.80897
260 2.35284
265 2.90994
270 3.47369
275 2.33932
280 2.77451
285 2.30969
290 0.770554
295 0.878599
300 2.01543
305 3.31944
310 2.06648
315 2.71352
320 1.38751
325 3.91032
330 1.82771
335 2.00518
340 3.8224
345 2.25138
350 2.31157
355 3.36314
360 5.28596
365 4.40533
370 2.22724
375 2.94055
380 1.29493
385 1.75081
390 2.10677
395 2.94652
400 3.82274
405 1.25976
410 3.34635
415 2.97457
420 3.93731
425 1.7836
430 4.08988
435 1.88945
440 3.60781
445 3.73382
450 1.89337
455 1.73791
460 5.63143
465 1.90115
470 1.49046
475 1.54539
480 2.85381
485 1.70581
490 1.06119
495 1.74133
500 1.59625
505 2.12329
510 1.04554
515 2.93005
520 4.54768
525 4.59405
530 2.23074
535 1.34206
540 1.28797
545 1.6339
550 1.92401
555 1.38824
560 2.32461
565 1.39639
570 1.50191
575 0.752185
580 0.564275
585 2.66212
590 3.32099
595 2.19237
600 6.80739
Ex : 253
200 1.57225
205 2.16359
210 3.26596
215 1.46972
220 1.14795
225 1.77644
230 4.01863
235 1.35558
240 0.63322
245 1.37966
250 3.31606
255 1.12501
260 1.8979
265 3.61266
270 1.08462
275 1.41518
280 2.202
285 1.28278
290 3.71833
295 1.33232
300 1.75142
305 1.54219
310 1.63847
315 1.83439
320 2.65623
325 1.29667
330 2.11942
335 3.3625
340 1.34711
345 0.896982
350 0.817853
355 2.09579
360 1.10229
365 2.24344
370 2.7372
375 2.2222
380 1.13908
385 2.62064
390 1.85548
395 2.22944
400 1.26722
405 0.898367
410 1.82932
415 1.79346
420 2.5052
425 1.82903
430 2.08659
435 1.62263
440 2.14567
445 1.32509
450 1.77942
455 2.72184
460 2.47546
465 1.54843
470 1.03432
475 1.91886
480 3.27003
485 2.20782
490 2.13657
495 2.50529
500 1.48969
505 1.31959
510 1.238
515 1.01687
520 1.40426
525 2.98317
530 1.48797
535 2.22808
540 2.08119
545 3.07111
550 1.49281
555 2.22732
560 0.921216
565 1.29153
570 2.5329
575 2.06568
580 2.64654
585 1.40698
590 2.39194
595 1.0799
600 0.122889
Ex : 258
200 2.33333
205 1.02484
210 2.53063
215 0.789222
220 1.17141
225 2.51339
230 1.1274
235 1.14914
240 0.924206
245 2.08587
250 0.724673
255 1.87292
260 1.12799
265 2.22792
270 1.00509
275 0.532359
280 1.55567
285 1.66395
290 1.55068
295 1.75458
300 2.06831
305 1.74067
310 0.983999
315 1.7911
320 2.00423
325 1.34624
330 0.701406
335 0.939897
340 1.07211
345 2.4416
350 3.1505
355 1.53877
360 1.82759
365 1.2266
370 1.00368
375 1.61691
380 2.67694
385 1.91389
390 2.0747
395 1.80891
400 1.53819
405 2.2831
410 2.3342
415 2.07859
420 1.33006
425 3.08295
430 1.16733
435 2.04328
440 1.35802
445 1.21678
450 1.32904
455 1.43633
460 1.17566
465 1.92023
470 1.3359
475 1.58516
480 2.31212
485 1.67771
490 1.345
495 1.38251
500 1.33502
505 1.24558
510 1.66721
515 0.907784
520 0.879223
525 0.899055
530 1.24732
535 1.41864
540 1.00079
545 1.5712
550 0.801972
555 2.1796
560 0.755878
565 2.74866
570 0.951256
575 1.45165
580 1.05543
585 1.18672
590 1.72341
595 0.946901
600 0.107754
Ex : 263
200 0.49584
205 0.613467
210 0.833143
215 1.11958
220 0.781659
225 1.63706
230 1.08509
235 0.771921
240 0.722875
245 1.17607
250 1.0043
255 0.995775
260 0.613542
265 0.951342
270 0.402145
275 0.649271
280 1.21285
285 0.267061
290 1.17244
295 0.89368
300 2.60826
305 1.0252
310 0.606701
315 0.958359
320 0.557611
325 0.975588
330 1.7454
335 1.93926
340 1.3621
345 0.474411
350 1.17823
355 0.869471
360 0.708208
365 1.03987
370 1.33322
375 1.49919
380 0.695471
385 1.05756
390 0.462146
395 1.3412
400 1.91283
405 1.12858
410 2.35638
415 1.10763
420 1.80209
425 1.26695
430 1.18824
435 0.745161
440 0.822006
445 1.569
450 1.78312
455 1.38503
460 0.945348
465 1.14122
470 2.08206
475 0.473456
480 0.87142
485 1.52955
490 0.935205
495 0.679023
500 0.658841
505 1.06645
510 1.6977
515 2.30372
520 0.890468
525 0.607055
530 0.637284
535 1.34437
540 1.02842
545 0.682101
550 1.68703
555 1.93791
560 1.61637
565 0.694365
570 0.698124
575 0.596264
580 0.67828
585 1.02625
590 1.24735
595 1.17941
600 2.34972
Ex : 268
200 1.22252
205 0.527428
210 0.408304
215 1.17178
220 0.824805
225 1.10684
230 1.62338
235 0.552546
240 0.771354
245 0.927085
250 0.553483
255 0.752254
260 1.0858
265 1.16745
270 0.745717
275 0.415205
280 1.62081
285 0.838927
290 0.548901
295 0.815614
300 0.783185
305 0.945705
310 0.84044
315 1.52758
320 1.32047
325 1.15904
330 0.415679
335 1.48188
340 1.16485
345 1.30836
350 1.13086
355 0.979395
360 0.810377
365 0.94165
370 1.23605
375 0.610558
380 1.16267
385 0.784397
390 1.31148
395 0.829497
400 0.834343
405 0.558856
410 0.590163
415 1.342
420 1.2983
425 0.945447
430 0.871986
435 2.28495
440 0.805565
445 0.758771
450 1.42308
455 0.587121
460 0.560363
465 1.14841
470 1.36578
475 0.790184
480 0.522457
485 1.07526
490 1.04396
495 1.60199
500 0.575635
505 1.17478
510 0.77521
515 1.01016
520 0.763127
525 0.849726
530 1.04198
535 0.797209
540 1.01631
545 0.845322
550 0.508695
555 0.580675
560 1.04493
565 1.05791
570 1.48952
575 0.899956
580 0.883229
585 0.917303
590 0.430625
595 1.00023
600 3.93849
Ex : 273
200 0.588754
205 0.668351
210 0.750746
215 0.768342
220 0.291182
225 0.812758
230 0.245965
235 0.710882
240 1.11749
245 1.08738
250 0.273089
255 1.07269
260 0.417469
265 0.273014
270 1.02668
275 0.412887
280 0.393803
285 0.891143
290 0.695802
295 0.580675
300 0.25133
305 0.501881
310 0.900881
315 0.923257
320 0.597399
325 0.804489
330 0.477715
335 0.504372
340 0.418551
345 0.586206
350 0.458356
355 1.03748
360 0.735929
365 0.638484
370 1.23281
375 1.08616
380 0.83803
385 0.915227
390 0.574016
395 1.21206
400 0.930021
405 1.10664
410 1.20614
415 0.719815
420 0.995122
425 0.664548
430 0.346272
435 0.960033
440 0.984449
445 0.815806
450 0.992733
455 0.695612
460 0.633775
465 0.956358
470 0.828559
475 0.618043
480 1.26961
485 1.11494
490 0.349168
495 0.721812
500 0.645279
505 0.765869
510 1.30048
515 0.691211
520 0.72254
525 0.508622
530 0.700577
535 0.711294
540 0.890818
545 0.882333
550 0.649102
555 0.540853
560 0.518016
565 0.383788
570 0.747165
575 0.838099
580 1.03532
585 0.974771
590 1.06274
595 0.628605
600 0.0715328
Ex : 278
200 0.798725
205 0.774092
210 0.242874
215 0.93155
220 0.697342
225 0.514415
230 0.820493
235 0.642274
240 0.576834
245 0.776383
250 0.521731
255 0.440226
260 1.02866
265 0.627345
270 0.454828
275 0.688841
280 0.383752
285 0.483123
290 0.424564
295 0.462254
300 1.05914
305 0.417004
310 0.274438
315 0.405852
320 0.635377
325 0.684399
330 0.275351
335 0.936101
340 0.885089
345 0.340213
350 0.732266
355 0.68301
360 0.575862
365 0.413364
370 0.498971
375 1.01265
380 0.61253
385 0.638091
390 0.821232
395 0.559834
400 0.575447
405 1.03667
410 0.908586
415 0.751598
420 0.581023
425 1.53755
430 0.865947
435 0.516759
440 0.563697
445 0.616523
450 0.482494
455 0.319804
460 0.328565
465 0.523917
470 0.844589
475 1.39978
480 0.542965
485 1.04077
490 0.790894
495 0.918924
500 0.840422
505 1.09242
510 0.801439
515 0.829568
520 0.568892
525 0.35642
530 0.796012
535 0.29755
540 0.3071
545 0.593974
550 0.612515
555 0.725733
560 0.434826
565 0.420773
570 0.896494
575 0.487815
580 0.861151
585 0.331667
590 0.259897
595 0.393724
600 0.0448043
Ex : 283
200 0.477843
205 0.443442
210 0.328396
215 0.533671
220 0.710789
225 0.486045
230 0.437028
235 1.06348
240 0.618733
245 0.69811
250 0.674219
255 0.434613
260 0.814336
265 0.303638
270 0.359961
275 0.632207
280 0.617602
285 0.283285
290 0.416125
295 0.380097
300 0.34615
305 0.446368
310 0.146476
315 0.728537
320 0.205117
325 0.226375
330 0.655432
335 0.987164
340 0.431928
345 0.689894
350 0.540903
355 0.716718
360 0.747206
365 0.672549
370 0.377671
375 0.701865
380 0.614467
385 0.872965
390 1.1674
395 1.33429
400 0.953987
405 0.714875
410 0.606752
415 0.533599
420 0.394145
425 0.392086
430 0.510375
435 0.534504
440 0.522705
445 0.573453
450 0.595521
455 0.411304
460 0.39664
465 0.43396
470 0.899687
475 0.670951
480 0.829823
485 0.414633
490 0.617644
495 0.675207
500 0.36273
505 0.483047
510 0.561181
515 0.529348
520 0.48688
525 0.318977
530 0.475059
535 0.487931
540 0.341094
545 0.271852
550 0.692103
555 0.396593
560 0.931334
565 0.909104
570 0.513829
575 0.368777
580 0.221986
585 0.230183
590 0.298872
595 0.575068
600 0.0654406
Ex : 288
200 0.290462
205 0.276
210 0.471719
215 0.22904
220 0.303446
225 0.293168
230 0.491455
235 0.459049
240 0.263836
245 0.225307
250 0.408907
255 0.427292
260 0.259125
265 0.435365
270 0.181542
275 0.337639
280 0.69296
285 0.411878
290 0.361843
295 0.467087
300 0.362306
305 0.248803
310 0.339038
315 0.501887
320 0.404871
325 0.155809
330 0.48624
335 0.762404
340 0.627746
345 0.519219
350 0.423572
355 0.381348
360 0.440966
365 0.55065
370 0.410502
375 0.405036
380 0.296261
385 0.756771
390 0.679121
395 0.441603
400 0.644899
405 0.522839
410 0.543184
415 0.60066
420 0.464304
425 0.646939
430 0.429215
435 0.658763
440 0.721877
445 0.520068
450 0.579213
455 0.55263
460 0.552938
465 0.429264
470 0.483944
475 0.396767
480 0.294153
485 0.25133
490 0.540104
495 0.538047
500 0.536779
505 0.410564
510 0.53716
515 0.516842
520 0.65128
525 0.457246
530 0.452684
535 0.81901
540 0.415006
545 0.618162
550 0.250467
555 0.539009
560 0.327963
565 0.727081
570 1.16765
575 1.16549
580 0.528147
585 0.325907
590 0.414677
595 0.368596
600 0.0419448
Ex : 293
200 0.444855
205 0.286536
210 0.460075
215 0.277205
220 0.28441
225 0.11681
230 0.111601
235 0.440701
240 0.404162
245 0.205388
250 0.152776
255 0.190568
260 0.325674
265 0.254032
270 0.227515
275 0.319571
280 0.244745
285 0.341017
290 0.37419
295 0.365346
300 0.162464
305 0.345455
310 0.359277
315 0.231185
320 0.373674
325 0.351751
330 0.24501
335 0.548819
340 0.423031
345 0.363761
350 0.518762
355 0.495795
360 0.346833
365 0.324888
370 0.298252
375 0.53786
380 0.634216
385 0.470068
390 0.599138
395 0.380626
400 0.644265
405 0.308478
410 0.794774
415 0.693344
420 0.654629
425 0.527879
430 0.407258
435 0.327911
440 0.747489
445 0.677888
450 0.387078
455 0.474783
460 0.721851
465 0.452859
470 0.544338
475 0.608578
480 0.783814
485 0.48161
490 0.409565
495 0.38194
500 0.17832
505 0.304253
510 0.336887
515 0.494738
520 0.246536
525 0.525424
530 0.39862
535 0.216613
540 0.30443
545 0.454895
550 0.294186
555 0.33679
560 0.321685
565 0.406757
570 0.364833
575 0.757369
580 1.0661
585 0.372103
590 0.403046
595 0.482222
600 0.632834
Ex : 298
200 0.142144
205 0.286419
210 0.273251
215 0.112215
220 0.278914
225 0.137347
230 0.325391
235 0.252099
240 0.190223
245 0.401681
250 0.217812
255 0.141679
260 0.141095
265 0.169524
270 0.125652
275 0.329782
280 0.222644
285 0.281709
290 0.351451
295 0.379597
300 0.156216
305 0.146059
310 0.267969
315 0.159083
320 0.30615
325 0.251341
330 0.409985
335 0.34667
340 0.229205
345 0.239503
350 0.280805
355 0.58242
360 0.842469
365 0.393033
370 0.533722
375 0.451397
380 0.748076
385 0.524551
390 0.482996
395 0.406939
400 0.356419
405 0.372784
410 0.821194
415 0.678853
420 0.672396
425 0.45215
430 0.666621
435 0.627954
440 0.429814
445 0.727749
450 0.550205
455 0.730923
460 0.594023
465 0.368802
470 0.414724
475 0.398563
480 0.529221
485 0.295899
490 0.250436
495 0.236921
500 0.32927
505 0.332871
510 0.32788
515 0.277026
520 0.277962
525 0.360214
530 0.370503
535 0.416608
540 0.511784
545 0.443527
550 0.307036
555 0.200246
560 0.175651
565 0.29608
570 0.358702
575 0.378151
580 0.158535
585 0.433956
590 0.545706
595 0.58771
600 0.0839215
Ex : 303
200 0.2
205 0.298692
210 0.231041
215 0.266718
220 0.271723
225 0.219148
230 0.237669
235 0.124542
240 0.258413
245 0.286022
250 0.174566
255 0.165647
260 0.559674
265 0.28762
270 0.242749
275 0.177375
280 0.153636
285 0.253359
290 0.230711
295 0.350938
300 0.468314
305 0.411055
310 0.158825
315 0.428392
320 0.22973
325 0.290523
330 0.22336
335 0.132113
340 0.290342
345 0.377792
350 0.329363
355 0.416329
360 0.279287
365 0.459944
370 0.425032
375 0.698485
380 0.303513
385 0.334976
390 0.389067
395 0.593194
400 0.601899
405 0.591938
410 0.59085
415 0.443987
420 0.475732
425 0.655639
430 0.449111
435 0.488325
440 0.406388
445 0.201806
450 0.56218
455 0.413606
460 0.338148
465 0.390032
470 0.41454
475 0.485166
480 0.289474
485 0.373654
490 0.454863
495 0.442345
500 0.417295
505 0.238926
510 0.370518
515 0.338032
520 0.182223
525 0.372482
530 0.315689
535 0.587852
540 0.228534
545 0.330661
550 0.18779
555 0.216629
560 0.456852
565 0.280572
570 0.350877
575 0.10148
580 0.18605
585 0.249123
590 0.185765
595 0.290303
600 0.0330354
Ex : 308
200 0.34988
205 0.1555
210 0.123203
215 0.210135
220 0.215458
225 0.317274
230 0.298156
235 0.315249
240 0.283888
245 0.199635
250 0.170059
255 0.40146
260 0.235123
265 0.164766
270 0.164448
275 0.127411
280 0.157435
285 0.167831
290 0.290191
295 0.128961
300 0.493796
305 0.387281
310 0.239414
315 0.13917
320 0.350317
325 0.151443
330 0.15448
335 0.341515
340 0.321648
345 0.310486
350 0.232917
355 0.476946
360 0.281459
365 0.207184
370 0.500314
375 0.368667
380 0.409945
385 0.355791
390 0.567478
395 0.738962
400 0.671726
405 0.53243
410 0.606297
415 0.430052
420 0.334681
425 0.654896
430 0.61789
435 0.52092
440 0.550594
445 0.462827
450 0.407948
455 0.346105
460 0.330774
465 0.399551
470 0.321428
475 0.324654
480 0.250171
485 0.316462
490 0.372444
495 0.330484
500 0.230895
505 0.34597
510 0.196283
515 0.268929
520 0.143716
525 0.264504
530 0.165058
535 0.228528
540 0.399272
545 0.222615
550 0.206707
555 0.190766
560 0.244249
565 0.22229
570 0.104941
575 0.142375
580 0.160375
585 0.213209
590 0.220618
595 0.172857
600 0.0196705
Ex : 313
200 0.271355
205 0.215838
210 0.185156
215 0.191038
220 0.156964
225 0.0683487
230 0.127367
235 0.244082
240 0.319604
245 0.316689
250 0.192269
255 0.20299
260 0.10293
265 0.208259
270 0.168114
275 0.12224
280 0.169238
285 0.0992595
290 0.228752
295 0.199028
300 0.160241
305 0.221062
310 0.35531
315 0.188848
320 0.124714
325 0.115449
330 0.323134
335 0.157278
340 0.281002
345 0.443659
350 0.479304
355 0.56751
360 0.486429
365 0.468898
370 0.658173
375 0.802687
380 0.744307
385 0.744547
390 0.811958
395 1.16308
400 1.03308
405 1.01557
410 0.943173
415 0.985738
420 0.899821
425 1.22476
430 1.04101
435 0.906021
440 0.855114
445 0.917947
450 0.634941
455 0.807524
460 0.574644
465 0.638422
470 0.588972
475 0.540896
480 0.579214
485 0.476894
490 0.361332
495 0.422116
500 0.367456
505 0.595159
510 0.556285
515 0.417999
520 0.284481
525 0.222466
530 0.330866
535 0.203747
540 0.167828
545 0.270082
550 0.113436
555 0.207702
560 0.187061
565 0.209026
570 0.216556
575 0.115763
580 0.198877
585 0.253547
590 0.172861
595 0.200934
600 0.0228655
Ex : 318
200 0.122591
205 0.146383
210 0.150222
215 0.104828
220 0.263497
225 0.273881
230 0.171434
235 0.227957
240 0.291969
245 0.160335
250 0.101594
255 0.173593
260 0.125861
265 0.171606
270 0.256883
275 0.237779
280 0.16116
285 0.243415
290 0.229164
295 0.18809
300 0.173631
305 0.15153
310 0.399858
315 1.20817
320 0.679675
325 0.36405
330 0.534798
335 0.57946
340 0.932884
345 1.5697
350 2.20691
355 3.05923
360 3.78244
365 5.09219
370 6.11175
375 6.9375
380 8.1309
385 8.82895
390 9.81705
395 10.3742
400 10.9025
405 10.3173
410 11.2914
415 11.4091
420 10.5093
425 9.91306
430 9.61227
435 9.61909
440 9.51015
445 8.28165
450 7.9413
455 7.35552
460 6.77674
465 6.20816
470 5.6959
475 5.65171
480 5.05481
485 4.02736
490 3.82945
495 3.0887
500 2.5992
505 2.39038
510 2.32418
515 1.80079
520 1.52779
525 1.57887
530 1.27372
535 0.888838
540 0.774173
545 0.699199
550 0.627004
555 0.588164
560 0.558126
565 0.475153
570 0.214852
575 0.448842
580 0.25575
585 0.252873
590 0.199613
595 0.187613
600 3.73736
Ex : 323
200 0.119578
205 0.10109
210 0.179982
215 0.0832531
220 0.111249
225 0.0732891
230 0.117317
235 0.0766353
240 0.0601627
245 0.150762
250 0.150118
255 0.131664
260 0.204733
265 0.219119
270 0.198082
275 0.120634
280 0.136166
285 0.106127
290 0.234265
295 0.124304
300 0.166954
305 0.118449
310 0.307957
315 8.31352
320 35.257
325 13.5935
330 2.97926
335 3.01631
340 4.51161
345 5.83702
350 8.4632
355 12.3691
360 14.3554
365 17.6024
370 20.5971
375 24.3914
380 27.8818
385 31.2164
390 32.64
395 35.3361
400 37.4525
405 37.0775
410 37.9389
415 37.6301
420 35.9728
425 35.5102
430 32.9471
435 32.6024
440 30.4915
445 29.1555
450 27.3356
455 25.8184
460 23.8765
465 21.9384
470 20.6472
475 18.4607
480 17.5404
485 15.5493
490 13.5482
495 12.9
500 10.8331
505 9.7058
510 8.31936
515 7.10721
520 5.47773
525 4.97657
530 4.41552
535 3.45985
540 2.97596
545 2.64849
550 2.40469
555 1.69756
560 1.57656
565 1.44862
570 1.05316
575 0.684798
580 0.621787
585 0.474287
590 0.264691
595 0.201582
600 0.0229393
Ex : 328
200 0.0888795
205 0.20105
210 0.228701
215 0.204342
220 0.127524
225 0.0642728
230 0.0563364
235 0.059
240 0.131521
245 0.176823
250 0.153062
255 0.13772
260 0.0966012
265 0.157163
270 0.155544
275 0.0611007
280 0.204841
285 0.129479
290 0.240873
295 0.287947
300 0.135474
305 0.168256
310 0.148377
315 2.01525
320 73.1504
325 174.829
330 50.8636
335 8.69404
340 5.14656
345 6.22063
350 8.31395
355 12.2025
360 16.8994
365 19.0913
370 21.0075
375 23.6542
380 27.2611
385 30.5138
390 33.7142
395 35.1544
400 35.8231
405 37.3197
410 36.9235
415 37.417
420 35.8806
425 34.3088
430 32.4366
435 31.3605
440 29.7624
445 28.126
450 26.516
455 24.6996
460 22.6676
465 21.4509
470 19.1994
475 17.8081
480 17.1586
485 14.5515
490 13.0779
495 12.192
500 10.2701
505 9.44221
510 8.08753
515 7.26286
520 5.6678
525 5.25575
530 4.3087
535 3.94405
540 2.8329
545 2.5831
550 2.24637
555 1.9724
560 1.41365
565 1.32667
570 0.959493
575 0.936957
580 0.497166
585 0.487006
590 0.371866
595 0.435082
600 0.777897
Ex : 333
200 0.131335
205 0.186547
210 0.116493
215 0.0710261
220 0.0698545
225 0.15098
230 0.113214
235 0.115974
240 0.169262
245 0.178394
250 0.0757315
255 0.0614013
260 0.0803044
265 0.0693691
270 0.0749337
275 0.0544569
280 0.0817218
285 0.129909
290 0.13402
295 0.227094
300 0.128789
305 0.118124
310 0.213162
315 0.225204
320 9.39954
325 199.384
330 331.559
335 85.657
340 12.6423
345 5.4183
350 5.09354
355 6.47035
360 9.18435
365 13.448
370 14.4989
375 14.1177
380 15.1437
385 17.6972
390 20.8226
395 21.4022
400 21.2024
405 21.3517
410 21.5638
415 22.6415
420 21.4413
425 19.9578
430 18.6278
435 17.3813
440 17.2969
445 16.3611
450 14.9216
455 13.8446
460 12.9678
465 11.8342
470 10.7118
475 10.3255
480 8.98078
485 8.41135
490 7.70752
495 6.78517
500 6.1295
505 5.18361
510 4.20844
515 3.84201
520 3.38071
525 2.99544
530 2.64626
535 2.29932
540 2.14102
545 1.63054
550 1.60901
555 1.20964
560 1.07282
565 0.951908
570 0.638422
575 0.515405
580 0.406352
585 0.481833
590 0.342714
595 0.328989
600 0.095077
Ex : 338
200 0.0385694
205 0.070756
210 0.12328
215 0.0719946
220 0.136746
225 0.103521
230 0.100401
235 0.0468356
240 0.102873
245 0.132894
250 0.113642
255 0.119458
260 0.103772
265 0.159379
270 0.127264
275 0.0904513
280 0.178301
285 0.122321
290 0.0705719
295 0.10989
300 0.164345
305 0.187675
310 0.197906
315 0.163848
320 0.269814
325 18.0541
330 284.976
335 415.619
340 102.725
345 14.2349
350 4.81992
355 3.78079
360 3.61668
365 5.4973
370 9.45247
375 10.3197
380 9.07531
385 10.2358
390 12.0834
395 12.9115
400 12.552
405 12.9476
410 13.213
415 14.5097
420 13.591
425 11.8579
430 10.8978
435 10.7279
440 11.0727
445 9.87956
450 9.11029
455 8.2796
460 7.60635
465 6.91664
470 6.45392
475 6.72735
480 5.53502
485 5.22028
490 4.44484
495 3.95065
500 3.8012
505 3.39319
510 3.01019
515 2.69982
520 2.14017
525 1.882
530 1.68948
535 1.51282
540 1.37026
545 1.03307
550 0.996575
555 0.904805
560 0.830866
565 0.669389
570 0.535589
575 0.535494
580 0.649962
585 0.446879
590 0.359851
595 0.241247
600 0.0595619
Ex : 343
200 0.0375639
205 0.188038
210 0.0753446
215 0.100938
220 0.110353
225 0.119269
230 0.0885766
235 0.115624
240 0.102094
245 0.0834645
250 0.0987208
255 0.0839577
260 0.0810798
265 0.0589081
270 0.0652373
275 0.131718
280 0.0832023
285 0.255953
290 0.126382
295 0.172428
300 0.201726
305 0.104724
310 0.14214
315 0.204236
320 0.243827
325 0.380077
330 20.3212
335 321.701
340 466.497
345 114.117
350 15.2274
355 4.35287
360 2.68475
365 2.35552
370 3.43123
375 7.20486
380 8.96006
385 8.94996
390 10.0275
395 10.7456
400 9.93003
405 10.3519
410 11.7627
415 12.1603
420 11.3654
425 10.6479
430 9.70288
435 9.47109
440 9.2551
445 8.63456
450 8.12528
455 7.1615
460 6.92845
465 6.20821
470 5.99775
475 5.27729
480 5.25851
485 4.93402
490 4.09683
495 4.01975
500 3.27084
505 3.0984
510 2.94358
515 2.42613
520 2.10642
525 1.8034
530 1.56393
535 1.76395
540 1.37993
545 1.2105
550 1.0308
555 0.971249
560 0.809248
565 0.644496
570 0.55156
575 0.435965
580 0.379081
585 0.334149
590 0.342407
595 0.296921
600 0.0337884
Ex : 348
200 0.0887809
205 0.147642
210 0.10095
215 0.111458
220 0.120894
225 0.0996507
230 0.126949
235 0.176833
240 0.124243
245 0.103939
250 0.0827558
255 0.0925195
260 0.0906763
265 0.138832
270 0.159165
275 0.0809121
280 0.0696902
285 0.134176
290 0.0776977
295 0.14375
300 0.120222
305 0.0956365
310 0.124506
315 0.153386
320 0.10421
325 0.247187
330 0.378712
335 21.5566
340 326.691
345 495.738
350 127.473
355 16.6464
360 3.79411
365 2.15472
370 1.56544
375 2.31775
380 6.47372
385 11.8974
390 13.2726
395 13.044
400 11.1515
405 11.593
410 13.6366
415 14.491
420 13.4737
425 11.9488
430 11.2569
435 11.0158
440 10.6858
445 10.7185
450 8.91751
455 8.59198
460 7.44036
465 7.48524
470 6.71636
475 5.92218
480 5.48005
485 4.84532
490 4.31287
495 4.04576
500 3.74559
505 3.23424
510 3.08592
515 2.5242
520 2.39412
525 1.99811
530 1.75621
535 1.57818
540 1.341
545 1.09559
550 0.973908
555 0.864702
560 0.78719
565 0.760024
570 0.745194
575 0.573795
580 0.401169
585 0.268092
590 0.351286
595 0.241127
600 0.0824831
Ex : 353
200 0.10203
205 0.113139
210 0.0914008
215 0.0588215
220 0.156125
225 0.139855
230 0.0545041
235 0.158649
240 0.112651
245 0.101415
250 0.101955
255 0.0984322
260 0.0529049
265 0.189038
270 0.0982773
275 0.0419436
280 0.0614695
285 0.107113
290 0.0668705
295 0.0584793
300 0.0888635
305 0.117424
310 0.130736
315 0.201338
320 0.0919426
325 0.148249
330 0.271453
335 0.473199
340 22.2348
345 346.043
350 510.334
355 126.211
360 16.2331
365 3.65216
370 2.25486
375 1.81
380 3.11628
385 8.51029
390 15.5947
395 15.9597
400 14.039
405 12.8601
410 14.0908
415 16.0733
420 15.7162
425 13.8991
430 11.6375
435 11.612
440 11.6436
445 11.2248
450 10.9198
455 8.98814
460 8.23008
465 7.38389
470 7.24398
475 6.79367
480 6.4278
485 5.54642
490 5.13578
495 4.37661
500 3.95046
505 3.85349
510 3.28629
515 2.83489
520 2.39406
525 2.40516
530 2.0168
535 1.70477
540 1.4431
545 1.25702
550 1.43314
555 1.03029
560 0.906681
565 0.711592
570 0.73178
575 0.584892
580 0.445276
585 0.382921
590 0.303234
595 0.329257
600 0.244767
Ex : 358
200 0.04434
205 0.0627182
210 0.048482
215 0.0923976
220 0.0974239
225 0.11811
230 0.130439
235 0.0689215
240 0.0979827
245 0.094107
250 0.0586608
255 0.079682
260 0.0872786
265 0.11814
270 0.10896
275 0.100388
280 0.105471
285 0.109441
290 0.0531873
295 0.0650874
300 0.0855116
305 0.157563
310 0.150815
315 0.138651
320 0.0971215
325 0.20018
330 0.216955
335 0.305597
340 0.479796
345 21.1647
350 333.28
355 511.597
360 128.235
365 16.4446
370 3.44225
375 2.47509
380 2.76172
385 5.69558
390 11.1113
395 15.3125
400 14.7685
405 13.3603
410 13.487
415 15.1279
420 14.5108
425 12.5627
430 11.2112
435 10.9766
440 11.6264
445 11.1693
450 9.69927
455 8.55932
460 7.97201
465 7.5346
470 7.05937
475 6.58555
480 6.03539
485 5.73621
490 5.41982
495 4.61792
500 3.94849
505 3.9146
510 3.33806
515 3.03229
520 2.82551
525 2.2116
530 1.90468
535 1.64818
540 1.59036
545 1.36371
550 1.0193
555 1.16094
560 0.923457
565 0.760457
570 0.618304
575 0.56316
580 0.439521
585 0.391037
590 0.270756
595 0.190337
600 0.0216596
Ex : 363
200 0.0412323
205 0.110791
210 0.0661473
215 0.13349
220 0.0840128
225 0.15518
230 0.0849534
235 0.0657119
240 0.0859085
245 0.0562848
250 0.0748671
255 0.069579
260 0.0612654
265 0.0891969
270 0.0690686
275 0.0364164
280 0.0880736
285 0.0728715
290 0.117385
295 0.104229
300 0.10674
305 0.129386
310 0.0907261
315 0.0606684
320 0.13302
325 0.191915
330 0.201158
335 0.221768
340 0.240531
345 0.496787
350 19.9422
355 331.227
360 521.269
365 134.436
370 16.8791
375 3.65716
380 4.19658
385 7.26625
390 10.3662
395 12.4959
400 14.94
405 16.1244
410 17.0655
415 17.7513
420 15.4875
425 13.4457
430 12.7098
435 12.5938
440 12.3558
445 11.7193
450 10.718
455 9.83581
460 8.83309
465 8.05439
470 7.93077
475 7.23762
480 6.74504
485 5.98471
490 5.38789
495 5.04077
500 4.46447
505 3.94038
510 3.79573
515 3.23939
520 2.96687
525 2.58445
530 2.17087
535 1.87849
540 1.81992
545 1.61306
550 1.3962
555 1.21992
560 0.841115
565 0.864625
570 0.61205
575 0.572261
580 0.425306
585 0.311675
590 0.24911
595 0.258362
600 0.129808
Ex : 368
200 0.0601909
205 0.0849947
210 0.12141
215 0.146564
220 0.0647071
225 0.0576192
230 0.125586
235 0.101472
240 0.0527544
245 0.0621822
250 0.0960413
255 0.120076
260 0.0595825
265 0.108131
270 0.0476114
275 0.0386962
280 0.0865845
285 0.0346509
290 0.100763
295 0.0796208
300 0.122067
305 0.120381
310 0.0881831
315 0.0740587
320 0.0826977
325 0.0830219
330 0.146075
335 0.168524
340 0.12211
345 0.298634
350 0.470528
355 16.4602
360 324.735
365 538.563
370 144.151
375 18.4308
380 5.74074
385 8.90962
390 13.9523
395 15.6055
400 14.586
405 17.6622
410 22.2809
415 23.3015
420 20.9921
425 17.4206
430 15.5388
435 14.7944
440 15.408
445 14.6761
450 13.1779
455 11.4872
460 10.5156
465 9.28929
470 8.82183
475 8.71392
480 7.95464
485 7.32554
490 6.15025
495 5.62055
500 5.09994
505 4.71019
510 4.18766
515 3.70473
520 3.29711
525 2.68038
530 2.47063
535 2.25155
540 1.8802
545 1.5529
550 1.48115
555 1.44956
560 1.1636
565 0.966569
570 0.80861
575 0.539289
580 0.46118
585 0.431818
590 0.294618
595 0.255841
600 0.303121
Ex : 373
200 0.0542475
205 0.0606514
210 0.0858862
215 0.0601114
220 0.0522509
225 0.0762559
230 0.0599487
235 0.0546093
240 0.0962405
245 0.0686728
250 0.0464019
255 0.0394618
260 0.031767
265 0.0913552
270 0.0497557
275 0.10294
280 0.123834
285 0.0526387
290 0.102184
295 0.039692
300 0.0450018
305 0.102595
310 0.0679007
315 0.122073
320 0.0656535
325 0.123193
330 0.150931
335 0.11384
340 0.122599
345 0.122693
350 0.260192
355 0.512721
360 19.4098
365 333.742
370 541.916
375 144.704
380 19.4929
385 8.08316
390 13.6182
395 16.8447
400 14.9903
405 14.1013
410 18.2736
415 23.6859
420 22.8533
425 18.6633
430 15.4117
435 14.5131
440 14.8366
445 14.3029
450 13.113
455 11.1408
460 9.77762
465 9.47997
470 8.76509
475 8.45622
480 7.82735
485 6.89133
490 6.1071
495 5.71784
500 5.29569
505 4.66888
510 4.19363
515 3.80434
520 3.27829
525 2.99277
530 2.54666
535 2.23642
540 2.18645
545 1.72892
550 1.44544
555 1.36343
560 1.22909
565 0.937968
570 0.809994
575 0.648288
580 0.427976
585 0.370092
590 0.339899
595 0.315864
600 0.216322
Ex : 378
200 0.0577301
205 0.0652842
210 0.0998428
215 0.0706519
220 0.0650811
225 0.0791937
230 0.0692514
235 0.0610951
240 0.105106
245 0.100195
250 0.0509944
255 0.0623391
260 0.0590681
265 0.131728
270 0.0606426
275 0.0978117
280 0.0933238
285 0.0879911
290 0.0942125
295 0.0997841
300 0.0687396
305 0.0831651
310 0.120548
315 0.122268
320 0.128875
325 0.0989772
330 0.0584834
335 0.128775
340 0.132428
345 0.181239
350 0.166109
355 0.273822
360 0.539465
365 18.0858
370 334.246
375 549.315
380 150.094
385 22.7554
390 11.4579
395 12.4052
400 11.7356
405 10.7371
410 12.2626
415 16.0055
420 18.346
425 16.0345
430 13.139
435 11.5942
440 12.1268
445 11.4274
450 10.2021
455 9.0764
460 8.26763
465 7.97287
470 7.56923
475 7.10656
480 6.6914
485 6.14785
490 5.79286
495 5.34217
500 4.66829
505 4.21162
510 3.96839
515 3.62498
520 3.16933
525 2.75897
530 2.86304
535 2.32212
540 1.94977
545 1.82178
550 1.43234
555 1.45754
560 1.17167
565 1.02716
570 0.900579
575 0.690462
580 0.487298
585 0.318221
590 0.345927
595 0.275171
600 0.0313134
Ex : 383
200 0.0602601
205 0.0808057
210 0.057427
215 0.0824618
220 0.0334255
225 0.0552855
230 0.0681391
235 0.065304
240 0.0436832
245 0.0982821
250 0.0644166
255 0.0367507
260 0.11001
265 0.0686511
270 0.127597
275 0.112212
280 0.0616771
285 0.0433111
290 0.134531
295 0.121422
300 0.0935319
305 0.0768508
310 0.0695322
315 0.0425083
320 0.124126
325 0.0842773
330 0.164786
335 0.0857815
340 0.103505
345 0.126545
350 0.251229
355 0.179316
360 0.247626
365 0.529509
370 17.8268
375 339.396
380 581.668
385 162.73
390 27.8738
395 12.7441
400 10.566
405 11.2697
410 13.3663
415 14.4145
420 14.1386
425 14.7594
430 14.507
435 13.3844
440 13.0146
445 11.6004
450 10.5433
455 9.1193
460 8.17612
465 8.20901
470 7.79095
475 7.40886
480 7.00947
485 6.21289
490 5.92878
495 5.34725
500 4.85696
505 4.38631
510 3.90322
515 3.49677
520 3.29957
525 2.79829
530 2.56366
535 2.30133
540 2.0476
545 1.85084
550 1.6459
555 1.40221
560 1.18522
565 0.976404
570 0.751593
575 0.685019
580 0.602526
585 0.444568
590 0.36394
595 0.238089
600 0.274812
Ex : 388
200 0.128221
205 0.0982653
210 0.0617486
215 0.0300009
220 0.0475668
225 0.0985444
230 0.101157
235 0.0574859
240 0.0466115
245 0.100096
250 0.0837321
255 0.0517093
260 0.0719634
265 0.0622074
270 0.0566263
275 0.0726391
280 0.0799941
285 0.12258
290 0.0815301
295 0.0710533
300 0.0432164
305 0.0819051
310 0.110407
315 0.0722501
320 0.0542908
325 0.0344931
330 0.0724165
335 0.0916282
340 0.0775453
345 0.100319
350 0.121583
355 0.182721
360 0.174103
365 0.239029
370 0.613734
375 19.5034
380 348.529
385 586.655
390 167.34
395 31.5821
400 14.5323
405 13.3511
410 16.4006
415 18.5601
420 17.6248
425 15.4834
430 15.5131
435 16.7894
440 15.822
445 14.6842
450 12.5466
455 10.7035
460 10.2679
465 9.38112
470 8.86853
475 8.26323
480 7.67843
485 7.00835
490 6.38744
495 5.87454
500 5.57082
505 4.86119
510 4.46172
515 3.8327
520 3.38914
525 3.1042
530 2.65505
535 2.29302
540 2.13591
545 1.96536
550 1.64886
555 1.54124
560 1.1693
565 1.05494
570 0.809578
575 0.596731
580 0.504964
585 0.385001
590 0.291978
595 0.213014
600 0.150841
Ex : 393
200 0.0849273
205 0.047554
210 0.12313
215 0.0659653
220 0.0645031
225 0.0871791
230 0.0983202
235 0.119531
240 0.0765511
245 0.0594434
250 0.0286761
255 0.110518
260 0.0624461
265 0.0509269
270 0.0539087
275 0.0646748
280 0.0901632
285 0.088709
290 0.175139
295 0.0944999
300 0.0602152
305 0.0738426
310 0.0586413
315 0.0778615
320 0.0856794
325 0.0996603
330 0.0903762
335 0.105901
340 0.0803688
345 0.0789002
350 0.0886698
355 0.0921716
360 0.122738
365 0.189275
370 0.368294
375 0.651204
380 17.3432
385 350.526
390 604.649
395 174.44
400 32.1367
405 14.5656
410 14.8257
415 18.9118
420 18.7744
425 15.981
430 13.806
435 14.1584
440 16.7886
445 15.6342
450 13.28
455 11.2887
460 9.58764
465 8.8229
470 8.41333
475 8.17898
480 7.46951
485 6.74532
490 6.29506
495 5.56381
500 5.18663
505 4.75677
510 4.06326
515 3.99476
520 3.47374
525 3.04571
530 2.73954
535 2.31873
540 2.08092
545 1.8895
550 1.62389
555 1.464
560 1.14765
565 1.03203
570 0.903622
575 0.716879
580 0.54043
585 0.408274
590 0.35987
595 0.260898
600 0.174179
Ex : 398
200 0.0443995
205 0.0718277
210 0.0471078
215 0.0515352
220 0.0421891
225 0.0594915
230 0.0420862
235 0.0246664
240 0.0541549
245 0.0359127
250 0.0553971
255 0.0596209
260 0.0375389
265 0.0591227
270 0.0720044
275 0.0524352
280 0.0808574
285 0.0467271
290 0.0492529
295 0.0880104
300 0.0814193
305 0.0498124
310 0.0559033
315 0.0360368
320 0.0434764
325 0.0597537
330 0.0668752
335 0.0798605
340 0.06781
345 0.0657926
350 0.0920151
355 0.0774766
360 0.151597
365 0.138556
370 0.263907
375 0.294524
380 0.636417
385 19.014
390 360.835
395 623.782
400 171.938
405 26.7853
410 11.0924
415 12.0776
420 12.8236
425 10.5004
430 9.14838
435 8.75867
440 9.77412
445 12.0826
450 10.6997
455 8.76425
460 7.73546
465 6.54114
470 6.40068
475 6.30405
480 5.68892
485 5.43192
490 5.1659
495 4.66058
500 4.43277
505 4.13028
510 3.77634
515 3.35264
520 3.04438
525 2.67223
530 2.33808
535 2.12026
540 1.97724
545 1.72584
550 1.61722
555 1.35292
560 1.29704
565 1.01103
570 0.713585
575 0.638967
580 0.486562
585 0.371497
590 0.293224
595 0.293927
600 0.579493
Ex : 403
200 0.0371092
205 0.075347
210 0.0599134
215 0.0773869
220 0.0469045
225 0.0728585
230 0.0348462
235 0.0693356
240 0.0483245
245 0.0517028
250 0.0606634
255 0.0892799
260 0.0829574
265 0.0611257
270 0.0527147
275 0.0562942
280 0.0511778
285 0.0912182
290 0.0583089
295 0.0750073
300 0.0600193
305 0.0551076
310 0.084764
315 0.0544616
320 0.100532
325 0.0655756
330 0.065086
335 0.0507928
340 0.0856018
345 0.0523261
350 0.115405
355 0.124099
360 0.0795504
365 0.133906
370 0.138891
375 0.271857
380 0.371823
385 0.86494
390 20.8278
395 367.204
400 611.059
405 167.528
410 23.2854
415 7.86606
420 6.31603
425 5.92138
430 5.10932
435 5.06882
440 5.58265
445 6.66769
450 8.3779
455 8.36516
460 6.53524
465 6.19448
470 5.34538
475 5.04111
480 4.94589
485 4.62073
490 4.50653
495 4.11774
500 3.95633
505 3.66705
510 3.19179
515 3.13542
520 2.90296
525 2.58641
530 2.34603
535 2.08698
540 2.00735
545 1.83169
550 1.47721
555 1.39398
560 1.1989
565 1.14382
570 0.978489
575 0.632023
580 0.486147
585 0.475777
590 0.302383
595 0.356316
600 0.0946209
Ex : 408
200 0.0627492
205 0.0233164
210 0.0843221
215 0.046861
220 0.0406552
225 0.0380639
230 0.0547913
235 0.0945292
240 0.0778871
245 0.0376385
250 0.051393
255 0.0243654
260 0.0795528
265 0.0598125
270 0.0767048
275 0.0884914
280 0.0825961
285 0.0749925
290 0.0631375
295 0.0786354
300 0.10833
305 0.0754246
310 0.0663884
315 0.0346083
320 0.123959
325 0.0710872
330 0.0687734
335 0.0779916
340 0.0485581
345 0.081353
350 0.0802122
355 0.0658235
360 0.100046
365 0.10584
370 0.164058
375 0.182564
380 0.210919
385 0.343093
390 0.875588
395 19.5223
400 376.511
405 621.021
410 164.586
415 23.4099
420 7.41646
425 5.13677
430 4.89465
435 4.97832
440 5.48475
445 5.60312
450 5.58899
455 6.81128
460 7.88029
465 6.66759
470 6.10823
475 5.52823
480 5.03742
485 4.74261
490 4.52471
495 4.25234
500 4.06964
505 3.70477
510 3.38399
515 2.97294
520 2.73982
525 2.72965
530 2.3687
535 2.07786
540 1.79986
545 1.67044
550 1.53042
555 1.22114
560 1.09582
565 0.834836
570 0.879665
575 0.66173
580 0.478539
585 0.39958
590 0.346346
595 0.247999
600 0.248265
Ex : 413
200 0.0463655
205 0.0256797
210 0.0319152
215 0.0701666
220 0.0681832
225 0.0393255
230 0.0448607
235 0.134343
240 0.044612
245 0.0632861
250 0.0716145
255 0.0502177
260 0.0746574
265 0.127414
270 0.0486956
275 0.0798814
280 0.0488996
285 0.0637439
290 0.050684
295 0.0463506
300 0.0420109
305 0.0547376
310 0.139958
315 0.12187
320 0.0524883
325 0.120452
330 0.0911963
335 0.114053
340 0.0599891
345 0.0858479
350 0.100726
355 0.0952567
360 0.118669
365 0.123053
370 0.160382
375 0.134909
380 0.14103
385 0.206588
390 0.402233
395 0.584685
400 22.4875
405 385.694
410 626.384
415 162.677
420 22.8639
425 6.50754
430 4.42108
435 4.8883
440 5.14713
445 5.02533
450 4.86218
455 4.57901
460 5.37358
465 7.15397
470 6.57203
475 5.74076
480 5.14566
485 4.63397
490 4.22525
495 3.99743
500 3.70049
505 3.36221
510 3.10005
515 2.87116
520 2.72726
525 2.31009
530 2.36696
535 1.97852
540 1.84494
545 1.79675
550 1.45578
555 1.1594
560 1.08367
565 0.983997
570 0.756694
575 0.659477
580 0.550737
585 0.431482
590 0.342064
595 0.254889
600 0.466199
Ex : 418
200 0.105644
205 0.0450551
210 0.0443049
215 0.0457577
220 0.0428459
225 0.0671137
230 0.037415
235 0.0443327
240 0.0704419
245 0.101271
250 0.132974
255 0.0744464
260 0.0534424
265 0.0799728
270 0.0955817
275 0.0324301
280 0.0701767
285 0.0713617
290 0.0644278
295 0.0633983
300 0.0689677
305 0.0556203
310 0.0391075
315 0.0635587
320 0.0810889
325 0.0489189
330 0.0657997
335 0.0848797
340 0.0478471
345 0.0490263
350 0.0891606
355 0.0818203
360 0.178261
365 0.0914083
370 0.0583961
375 0.0696442
380 0.123292
385 0.209206
390 0.213773
395 0.422083
400 0.637942
405 20.6802
410 379.694
415 630.303
420 168.999
425 22.1702
430 5.1998
435 3.1344
440 3.45161
445 3.42957
450 3.13947
455 2.97373
460 3.07749
465 3.75365
470 5.41266
475 5.46928
480 4.55229
485 4.33309
490 3.61897
495 3.18045
500 3.19506
505 2.98812
510 2.88652
515 2.53525
520 2.46636
525 2.18686
530 1.96732
535 1.82132
540 1.74558
545 1.52084
550 1.33512
555 1.3081
560 1.08222
565 0.897509
570 0.683902
575 0.536953
580 0.508127
585 0.360705
590 0.30496
595 0.225323
600 0.0870609
Ex : 423
200 0.0817835
205 0.033856
210 0.0851914
215 0.0461357
220 0.044009
225 0.0446723
230 0.0794944
235 0.0483899
240 0.0558686
245 0.047209
250 0.039969
255 0.063457
260 0.0509024
265 0.0784786
270 0.0427849
275 0.0431641
280 0.0401253
285 0.0548886
290 0.0470783
295 0.0793404
300 0.0476284
305 0.0799702
310 0.0804622
315 0.0985693
320 0.0546159
325 0.0895233
330 0.0781257
335 0.0538518
340 0.0447859
345 0.0451918
350 0.0578896
355 0.0939363
360 0.0772191
365 0.103378
370 0.0827967
375 0.116622
380 0.103239
385 0.11404
390 0.134429
395 0.225861
400 0.397468
405 0.83715
410 21.113
415 400.488
420 634.625
425 161.028
430 20.1875
435 3.98137
440 2.18329
445 2.16663
450 2.1711
455 1.90672
460 2.0155
465 1.98199
470 2.45616
475 4.12343
480 4.93794
485 3.86507
490 3.55414
495 3.2656
500 2.72838
505 2.38263
510 2.4399
515 2.12744
520 2.12145
525 2.0035
530 1.84492
535 1.76922
540 1.61734
545 1.4044
550 1.33537
555 1.14133
560 1.01233
565 0.9479
570 0.786408
575 0.519494
580 0.420399
585 0.311197
590 0.239255
595 0.217879
600 0.10878
Ex : 428
200 0.10238
205 0.0557812
210 0.0556637
215 0.0944469
220 0.0358656
225 0.028708
230 0.0914917
235 0.0988904
240 0.079756
245 0.0571914
250 0.0686074
255 0.0760258
260 0.0570168
265 0.0234027
270 0.0816872
275 0.098015
280 0.0764351
285 0.0743428
290 0.0535874
295 0.0778932
300 0.0275015
305 0.0374758
310 0.0619039
315 0.063292
320 0.0771453
325 0.0691922
330 0.111862
335 0.089919
340 0.0517433
345 0.067442
350 0.044465
355 0.0995101
360 0.0609944
365 0.100364
370 0.0655814
375 0.0492903
380 0.105914
385 0.174708
390 0.118325
395 0.174973
400 0.256655
405 0.415243
410 0.788419
415 23.0668
420 398.979
425 639.498
430 167.779
435 20.6423
440 3.65015
445 1.58673
450 1.74307
455 1.66676
460 1.53698
465 1.52769
470 1.63544
475 1.99778
480 3.27561
485 4.70434
490 3.68518
495 3.28731
500 2.82574
505 2.49213
510 2.04138
515 1.94313
520 1.92631
525 1.77919
530 1.68252
535 1.51157
540 1.34036
545 1.24469
550 1.12675
555 1.0164
560 1.06825
565 0.793583
570 0.712538
575 0.536144
580 0.427246
585 0.396329
590 0.257554
595 0.194582
600 0.385486
Ex : 433
200 0.0442294
205 0.0338458
210 0.0476544
215 0.0379165
220 0.0456018
225 0.0545064
230 0.0693851
235 0.054669
240 0.0365236
245 0.0695325
250 0.0399302
255 0.0648038
260 0.0573975
265 0.0657546
270 0.045274
275 0.0615234
280 0.0381748
285 0.0598382
290 0.0467156
295 0.0740911
300 0.059043
305 0.0591671
310 0.0792334
315 0.090787
320 0.0435683
325 0.0317648
330 0.051148
335 0.159218
340 0.0707854
345 0.0745524
350 0.116326
355 0.0980166
360 0.0751325
365 0.117659
370 0.0436606
375 0.0785147
380 0.106639
385 0.137464
390 0.0985493
395 0.146651
400 0.182556
405 0.217621
410 0.339458
415 0.734331
420 26.0065
425 430.646
430 648.746
435 163.061
440 20.004
445 3.55017
450 1.56563
455 1.60574
460 1.7905
465 1.62259
470 1.52917
475 1.84719
480 1.73341
485 2.87433
490 4.21463
495 3.93282
500 3.03569
505 2.84862
510 2.24046
515 1.87848
520 1.93901
525 1.71458
530 1.74697
535 1.48559
540 1.31615
545 1.17816
550 1.20579
555 0.939773
560 0.925383
565 0.816391
570 0.744322
575 0.552971
580 0.446277
585 0.343123
590 0.305157
595 0.23287
600 0.0264997
Ex : 438
200 0.0568046
205 0.0343295
210 0.0577427
215 0.0709109
220 0.0791609
225 0.0818449
230 0.046878
235 0.0357077
240 0.045445
245 0.0513989
250 0.048619
255 0.0416511
260 0.117196
265 0.0547399
270 0.102959
275 0.0678726
280 0.0443081
285 0.05841
290 0.0846898
295 0.0600758
300 0.0515112
305 0.0268894
310 0.0786195
315 0.0652492
320 0.0447375
325 0.035256
330 0.0517898
335 0.0679914
340 0.0734002
345 0.056906
350 0.0649752
355 0.0476791
360 0.104097
365 0.0857432
370 0.12353
375 0.0819769
380 0.0870658
385 0.0834592
390 0.0881628
395 0.0978616
400 0.167513
405 0.151232
410 0.181138
415 0.338096
420 0.667393
425 24.8386
430 430.513
435 691.775
440 173.837
445 21.3746
450 3.65008
455 1.52526
460 1.56779
465 1.71134
470 1.47208
475 1.58753
480 1.67424
485 1.76016
490 2.26025
495 3.57425
500 3.8783
505 2.8764
510 2.52076
515 2.17088
520 1.71947
525 1.6108
530 1.50258
535 1.38328
540 1.35344
545 1.07743
550 0.998248
555 0.89004
560 0.813483
565 0.783111
570 0.671415
575 0.488
580 0.451499
585 0.408622
590 0.336522
595 0.183935
600 0.0209311
Ex : 443
200 0.093755
205 0.0739846
210 0.0657726
215 0.0585872
220 0.0482245
225 0.0778469
230 0.0988896
235 0.0786313
240 0.0678013
245 0.0456314
250 0.095441
255 0.0488724
260 0.0977061
265 0.0482602
270 0.0504602
275 0.0878917
280 0.0548629
285 0.0599914
290 0.0427182
295 0.0891732
300 0.0520155
305 0.0756254
310 0.0802773
315 0.0638268
320 0.0361131
325 0.0929443
330 0.0674975
335 0.0860069
340 0.0539165
345 0.0727021
350 0.0892845
355 0.0416298
360 0.0644726
365 0.102411
370 0.0962407
375 0.107653
380 0.0818525
385 0.100966
390 0.0781204
395 0.067203
400 0.130872
405 0.166819
410 0.156461
415 0.261374
420 0.346842
425 0.669278
430 27.4255
435 462.351
440 701.821
445 174.429
450 21.4116
455 3.56078
460 1.61095
465 1.37754
470 1.74717
475 1.60017
480 1.38797
485 1.30222
490 1.5165
495 1.91137
500 3.13644
505 3.82201
510 2.89412
515 2.26341
520 2.11443
525 1.75178
530 1.50943
535 1.32513
540 1.30713
545 1.25797
550 1.01165
555 0.980423
560 0.967348
565 0.822256
570 0.598759
575 0.525365
580 0.458318
585 0.306344
590 0.306168
595 0.230378
600 0.20762
Ex : 448
200 0.028916
205 0.042393
210 0.049725
215 0.0694766
220 0.0471005
225 0.0957187
230 0.0820532
235 0.0618883
240 0.0706989
245 0.0417372
250 0.070757
255 0.111222
260 0.0621033
265 0.031197
270 0.0749575
275 0.0545674
280 0.0460709
285 0.0480765
290 0.0798055
295 0.0474549
300 0.0362591
305 0.0535456
310 0.0825945
315 0.0446372
320 0.0652745
325 0.0466506
330 0.0623317
335 0.0618059
340 0.0601828
345 0.0359977
350 0.0491806
355 0.0920885
360 0.0756382
365 0.0435881
370 0.0987668
375 0.0561319
380 0.0580436
385 0.121864
390 0.0900562
395 0.122617
400 0.0917341
405 0.119044
410 0.13166
415 0.141908
420 0.256146
425 0.37296
430 0.651516
435 28.8479
440 494.976
445 749.507
450 186.255
455 22.7805
460 4.0396
465 1.6016
470 1.44255
475 1.73361
480 1.65637
485 1.52505
490 1.37883
495 1.5163
500 1.60506
505 2.30061
510 3.33773
515 2.97174
520 2.12381
525 1.91711
530 1.60385
535 1.24859
540 1.21027
545 1.07814
550 1.22343
555 0.924448
560 0.895023
565 0.674663
570 0.578585
575 0.463004
580 0.422354
585 0.287978
590 0.202896
595 0.242374
600 0.128692
Ex : 453
200 0.0566251
205 0.0308389
210 0.040689
215 0.0564755
220 0.072513
225 0.13512
230 0.0470072
235 0.0561777
240 0.0359105
245 0.101751
250 0.049026
255 0.0636642
260 0.0334972
265 0.0519166
270 0.0532034
275 0.0371972
280 0.0594613
285 0.0653762
290 0.0781102
295 0.0748424
300 0.0708269
305 0.0910244
310 0.0553843
315 0.0452602
320 0.100168
325 0.0517628
330 0.0721542
335 0.0460101
340 0.0914374
345 0.0538738
350 0.147867
355 0.10544
360 0.0923201
365 0.118756
370 0.0537224
375 0.090651
380 0.0622211
385 0.106252
390 0.0791121
395 0.115821
400 0.104288
405 0.132595
410 0.122691
415 0.166957
420 0.203321
425 0.228492
430 0.42037
435 0.657043
440 31.0158
445 535.793
450 780.868
455 182.399
460 22.4746
465 4.0102
470 1.54268
475 1.31081
480 1.57763
485 1.55102
490 1.38726
495 1.19422
500 1.24122
505 1.32672
510 1.75432
515 2.94231
520 3.1369
525 2.19457
530 1.83847
535 1.56088
540 1.28322
545 1.04049
550 0.952206
555 0.982954
560 0.80982
565 0.832982
570 0.632527
575 0.452534
580 0.492715
585 0.395199
590 0.297867
595 0.265543
600 0.492951
Ex : 458
200 0.0525551
205 0.0630878
210 0.0652475
215 0.0488598
220 0.0937791
225 0.0623201
230 0.0913465
235 0.0577434
240 0.0901987
245 0.070142
250 0.0615634
255 0.0726298
260 0.0432513
265 0.135548
270 0.0906326
275 0.0954977
280 0.0642155
285 0.073135
290 0.0467957
295 0.067279
300 0.0737184
305 0.0752813
310 0.0478764
315 0.0604114
320 0.0692199
325 0.110781
330 0.0985913
335 0.0851333
340 0.0709253
345 0.0997879
350 0.0545934
355 0.14204
360 0.0771529
365 0.0664686
370 0.0947999
375 0.0860224
380 0.0582619
385 0.0637574
390 0.0924779
395 0.10896
400 0.106172
405 0.127743
410 0.0972988
415 0.110691
420 0.159183
425 0.217969
430 0.276592
435 0.436206
440 0.802505
445 34.5941
450 555.762
455 824.68
460 199.007
465 24.6531
470 4.1411
475 1.54929
480 1.34539
485 1.41308
490 1.52326
495 1.34948
500 1.31449
505 1.10992
510 1.16409
515 1.44257
520 2.46869
525 3.17921
530 2.32598
535 1.76867
540 1.62398
545 1.27728
550 1.00298
555 0.815892
560 0.87043
565 0.666649
570 0.688384
575 0.569136
580 0.466567
585 0.360199
590 0.281188
595 0.229897
600 0.196417
Ex : 463
200 0.0789053
205 0.0498998
210 0.0544419
215 0.0464861
220 0.0392947
225 0.0833726
230 0.0871264
235 0.037117
240 0.0733823
245 0.0422427
250 0.0817694
255 0.0623131
260 0.0893308
265 0.0699555
270 0.0576422
275 0.0367747
280 0.0473937
285 0.0491099
290 0.0774954
295 0.0795598
300 0.0771881
305 0.0709209
310 0.0618015
315 0.0653177
320 0.0617631
325 0.075644
330 0.116027
335 0.108142
340 0.0664319
345 0.0697869
350 0.0576588
355 0.0478498
360 0.0555636
365 0.0698963
370 0.0715695
375 0.0819675
380 0.0742321
385 0.0544299
390 0.104121
395 0.0996496
400 0.106334
405 0.114731
410 0.113212
415 0.135467
420 0.111113
425 0.117068
430 0.247596
435 0.220557
440 0.476605
445 0.704209
450 33.4709
455 577.071
460 886.417
465 215.45
470 26.3609
475 4.2219
480 1.53154
485 1.24162
490 1.58136
495 1.43472
500 1.46021
505 1.11099
510 1.1429
515 1.1795
520 1.30937
525 1.82731
530 2.81619
535 2.46653
540 1.63009
545 1.49962
550 1.29818
555 1.02244
560 0.740085
565 0.775668
570 0.62284
575 0.567862
580 0.454322
585 0.367239
590 0.365674
595 0.227392
600 0.343931
Ex : 468
200 0.054955
205 0.122616
210 0.0618468
215 0.0596843
220 0.0503632
225 0.0445667
230 0.0476443
235 0.0476247
240 0.0619267
245 0.0323172
250 0.0545754
255 0.062391
260 0.0547346
265 0.0630119
270 0.0575586
275 0.0489437
280 0.0553394
285 0.0594476
290 0.0714365
295 0.0957783
300 0.0488645
305 0.0797839
310 0.0584029
315 0.0504585
320 0.0584984
325 0.0599263
330 0.0707951
335 0.0603741
340 0.0445405
345 0.0662599
350 0.05208
355 0.0675553
360 0.0722355
365 0.0711634
370 0.0886303
375 0.0847447
380 0.0528745
385 0.0835438
390 0.0783417
395 0.0749957
400 0.0695014
405 0.0762832
410 0.0941495
415 0.117569
420 0.114558
425 0.139306
430 0.128424
435 0.162721
440 0.223598
445 0.426308
450 0.877898
455 36.1776
460 592.127
465 933.373
470 224.965
475 27.2539
480 4.44473
485 1.55554
490 1.23231
495 1.34665
500 1.344
505 1.3038
510 1.10317
515 1.12509
520 1.15676
525 1.303
530 1.58429
535 2.60328
540 2.68895
545 1.80302
550 1.36226
555 1.31154
560 0.981632
565 0.800646
570 0.694092
575 0.516126
580 0.446451
585 0.43225
590 0.345309
595 0.252967
600 0.0287867
Ex : 473
200 0.0489655
205 0.0443347
210 0.0459733
215 0.0408591
220 0.0537838
225 0.0624547
230 0.05545
235 0.0798013
240 0.0730912
245 0.0444351
250 0.0427009
255 0.0302459
260 0.0670797
265 0.105923
270 0.0618182
275 0.0536608
280 0.0535663
285 0.0315891
290 0.0371421
295 0.0772495
300 0.0496043
305 0.0525157
310 0.0582503
315 0.040685
320 0.0613163
325 0.0772171
330 0.0554293
335 0.104741
340 0.0678291
345 0.0508986
350 0.0739142
355 0.0519558
360 0.0489909
365 0.0765967
370 0.0588603
375 0.100815
380 0.0649655
385 0.0551542
390 0.103666
395 0.0597097
400 0.0997126
405 0.118292
410 0.10312
415 0.0768272
420 0.113611
425 0.173312
430 0.120505
435 0.141205
440 0.222831
445 0.283649
450 0.474548
455 0.954472
460 43.7098
465 666.234
470 936.053
475 215.829
480 26.1453
485 4.28695
490 1.53199
495 1.3049
500 1.47103
505 1.37405
510 1.27464
515 1.04158
520 1.18677
525 1.12439
530 1.10285
535 1.42444
540 2.14531
545 2.59319
550 1.87694
555 1.35245
560 1.22063
565 1.02566
570 0.691163
575 0.65077
580 0.526805
585 0.442488
590 0.324159
595 0.281339
600 0.230647
Ex : 478
200 0.0450338
205 0.057674
210 0.063212
215 0.0726227
220 0.0910251
225 0.056549
230 0.09125
235 0.0563302
240 0.13099
245 0.0941933
250 0.0715419
255 0.0487996
260 0.0714624
265 0.0511742
270 0.091389
275 0.0986413
280 0.111373
285 0.0545965
290 0.0815741
295 0.079444
300 0.0699144
305 0.0818126
310 0.07997
315 0.0464658
320 0.0795091
325 0.056678
330 0.108527
335 0.0824195
340 0.0640774
345 0.120179
350 0.0651578
355 0.0744913
360 0.0938914
365 0.102886
370 0.0745034
375 0.0733953
380 0.0949601
385 0.118076
390 0.0789625
395 0.127097
400 0.154465
405 0.186321
410 0.0866236
415 0.117281
420 0.106419
425 0.107066
430 0.152186
435 0.153463
440 0.159673
445 0.209208
450 0.375126
455 0.583415
460 1.11462
465 48.4782
470 695.071
475 970.981
480 233.1
485 28.3539
490 4.49928
495 1.47071
500 0.976281
505 1.17222
510 1.24584
515 1.18376
520 1.07084
525 1.00336
530 0.999179
535 1.07128
540 1.04364
545 1.58728
550 2.34854
555 1.8475
560 1.14945
565 1.18362
570 0.908638
575 0.706021
580 0.530391
585 0.358792
590 0.30019
595 0.327282
600 0.0528456
Ex : 483
200 0.111277
205 0.112492
210 0.093546
215 0.0927079
220 0.0794981
225 0.0761542
230 0.0413317
235 0.0599987
240 0.0857443
245 0.100836
250 0.0809189
255 0.0392004
260 0.0643345
265 0.0805586
270 0.0631879
275 0.0376327
280 0.041346
285 0.0677246
290 0.0716285
295 0.0484632
300 0.101453
305 0.101806
310 0.0471427
315 0.0748593
320 0.0523164
325 0.0951636
330 0.0698747
335 0.0604197
340 0.0548681
345 0.0909663
350 0.0681379
355 0.0907869
360 0.0684865
365 0.0703144
370 0.0678352
375 0.0769793
380 0.0776763
385 0.087608
390 0.098075
395 0.0945489
400 0.0827657
405 0.140125
410 0.117033
415 0.115272
420 0.137962
425 0.121184
430 0.147894
435 0.0727072
440 0.147192
445 0.169126
450 0.274843
455 0.383334
460 0.597139
465 1.10524
470 39.5324
475 691.332
480 1052.69
485 252.47
490 30.2992
495 4.57519
500 1.53347
505 1.06475
510 1.08308
515 1.25335
520 1.30638
525 1.18968
530 1.07373
535 1.02254
540 0.910207
545 0.986175
550 1.14586
555 1.8862
560 2.13752
565 1.4245
570 1.02444
575 0.848893
580 0.670883
585 0.467273
590 0.419343
595 0.304085
600 0.0838372
Ex : 488
200 0.055637
205 0.0725208
210 0.106458
215 0.0606423
220 0.0612016
225 0.052413
230 0.055308
235 0.0809464
240 0.0889591
245 0.076934
250 0.131911
255 0.0636203
260 0.0748578
265 0.0482517
270 0.0479622
275 0.0631244
280 0.0755797
285 0.0780287
290 0.116436
295 0.096749
300 0.0918849
305 0.0551744
310 0.0762872
315 0.071632
320 0.074913
325 0.0606785
330 0.0552628
335 0.0824214
340 0.0443384
345 0.122104
350 0.0993299
355 0.0864495
360 0.0558541
365 0.114224
370 0.0788725
375 0.0731349
380 0.10231
385 0.0716216
390 0.0991349
395 0.161455
400 0.0994052
405 0.0911347
410 0.10531
415 0.136984
420 0.0994955
425 0.149771
430 0.108876
435 0.113106
440 0.11271
445 0.187147
450 0.313478
455 0.312048
460 0.369583
465 0.59389
470 1.19289
475 47.4885
480 754.916
485 1061.87
490 248.706
495 30.0227
500 4.68519
505 1.58519
510 0.974252
515 1.22228
520 1.24862
525 1.14983
530 1.06693
535 0.977804
540 0.827116
545 0.969319
550 0.889097
555 0.992285
560 1.32424
565 1.96381
570 1.22606
575 0.840119
580 0.608266
585 0.592406
590 0.483773
595 0.270195
600 0.0307471
Ex : 493
200 0.0988539
205 0.0989699
210 0.0463373
215 0.0931398
220 0.0987993
225 0.0576005
230 0.0439018
235 0.0728388
240 0.0895757
245 0.0537561
250 0.101755
255 0.0502469
260 0.0706148
265 0.144474
270 0.0679049
275 0.0649744
280 0.0762042
285 0.111601
290 0.10344
295 0.0529485
300 0.0614984
305 0.0490916
310 0.0911587
315 0.0760689
320 0.0824395
325 0.0850072
330 0.0842867
335 0.162784
340 0.0856768
345 0.0993685
350 0.0592563
355 0.0998287
360 0.157136
365 0.0721159
370 0.0752357
375 0.101536
380 0.15424
385 0.102709
390 0.133167
395 0.0919389
400 0.144365
405 0.115917
410 0.141511
415 0.14373
420 0.1521
425 0.086381
430 0.0735412
435 0.109557
440 0.111624
445 0.137009
450 0.163225
455 0.30799
460 0.303655
465 0.457624
470 0.721952
475 1.06289
480 44.9676
485 762.576
490 1131.87
495 258.887
500 31.1579
505 4.73023
510 1.52007
515 1.07629
520 1.05369
525 1.38788
530 1.34207
535 1.23626
540 1.06672
545 0.853066
550 0.772079
555 0.773992
560 0.928404
565 1.05332
570 1.54003
575 1.33861
580 0.849795
585 0.630244
590 0.464035
595 0.438206
600 0.106291
Ex : 498
200 0.0873834
205 0.0858411
210 0.0849276
215 0.0418107
220 0.0876205
225 0.0903494
230 0.0851164
235 0.100802
240 0.0967221
245 0.110224
250 0.0661878
255 0.0883226
260 0.0597735
265 0.0837938
270 0.0546342
275 0.0822942
280 0.0946297
285 0.0489585
290 0.0722299
295 0.101733
300 0.130467
305 0.0971111
310 0.0749671
315 0.0853602
320 0.105438
325 0.0606316
330 0.104279
335 0.0914509
340 0.0812039
345 0.0890773
350 0.0849495
355 0.113332
360 0.0869012
365 0.145997
370 0.116704
375 0.0712813
380 0.0956225
385 0.0988369
390 0.0857025
395 0.114778
400 0.0954865
405 0.101499
410 0.127081
415 0.112968
420 0.0957229
425 0.0964709
430 0.129608
435 0.151013
440 0.150581
445 0.134129
450 0.171882
455 0.210171
460 0.251005
465 0.253129
470 0.422368
475 0.681409
480 1.12862
485 54.9998
490 822.027
495 1124.84
500 259.691
505 31.2872
510 4.83903
515 1.61361
520 1.11736
525 1.08705
530 1.16449
535 1.14454
540 1.02544
545 0.837431
550 0.798304
555 0.781441
560 0.735206
565 0.599825
570 0.743672
575 1.08363
580 1.07694
585 0.641652
590 0.489695
595 0.377032
600 0.408464
Ex : 503
200 0.0712714
205 0.0781083
210 0.0899042
215 0.0930834
220 0.0942781
225 0.0730937
230 0.0664311
235 0.0675297
240 0.0699088
245 0.181406
250 0.076621
255 0.0655499
260 0.0730692
265 0.113692
270 0.106572
275 0.1353
280 0.149619
285 0.0883438
290 0.112456
295 0.0567797
300 0.0514796
305 0.0826093
310 0.0604464
315 0.0741435
320 0.0735055
325 0.0825122
330 0.0673014
335 0.165421
340 0.12046
345 0.0929695
350 0.0656613
355 0.125945
360 0.124884
365 0.153995
370 0.11353
375 0.0911138
380 0.106491
385 0.128032
390 0.104651
395 0.0902857
400 0.10571
405 0.0767295
410 0.111469
415 0.124423
420 0.10057
425 0.15398
430 0.0801103
435 0.17634
440 0.214029
445 0.135155
450 0.117357
455 0.25141
460 0.314557
465 0.240117
470 0.26281
475 0.363767
480 0.707316
485 1.20984
490 51.3049
495 832.46
500 1174.51
505 271.083
510 32.6319
515 4.80237
520 1.72813
525 1.17901
530 1.03026
535 1.07549
540 1.15124
545 1.00793
550 0.952001
555 0.80399
560 0.593776
565 0.590486
570 0.58059
575 0.593323
580 0.642355
585 0.932106
590 0.674012
595 0.406633
600 0.239768
Ex : 508
200 0.0785187
205 0.0843897
210 0.0861421
215 0.108854
220 0.11337
225 0.0834485
230 0.101891
235 0.114513
240 0.0539165
245 0.0691371
250 0.120853
255 0.0902379
260 0.114863
265 0.077114
270 0.107286
275 0.0712632
280 0.0731935
285 0.120339
290 0.0628465
295 0.0980643
300 0.0738652
305 0.053964
310 0.0933878
315 0.0570298
320 0.0813529
325 0.0997221
330 0.121697
335 0.127018
340 0.0887068
345 0.142477
350 0.126393
355 0.12579
360 0.120748
365 0.167603
370 0.130407
375 0.116929
380 0.0904179
385 0.184174
390 0.0943026
395 0.0876401
400 0.0983023
405 0.145401
410 0.0959828
415 0.190138
420 0.0968402
425 0.190185
430 0.0922033
435 0.104829
440 0.115438
445 0.127598
450 0.166494
455 0.193824
460 0.200325
465 0.222596
470 0.232066
475 0.273029
480 0.339344
485 0.639248
490 1.27325
495 55.9044
500 850.525
505 1191.86
510 284.026
515 34.0082
520 5.05899
525 1.6581
530 1.02732
535 1.00204
540 1.05824
545 1.08603
550 0.907855
555 0.73684
560 0.552022
565 0.666757
570 0.537823
575 0.595471
580 0.518643
585 0.500957
590 0.717477
595 0.557333
600 1.07853
Ex : 513
200 0.0799029
205 0.11529
210 0.131033
215 0.13953
220 0.0811426
225 0.0835977
230 0.0596042
235 0.0955021
240 0.164045
245 0.132962
250 0.0697562
255 0.107015
260 0.154986
265 0.0469123
270 0.112181
275 0.0549848
280 0.0792538
285 0.134365
290 0.0823801
295 0.0410247
300 0.0308034
305 0.181244
310 0.117798
315 0.112127
320 0.127794
325 0.071829
330 0.0620525
335 0.142265
340 0.144339
345 0.118424
350 0.0656585
355 0.0863204
360 0.0646684
365 0.116711
370 0.11058
375 0.191552
380 0.180496
385 0.138522
390 0.132167
395 0.104108
400 0.129107
405 0.210861
410 0.177026
415 0.0994569
420 0.156444
425 0.174548
430 0.0971493
435 0.141959
440 0.138598
445 0.16573
450 0.191468
455 0.12477
460 0.245036
465 0.149387
470 0.180949
475 0.276051
480 0.32837
485 0.432539
490 0.779001
495 1.19167
500 53.2174
505 835.149
510 1210.38
515 295.49
520 35.4367
525 5.20498
530 1.68564
535 1.11464
540 0.862339
545 0.824391
550 0.996513
555 0.902043
560 0.667481
565 0.633167
570 0.458644
575 0.515505
580 0.474988
585 0.452235
590 0.346236
595 0.615254
600 0.275962
Ex : 518
200 0.137852
205 0.078456
210 0.0852741
215 0.0688317
220 0.0558652
225 0.0728685
230 0.133234
235 0.0690447
240 0.0847044
245 0.119301
250 0.0559859
255 0.0731461
260 0.0593745
265 0.0668955
270 0.0591132
275 0.137754
280 0.119335
285 0.0957702
290 0.111105
295 0.0730176
300 0.118674
305 0.144794
310 0.10116
315 0.0615268
320 0.0342077
325 0.11119
330 0.0862977
335 0.210434
340 0.0987546
345 0.1076
350 0.139327
355 0.0871281
360 0.0937573
365 0.0703881
370 0.0826819
375 0.103544
380 0.119109
385 0.0699749
390 0.122578
395 0.0901551
400 0.18273
405 0.107046
410 0.10921
415 0.0983018
420 0.105657
425 0.129953
430 0.116224
435 0.120973
440 0.136912
445 0.103575
450 0.0994217
455 0.147849
460 0.129964
465 0.246009
470 0.180555
475 0.188279
480 0.225369
485 0.345396
490 0.398588
495 0.61758
500 1.22504
505 52.0606
510 833.001
515 1236.7
520 302.082
525 36.3424
530 5.22054
535 1.5981
540 0.956057
545 0.781092
550 0.938859
555 0.767191
560 0.640683
565 0.645586
570 0.581097
575 0.416975
580 0.422811
585 0.382143
590 0.287517
595 0.386769
600 0.0440128
Ex : 523
200 0.0694395
205 0.0795941
210 0.151006
215 0.115744
220 0.0949568
225 0.124015
230 0.143659
235 0.106884
240 0.110174
245 0.110852
250 0.0951282
255 0.0733647
260 0.101456
265 0.070093
270 0.0470134
275 0.109864
280 0.132014
285 0.120673
290 0.0942101
295 0.0969448
300 0.0685695
305 0.0795543
310 0.109631
315 0.104322
320 0.0860902
325 0.114649
330 0.119549
335 0.118797
340 0.114444
345 0.0924992
350 0.0974398
355 0.128284
360 0.0848917
365 0.0985115
370 0.146344
375 0.14435
380 0.0987168
385 0.100623
390 0.127574
395 0.0546214
400 0.0842422
405 0.0932144
410 0.178182
415 0.0935652
420 0.114479
425 0.23471
430 0.230778
435 0.133687
440 0.123274
445 0.0922878
450 0.114395
455 0.242092
460 0.14862
465 0.205296
470 0.149103
475 0.189592
480 0.155931
485 0.27587
490 0.423263
495 0.359449
500 0.630333
505 1.14197
510 48.6283
515 801.58
520 1225.35
525 312.536
530 37.5645
535 5.26663
540 1.45882
545 0.871264
550 0.62035
555 0.633444
560 0.675901
565 0.733541
570 0.532433
575 0.455339
580 0.384512
585 0.425312
590 0.370253
595 0.358921
600 0.220717
Ex : 528
200 0.0362859
205 0.0893641
210 0.128062
215 0.158665
220 0.13623
225 0.10939
230 0.0666117
235 0.0910003
240 0.0813344
245 0.123247
250 0.1278
255 0.113603
260 0.071587
265 0.145865
270 0.148784
275 0.0799519
280 0.1599
285 0.0735905
290 0.05908
295 0.15417
300 0.092112
305 0.0818694
310 0.108411
315 0.0685691
320 0.0818435
325 0.104143
330 0.109724
335 0.0824638
340 0.122888
345 0.182406
350 0.114265
355 0.0744951
360 0.0751352
365 0.143872
370 0.0759086
375 0.155035
380 0.148408
385 0.134499
390 0.0876797
395 0.0954991
400 0.115235
405 0.0800517
410 0.120933
415 0.167294
420 0.202024
425 0.12331
430 0.0931966
435 0.174343
440 0.126761
445 0.139568
450 0.144676
455 0.116031
460 0.178104
465 0.213262
470 0.179311
475 0.192086
480 0.200449
485 0.298983
490 0.310718
495 0.278519
500 0.47855
505 0.712482
510 1.24612
515 45.6552
520 799.689
525 1227.35
530 310.436
535 37.31
540 5.23041
545 1.4364
550 0.759994
555 0.59036
560 0.625539
565 0.758758
570 0.651426
575 0.405114
580 0.372992
585 0.464183
590 0.330243
595 0.516135
600 0.194378
Ex : 533
200 0.098784
205 0.123837
210 0.0812781
215 0.136155
220 0.122071
225 0.12548
230 0.114739
235 0.147178
240 0.0862698
245 0.0637542
250 0.107406
255 0.0908164
260 0.079992
265 0.139029
270 0.115451
275 0.0893294
280 0.066605
285 0.103443
290 0.0818438
295 0.131591
300 0.177838
305 0.115524
310 0.0778589
315 0.210047
320 0.08261
325 0.0534294
330 0.0663383
335 0.202936
340 0.114565
345 0.124861
350 0.063349
355 0.122135
360 0.0936467
365 0.15946
370 0.157725
375 0.0746817
380 0.137139
385 0.124061
390 0.153962
395 0.115752
400 0.110606
405 0.182759
410 0.0977123
415 0.16345
420 0.157929
425 0.108534
430 0.140893
435 0.0971148
440 0.163682
445 0.247883
450 0.0986304
455 0.184205
460 0.105303
465 0.137173
470 0.156556
475 0.119971
480 0.191833
485 0.206652
490 0.215445
495 0.175084
500 0.344101
505 0.442313
510 0.705817
515 1.01888
520 46.1291
525 759.411
530 1192.06
535 309.6
540 36.854
545 5.17935
550 1.42579
555 0.900622
560 0.530136
565 0.542447
570 0.504887
575 0.507412
580 0.355224
585 0.403743
590 0.320962
595 0.286519
600 0.970387
Ex : 538
200 0.0805595
205 0.0777991
210 0.0645515
215 0.0984107
220 0.122884
225 0.12414
230 0.0801206
235 0.0814936
240 0.0942473
245 0.0960193
250 0.12797
255 0.145471
260 0.130521
265 0.0547522
270 0.0537368
275 0.125143
280 0.128735
285 0.0710339
290 0.109314
295 0.168018
300 0.112022
305 0.05769
310 0.0988272
315 0.115859
320 0.129207
325 0.0323138
330 0.082503
335 0.143153
340 0.0958243
345 0.0762206
350 0.116047
355 0.103015
360 0.161052
365 0.095841
370 0.173877
375 0.157761
380 0.0867088
385 0.177593
390 0.0748976
395 0.0888346
400 0.115854
405 0.175635
410 0.161346
415 0.0962774
420 0.0815804
425 0.149954
430 0.12797
435 0.159376
440 0.150418
445 0.127145
450 0.243973
455 0.0992163
460 0.122297
465 0.24079
470 0.11808
475 0.0974687
480 0.184825
485 0.155957
490 0.233026
495 0.268575
500 0.184093
505 0.362253
510 0.43563
515 0.644215
520 1.11282
525 40.2453
530 745.269
535 1207.03
540 322.534
545 38.4654
550 5.35446
555 1.41691
560 0.656504
565 0.56997
570 0.540789
575 0.499147
580 0.540342
585 0.352119
590 0.272146
595 0.331623
600 0.297819
Ex : 543
200 0.132195
205 0.134006
210 0.0639093
215 0.160864
220 0.101365
225 0.0945871
230 0.0590329
235 0.0933498
240 0.149273
245 0.112799
250 0.107355
255 0.140411
260 0.0618389
265 0.0814286
270 0.0986114
275 0.0773013
280 0.0665617
285 0.107794
290 0.105402
295 0.175552
300 0.172579
305 0.0994066
310 0.186992
315 0.126607
320 0.137639
325 0.0807606
330 0.134412
335 0.112243
340 0.0722975
345 0.0998544
350 0.141153
355 0.111344
360 0.0680732
365 0.131775
370 0.114015
375 0.0656132
380 0.0642185
385 0.0972759
390 0.126093
395 0.19273
400 0.143027
405 0.156834
410 0.137212
415 0.120124
420 0.110698
425 0.17407
430 0.14347
435 0.159617
440 0.125858
445 0.0941517
450 0.169798
455 0.106286
460 0.187363
465 0.202679
470 0.154292
475 0.146764
480 0.188473
485 0.179538
490 0.17965
495 0.235904
500 0.230047
505 0.266074
510 0.292905
515 0.381817
520 0.544537
525 1.1903
530 36.053
535 717.605
540 1204.19
545 329.199
550 39.5169
555 5.41809
560 1.32725
565 0.735321
570 0.445649
575 0.45486
580 0.440783
585 0.433335
590 0.348695
595 0.311114
600 0.229572
Ex : 548
200 0.093584
205 0.111016
210 0.0645843
215 0.116451
220 0.100573
225 0.197828
230 0.0631241
235 0.123872
240 0.12513
245 0.120122
250 0.11489
255 0.224838
260 0.178878
265 0.0747344
270 0.0598328
275 0.130431
280 0.108327
285 0.0699882
290 0.0976788
295 0.138311
300 0.0896909
305 0.113964
310 0.166167
315 0.186359
320 0.14469
325 0.0978936
330 0.153095
335 0.139285
340 0.161963
345 0.144074
350 0.126202
355 0.113737
360 0.093596
365 0.0812938
370 0.150271
375 0.0969581
380 0.0922627
385 0.109726
390 0.104738
395 0.119602
400 0.0628235
405 0.14064
410 0.142152
415 0.117544
420 0.0736777
425 0.172708
430 0.162435
435 0.199005
440 0.185438
445 0.167208
450 0.116485
455 0.184983
460 0.165552
465 0.164446
470 0.195833
475 0.1694
480 0.186759
485 0.216534
490 0.169113
495 0.164775
500 0.114838
505 0.180817
510 0.261221
515 0.370104
520 0.371478
525 0.526043
530 0.975962
535 41.5051
540 731.402
545 1183.43
550 325.92
555 38.7078
560 5.07344
565 1.05066
570 0.541326
575 0.549715
580 0.410017
585 0.3368
590 0.337365
595 0.368693
600 0.0569763
Ex : 553
200 0.0732355
205 0.142864
210 0.0927279
215 0.100638
220 0.0894663
225 0.13915
230 0.090242
235 0.14984
240 0.121695
245 0.151204
250 0.0850576
255 0.0879955
260 0.0767049
265 0.0990577
270 0.163355
275 0.0830037
280 0.0917547
285 0.116726
290 0.11343
295 0.093346
300 0.0733957
305 0.21979
310 0.0967875
315 0.0671599
320 0.075716
325 0.105851
330 0.113764
335 0.170044
340 0.162661
345 0.124064
350 0.0717962
355 0.0608951
360 0.113525
365 0.114696
370 0.116825
375 0.10306
380 0.134843
385 0.0738403
390 0.0969855
395 0.13303
400 0.114789
405 0.0960457
410 0.0711171
415 0.113051
420 0.145966
425 0.16833
430 0.25992
435 0.194209
440 0.105413
445 0.132223
450 0.151472
455 0.130911
460 0.191812
465 0.184148
470 0.196183
475 0.165844
480 0.175431
485 0.144263
490 0.144201
495 0.137932
500 0.152306
505 0.222509
510 0.24888
515 0.260655
520 0.335482
525 0.474263
530 0.622504
535 1.06675
540 34.7071
545 693.744
550 1198.03
555 335.736
560 40.0913
565 5.25771
570 1.08636
575 0.460198
580 0.456883
585 0.351706
590 0.341704
595 0.345107
600 0.20183
Ex : 558
200 0.0877879
205 0.109116
210 0.141588
215 0.0866337
220 0.158753
225 0.119962
230 0.104901
235 0.0822503
240 0.223557
245 0.201637
250 0.107636
255 0.101075
260 0.145249
265 0.109034
270 0.10143
275 0.106821
280 0.0656336
285 0.0854961
290 0.157213
295 0.196745
300 0.134197
305 0.0997271
310 0.199366
315 0.175884
320 0.123171
325 0.157153
330 0.116192
335 0.120095
340 0.134082
345 0.108488
350 0.109682
355 0.149717
360 0.127067
365 0.0967804
370 0.151808
375 0.117933
380 0.0939961
385 0.156243
390 0.167632
395 0.126553
400 0.0630724
405 0.143854
410 0.08548
415 0.10589
420 0.156723
425 0.154154
430 0.182086
435 0.136212
440 0.176746
445 0.152303
450 0.158523
455 0.132915
460 0.156783
465 0.159963
470 0.149857
475 0.105206
480 0.080221
485 0.185694
490 0.181364
495 0.189623
500 0.161464
505 0.157516
510 0.175088
515 0.234867
520 0.250275
525 0.234227
530 0.333657
535 0.443357
540 1.12771
545 33.9651
550 680.364
555 1208.8
560 337.115
565 40.4485
570 5.22579
575 1.11437
580 0.401732
585 0.388608
590 0.338895
595 0.291471
600 0.119627
Ex : 563
200 0.135578
205 0.21083
210 0.100785
215 0.132297
220 0.107792
225 0.146863
230 0.0725099
235 0.0811998
240 0.0939273
245 0.198748
250 0.117112
255 0.133774
260 0.147974
265 0.162289
270 0.0873161
275 0.0964603
280 0.137407
285 0.0765155
290 0.106092
295 0.106452
300 0.0947995
305 0.137312
310 0.118598
315 0.0668785
320 0.0878463
325 0.0896689
330 0.119693
335 0.188382
340 0.130558
345 0.169513
350 0.150244
355 0.182884
360 0.229511
365 0.112707
370 0.155524
375 0.161859
380 0.150074
385 0.145335
390 0.174637
395 0.186371
400 0.128028
405 0.120313
410 0.151316
415 0.188721
420 0.117087
425 0.111376
430 0.201811
435 0.145035
440 0.180478
445 0.103006
450 0.146561
455 0.163606
460 0.125972
465 0.107761
470 0.141117
475 0.170412
480 0.144511
485 0.199678
490 0.150583
495 0.158554
500 0.169284
505 0.173427
510 0.155222
515 0.185218
520 0.11658
525 0.32205
530 0.303601
535 0.338528
540 0.559576
545 0.92072
550 32.2503
555 653.645
560 1133.48
565 322.061
570 38.2544
575 4.92097
580 0.873596
585 0.52301
590 0.329342
595 0.236013
600 0.0268574
Ex : 568
200 0.151659
205 0.0811201
210 0.139738
215 0.101925
220 0.105315
225 0.0944092
230 0.212811
235 0.150818
240 0.0754074
245 0.1923
250 0.115095
255 0.0968979
260 0.11633
265 0.104283
270 0.0986608
275 0.133884
280 0.130625
285 0.0648978
290 0.0549536
295 0.145123
300 0.126982
305 0.133926
310 0.0724993
315 0.118734
320 0.144098
325 0.141428
330 0.144748
335 0.173322
340 0.0851386
345 0.134388
350 0.067293
355 0.0798098
360 0.103169
365 0.118278
370 0.145441
375 0.167881
380 0.104454
385 0.153668
390 0.242215
395 0.118132
400 0.200475
405 0.109098
410 0.13835
415 0.168783
420 0.181591
425 0.126394
430 0.127801
435 0.188849
440 0.143355
445 0.195671
450 0.174062
455 0.211716
460 0.264898
465 0.164639
470 0.16497
475 0.20463
480 0.132336
485 0.1564
490 0.233272
495 0.126372
500 0.213464
505 0.205281
510 0.177888
515 0.173638
520 0.292078
525 0.213241
530 0.249938
535 0.347792
540 0.443209
545 0.465008
550 0.882548
555 24.6931
560 576.295
565 1085.6
570 325.885
575 39.1987
580 5.04954
585 1.0215
590 0.502544
595 0.240431
600 0.188488
Ex : 573
200 0.0599873
205 0.0800499
210 0.115193
215 0.108377
220 0.222312
225 0.145205
230 0.167701
235 0.295776
240 0.13766
245 0.105168
250 0.109005
255 0.147657
260 0.0975593
265 0.144061
270 0.110305
275 0.135475
280 0.138335
285 0.132404
290 0.0891761
295 0.178888
300 0.132334
305 0.146716
310 0.0900111
315 0.120346
320 0.107172
325 0.0886292
330 0.069918
335 0.0917135
340 0.168364
345 0.191696
350 0.158077
355 0.114257
360 0.137558
365 0.135766
370 0.153708
375 0.155502
380 0.226356
385 0.154325
390 0.0844583
395 0.132844
400 0.10916
405 0.0973557
410 0.168661
415 0.101238
420 0.0896984
425 0.14352
430 0.17922
435 0.11894
440 0.146933
445 0.0663613
450 0.189279
455 0.0997919
460 0.0961962
465 0.171417
470 0.235609
475 0.13394
480 0.139404
485 0.177751
490 0.191979
495 0.164723
500 0.171037
505 0.177709
510 0.182009
515 0.211552
520 0.267026
525 0.15027
530 0.166699
535 0.201282
540 0.261766
545 0.476503
550 0.53202
555 0.773124
560 20.7601
565 501.235
570 1012.18
575 313.028
580 37.5078
585 4.7518
590 0.927104
595 0.465473
600 0.052969
Ex : 578
200 0.206236
205 0.0576599
210 0.0643574
215 0.241327
220 0.0871915
225 0.0988038
230 0.285772
235 0.207517
240 0.20651
245 0.188033
250 0.0946062
255 0.0516987
260 0.153293
265 0.170736
270 0.0951904
275 0.128051
280 0.111584
285 0.1508
290 0.1285
295 0.108038
300 0.0905144
305 0.117512
310 0.168327
315 0.186591
320 0.142344
325 0.111076
330 0.211443
335 0.15193
340 0.175888
345 0.0895928
350 0.125938
355 0.165425
360 0.111396
365 0.139381
370 0.120795
375 0.178523
380 0.122486
385 0.22523
390 0.158889
395 0.125539
400 0.157779
405 0.12971
410 0.130706
415 0.142972
420 0.0965015
425 0.15633
430 0.231913
435 0.222986
440 0.157724
445 0.150529
450 0.12796
455 0.123079
460 0.109191
465 0.131472
470 0.128069
475 0.181056
480 0.178131
485 0.198622
490 0.164343
495 0.122465
500 0.116016
505 0.162533
510 0.115863
515 0.19089
520 0.160242
525 0.170451
530 0.173045
535 0.225725
540 0.184868
545 0.296282
550 0.435386
555 0.413079
560 0.771246
565 18.3118
570 455.92
575 889.225
580 269.618
585 32.085
590 4.16088
595 0.872874
600 0.0993297
Ex : 583
200 0.0995166
205 0.110774
210 0.099906
215 0.165008
220 0.0805425
225 0.0896342
230 0.0632815
235 0.0968257
240 0.131871
245 0.106185
250 0.116246
255 0.192084
260 0.0804294
265 0.193178
270 0.356027
275 0.186969
280 0.155295
285 0.189171
290 0.0920683
295 0.231088
300 0.0970619
305 0.218833
310 0.16333
315 0.144504
320 0.114229
325 0.0872625
330 0.114889
335 0.173386
340 0.0945411
345 0.0843714
350 0.108118
355 0.0949717
360 0.11519
365 0.0940523
370 0.0851901
375 0.119159
380 0.140439
385 0.173582
390 0.162723
395 0.157394
400 0.164786
405 0.101904
410 0.0604821
415 0.153737
420 0.17457
425 0.183196
430 0.126089
435 0.181035
440 0.0906786
445 0.112781
450 0.111929
455 0.110721
460 0.214595
465 0.210895
470 0.113188
475 0.0979141
480 0.120893
485 0.150961
490 0.104703
495 0.12776
500 0.147252
505 0.256182
510 0.147859
515 0.122787
520 0.190133
525 0.244612
530 0.242508
535 0.165954
540 0.183826
545 0.239517
550 0.279
555 0.319788
560 0.520509
565 0.568159
570 15.6464
575 403.436
580 777.336
585 226.101
590 26.9779
595 3.47005
600 1.62048
Ex : 588
200 0.131466
205 0.16744
210 0.21203
215 0.164526
220 0.0826769
225 0.177855
230 0.0807257
235 0.070138
240 0.123117
245 0.161064
250 0.265835
255 0.128838
260 0.103126
265 0.152322
270 0.092433
275 0.133267
280 0.135821
285 0.138273
290 0.128328
295 0.0870192
300 0.0947022
305 0.132761
310 0.178765
315 0.0996168
320 0.0868332
325 0.157193
330 0.0940937
335 0.124708
340 0.123026
345 0.11988
350 0.141599
355 0.143222
360 0.180731
365 0.356521
370 0.225216
375 0.21046
380 0.178708
385 0.109236
390 0.118336
395 0.166499
400 0.122678
405 0.172614
410 0.22106
415 0.139228
420 0.102963
425 0.109047
430 0.139346
435 0.13069
440 0.159862
445 0.177575
450 0.0633652
455 0.150743
460 0.118206
465 0.189519
470 0.135571
475 0.245642
480 0.113865
485 0.224371
490 0.18143
495 0.165675
500 0.300082
505 0.132512
510 0.11044
515 0.0971817
520 0.235988
525 0.191694
530 0.289294
535 0.249143
540 0.295577
545 0.13752
550 0.314703
555 0.243884
560 0.290407
565 0.355458
570 0.673298
575 13.9337
580 346.164
585 649.596
590 197.089
595 23.646
600 3.66051
Ex : 593
200 0.0940371
205 0.0745514
210 0.160197
215 0.0961679
220 0.0889527
225 0.175642
230 0.116271
235 0.208167
240 0.0933755
245 0.0615885
250 0.068747
255 0.218878
260 0.0658665
265 0.181791
270 0.164422
275 0.206737
280 0.0967298
285 0.106743
290 0.148412
295 0.106154
300 0.178917
305 0.0927329
310 0.142351
315 0.149429
320 0.133619
325 0.0605189
330 0.102636
335 0.168087
340 0.250262
345 0.0856273
350 0.0886903
355 0.0859331
360 0.104816
365 0.0736581
370 0.0489936
375 0.104472
380 0.0936147
385 0.117498
390 0.0768783
395 0.236694
400 0.141414
405 0.185192
410 0.126517
415 0.130367
420 0.245445
425 0.148937
430 0.230249
435 0.160932
440 0.0653371
445 0.137088
450 0.133171
455 0.166197
460 0.117954
465 0.140852
470 0.112477
475 0.141866
480 0.23444
485 0.205822
490 0.132285
495 0.191551
500 0.180307
505 0.159705
510 0.126567
515 0.125641
520 0.114213
525 0.0901074
530 0.338755
535 0.185631
540 0.225967
545 0.165428
550 0.134361
555 0.33516
560 0.136768
565 0.352218
570 0.317261
575 0.587347
580 12.4289
585 303.217
590 572.878
595 171.99
600 28.0106
Ex : 598
200 0.0696012
205 0.153457
210 0.0385749
215 0.0569482
220 0.155305
225 0.165571
230 0.190107
235 0.0968756
240 0.114653
245 0.13158
250 0.138677
255 0.124993
260 0.17091
265 0.158278
270 0.0704013
275 0.216899
280 0.0773663
285 0.102035
290 0.0996896
295 0.0946481
300 0.0836208
305 0.100745
310 0.0903057
315 0.0854531
320 0.127423
325 0.140568
330 0.127707
335 0.0879739
340 0.184366
345 0.190263
350 0.0897429
355 0.065231
360 0.180693
365 0.269854
370 0.186869
375 0.130183
380 0.156296
385 0.121658
390 0.129965
395 0.203412
400 0.217449
405 0.151754
410 0.0689812
415 0.12995
420 0.153983
425 0.163756
430 0.247849
435 0.145483
440 0.162848
445 0.0951149
450 0.176382
455 0.109861
460 0.107767
465 0.108407
470 0.131419
475 0.131655
480 0.0919696
485 0.156297
490 0.208218
495 0.191933
500 0.123509
505 0.0761262
510 0.212198
515 0.180815
520 0.255441
525 0.307868
530 0.193773
535 0.259631
540 0.13484
545 0.225966
550 0.159166
555 0.232158
560 0.23241
565 0.231656
570 0.224275
575 0.235944
580 0.420099
585 11.6247
590 275.15
595 495.356
600 317.793
Ex : 603
200 0.112629
205 0.0749175
210 0.123248
215 0.0963606
220 0.0554611
225 0.106053
230 0.150416
235 0.125199
240 0.0705781
245 0.143164
250 0.134663
255 0.255528
260 0.121982
265 0.154601
270 0.0865453
275 0.0672109
280 0.0848395
285 0.0891653
290 0.155464
295 0.0906457
300 0.12705
305 0.0659057
310 0.147882
315 0.191314
320 0.190017
325 0.220176
330 0.155635
335 0.0900502
340 0.132361
345 0.193533
350 0.198284
355 0.158107
360 0.0621256
365 0.24318
370 0.131695
375 0.178669
380 0.0713175
385 0.159333
390 0.129838
395 0.201743
400 0.158129
405 0.217404
410 0.266432
415 0.190033
420 0.237188
425 0.184051
430 0.12046
435 0.152282
440 0.0784648
445 0.180526
450 0.148375
455 0.13191
460 0.0568578
465 0.120836
470 0.135304
475 0.0902008
480 0.432056
485 0.117064
490 0.18608
495 0.0984277
500 0.20876
505 0.124517
510 0.161987
515 0.108672
520 0.174952
525 0.260737
530 0.152346
535 0.127716
540 0.189512
545 0.140642
550 0.161267
555 0.155163
560 0.170402
565 0.116226
570 0.104635
575 0.212228
580 0.325278
585 0.371369
590 10.1333
595 237.273
600 469.469
