File format V 1.0
jeu. 5. janv. 17:04:05 2017
Operator : 
Comments : 

=============================================
SpectroFluorometer parameters
Mode : 3D measurement
Data : Fluorescence
Phospho. : Ordinary
Spectrum : Fluorescence

Scan speed : 2400 nm/mn
Response : 100 ms
PM Voltage : 700 V
Shutter : On

Lambda Ex. Start : 203
Lambda Ex. End : 603
Lambda Ex. Step : 5
Ex. Slit : 5 nm

Lambda Em. Start : 200
Lambda Em. End : 600
Lambda Em. Step : 5
Em. Slit : 5 nm

Repetition : 1
Decal lambda em : 10
=============================================
DATA
Ex : 203
200 10.2545
205 6.64965
210 4.4061
215 4.98489
220 2.23573
225 3.19707
230 5.27462
235 2.88814
240 4.29085
245 3.59547
250 7.36106
255 5.02032
260 3.45879
265 4.42078
270 6.52114
275 5.78237
280 5.7677
285 3.77447
290 5.82577
295 2.67372
300 4.58369
305 4.79521
310 3.52506
315 4.77007
320 3.51714
325 3.76549
330 4.45965
335 3.74801
340 3.32479
345 4.41856
350 3.31782
355 3.89397
360 4.57153
365 2.70124
370 3.18898
375 3.85267
380 3.91168
385 3.48193
390 5.05448
395 4.13704
400 4.71348
405 2.32433
410 3.36343
415 4.62841
420 3.3258
425 4.28453
430 5.9188
435 4.30467
440 4.10852
445 4.72357
450 3.65335
455 6.43259
460 2.6595
465 4.38263
470 5.25152
475 3.36969
480 2.59897
485 4.26839
490 3.8533
495 5.92684
500 5.53153
505 2.47942
510 5.98554
515 9.5044
520 5.4715
525 3.727
530 4.97699
535 5.73397
540 3.95956
545 1.9145
550 2.515
555 4.46324
560 4.36199
565 2.1755
570 2.59793
575 3.40289
580 5.03382
585 4.13966
590 4.56906
595 4.16701
600 0.47419
Ex : 208
200 3.72781
205 5.84885
210 4.71526
215 3.10498
220 3.50184
225 8.07145
230 3.9081
235 3.80004
240 3.19846
245 3.50877
250 3.55923
255 3.36461
260 3.77402
265 4.96388
270 6.91432
275 5.9837
280 6.57586
285 5.90491
290 3.56075
295 6.48043
300 4.13456
305 7.96816
310 4.11396
315 5.80598
320 3.94073
325 3.27773
330 4.16046
335 2.79162
340 6.20093
345 4.31331
350 5.22616
355 3.88713
360 4.7742
365 3.08133
370 2.63411
375 3.90326
380 3.90241
385 1.58272
390 3.43837
395 5.96882
400 4.12622
405 4.20628
410 5.02504
415 6.61563
420 4.35499
425 2.84824
430 3.88467
435 6.37805
440 2.42731
445 3.11713
450 4.22543
455 8.95272
460 4.50111
465 5.71934
470 4.92322
475 3.14453
480 4.5819
485 5.00249
490 4.49916
495 4.92585
500 3.22917
505 4.2292
510 4.80734
515 4.1304
520 4.08341
525 3.4517
530 5.59185
535 3.24718
540 5.46519
545 4.50887
550 2.89986
555 3.80096
560 3.13411
565 3.4411
570 3.36945
575 3.6528
580 3.00131
585 7.64991
590 2.39298
595 4.65902
600 2.59799
Ex : 213
200 4.38037
205 2.83286
210 2.85804
215 4.02135
220 5.38267
225 3.95414
230 3.46009
235 2.5336
240 3.37382
245 4.72901
250 2.40131
255 7.60616
260 7.58937
265 4.14687
270 4.23299
275 2.54226
280 3.35346
285 7.84234
290 5.27995
295 5.70191
300 3.81937
305 5.94255
310 4.12722
315 3.06645
320 5.07717
325 3.31203
330 2.06337
335 4.11393
340 3.04668
345 3.56781
350 4.45883
355 3.72746
360 2.44978
365 4.97784
370 8.28406
375 4.1559
380 2.95648
385 5.11302
390 6.79582
395 2.98885
400 6.97322
405 4.87777
410 5.38298
415 3.22847
420 3.38685
425 3.6669
430 6.6836
435 5.79654
440 3.58628
445 6.91616
450 4.1103
455 3.0103
460 6.25898
465 5.36618
470 4.47927
475 7.83345
480 4.54111
485 3.33988
490 3.67508
495 3.51424
500 5.86099
505 3.56396
510 3.64575
515 2.51512
520 5.63688
525 1.66313
530 2.33185
535 2.97088
540 2.72915
545 3.3088
550 2.88032
555 4.61656
560 5.95766
565 4.20116
570 3.63449
575 1.95003
580 3.11093
585 3.13078
590 3.77296
595 4.40958
600 1.03352
Ex : 218
200 4.68072
205 2.94957
210 3.04506
215 4.78766
220 3.30011
225 4.59189
230 5.88696
235 6.08042
240 3.85045
245 5.34807
250 4.69962
255 4.24611
260 3.12598
265 6.22207
270 3.32056
275 5.12398
280 8.01486
285 5.26442
290 2.33477
295 4.4303
300 6.23118
305 5.1348
310 3.38258
315 7.73842
320 4.17984
325 3.08447
330 6.87722
335 4.01941
340 8.27112
345 5.54427
350 4.19985
355 7.46362
360 5.95452
365 4.08895
370 5.09212
375 2.90047
380 4.5355
385 2.66196
390 5.46172
395 3.35879
400 6.49702
405 5.47903
410 5.68159
415 4.02016
420 5.29132
425 3.28636
430 2.99307
435 2.90253
440 4.56316
445 3.10014
450 3.34126
455 4.10445
460 7.36985
465 6.64253
470 4.18723
475 3.71352
480 4.26467
485 4.87412
490 3.90368
495 5.68242
500 3.68505
505 4.34316
510 5.22726
515 3.84773
520 3.44523
525 4.47284
530 4.15048
535 4.34333
540 4.69233
545 5.31602
550 2.413
555 5.48694
560 3.78866
565 5.68468
570 4.25577
575 3.82917
580 3.70071
585 3.19121
590 2.90394
595 4.63869
600 0.527865
Ex : 223
200 2.69892
205 2.12847
210 3.46701
215 6.59796
220 4.20855
225 2.01235
230 6.66077
235 5.93081
240 3.73357
245 4.15958
250 3.10367
255 2.99221
260 2.9538
265 3.85039
270 3.64369
275 5.94826
280 5.42441
285 3.9609
290 3.03382
295 7.59508
300 4.11545
305 3.13742
310 2.40605
315 4.94151
320 5.68929
325 4.36753
330 2.7538
335 2.31413
340 2.5819
345 3.80908
350 2.40004
355 4.42119
360 4.38215
365 3.59776
370 3.28465
375 3.00111
380 3.26551
385 3.89152
390 2.21038
395 4.32597
400 5.32885
405 4.59953
410 6.87732
415 3.36951
420 3.3109
425 3.34873
430 3.17235
435 3.30992
440 3.19048
445 4.3259
450 3.74168
455 1.80041
460 5.53882
465 4.78371
470 2.95264
475 3.44549
480 6.65153
485 3.80878
490 4.28648
495 3.38947
500 2.5852
505 4.16081
510 2.92447
515 4.32858
520 5.2857
525 3.68944
530 2.20256
535 2.48777
540 3.84852
545 3.51243
550 3.36983
555 3.70081
560 3.19622
565 2.76198
570 3.05755
575 3.66203
580 2.9622
585 3.64701
590 6.58735
595 2.98076
600 0.3392
Ex : 228
200 3.10695
205 3.73906
210 3.38794
215 4.20154
220 5.35224
225 6.59355
230 3.00255
235 2.04592
240 2.98656
245 3.98527
250 3.32885
255 5.35519
260 6.27813
265 3.59221
270 2.20077
275 4.66701
280 3.72338
285 2.82688
290 3.27261
295 2.23618
300 3.79444
305 3.86649
310 3.3518
315 2.75762
320 2.24376
325 5.2589
330 2.54402
335 4.24913
340 5.07753
345 3.2965
350 6.6442
355 2.33212
360 3.57751
365 2.60082
370 1.99327
375 3.27315
380 4.42297
385 4.69087
390 5.90789
395 3.34947
400 2.06494
405 4.34286
410 4.08433
415 3.07041
420 3.56599
425 3.04565
430 3.02557
435 2.59573
440 3.74869
445 3.47573
450 6.17078
455 2.59244
460 3.51178
465 2.36681
470 4.09109
475 5.76695
480 2.28096
485 1.72841
490 3.51376
495 2.88786
500 1.89764
505 2.88958
510 3.92691
515 2.95778
520 3.1568
525 2.59288
530 3.94641
535 3.65069
540 3.83153
545 3.76832
550 4.27542
555 6.02141
560 6.86456
565 3.37882
570 5.79235
575 4.08102
580 3.92392
585 1.72191
590 3.43453
595 2.52429
600 15.7072
Ex : 233
200 3.84456
205 2.2099
210 2.38983
215 1.72334
220 5.13805
225 2.59921
230 3.95306
235 2.62804
240 2.19554
245 3.40079
250 3.24401
255 3.96714
260 3.06694
265 2.8346
270 4.29946
275 2.48653
280 2.32771
285 3.50821
290 3.01481
295 6.0325
300 3.90683
305 4.17478
310 3.24889
315 4.62264
320 6.74289
325 3.23864
330 2.17343
335 1.88588
340 7.06087
345 4.46295
350 7.7794
355 2.38217
360 2.2889
365 2.42001
370 2.34164
375 3.53578
380 3.08346
385 2.6673
390 2.84006
395 4.51633
400 6.15071
405 2.68815
410 3.62803
415 3.42873
420 4.54991
425 2.01102
430 4.17691
435 3.56258
440 3.26606
445 5.25552
450 2.52905
455 2.34053
460 2.77878
465 3.26401
470 4.22711
475 3.16248
480 2.42769
485 3.0972
490 2.7202
495 4.39766
500 3.64362
505 5.33747
510 3.59341
515 2.06255
520 4.13844
525 4.77598
530 3.25158
535 3.75236
540 2.54792
545 2.76453
550 5.14046
555 2.69677
560 3.13644
565 2.47792
570 4.08191
575 3.61902
580 2.75584
585 2.53139
590 2.93749
595 1.79282
600 10.8385
Ex : 238
200 2.88546
205 5.27034
210 2.76793
215 3.92954
220 2.9133
225 2.78872
230 3.0505
235 2.3029
240 1.80866
245 2.13161
250 2.85339
255 6.68814
260 2.92829
265 1.95515
270 3.54681
275 1.99878
280 3.21889
285 4.3441
290 3.42964
295 2.30695
300 3.22938
305 2.36352
310 1.84534
315 4.66645
320 2.49066
325 2.44922
330 2.64328
335 4.36762
340 2.16957
345 1.87421
350 3.73348
355 3.00404
360 2.76576
365 2.89792
370 3.18067
375 3.50005
380 2.93203
385 3.42534
390 2.78101
395 3.42248
400 2.80599
405 4.85506
410 3.09323
415 2.13701
420 2.82084
425 4.61407
430 3.08763
435 4.87181
440 2.68049
445 4.25188
450 3.70794
455 2.76153
460 3.03194
465 5.82485
470 4.46142
475 3.27556
480 2.77758
485 5.4401
490 3.9898
495 3.07981
500 2.82146
505 3.07538
510 4.53718
515 2.5867
520 2.55289
525 3.65808
530 4.26754
535 3.1523
540 1.60022
545 2.47278
550 2.6258
555 2.44414
560 2.54104
565 1.99051
570 3.65952
575 1.9174
580 2.60413
585 3.09843
590 1.9189
595 3.97571
600 16.9358
Ex : 243
200 3.77049
205 2.13197
210 3.29777
215 2.9936
220 1.64115
225 3.0306
230 3.61997
235 2.04881
240 2.11944
245 2.71456
250 3.92296
255 4.61527
260 2.70919
265 2.23262
270 4.12615
275 4.33467
280 2.35179
285 2.72201
290 4.66843
295 2.07496
300 2.49818
305 1.96842
310 3.02096
315 3.72487
320 2.21673
325 1.36277
330 1.5316
335 3.39581
340 2.22789
345 2.63784
350 2.55468
355 3.74071
360 4.62965
365 2.99423
370 2.05331
375 2.55332
380 2.37367
385 2.94659
390 2.31806
395 2.16949
400 5.88574
405 3.49287
410 1.62161
415 1.96043
420 3.30188
425 3.13128
430 2.997
435 2.1858
440 3.89202
445 1.39475
450 1.93112
455 2.88875
460 2.56463
465 2.56297
470 2.97329
475 3.37522
480 4.3327
485 2.33992
490 3.03998
495 2.80561
500 2.65734
505 2.58223
510 2.67834
515 3.28949
520 4.00561
525 1.75778
530 2.60386
535 2.11834
540 2.58317
545 2.67702
550 1.74284
555 1.982
560 2.09386
565 2.76656
570 3.12871
575 2.59468
580 3.0095
585 3.01986
590 2.88508
595 2.17486
600 0.247491
Ex : 248
200 1.22535
205 1.48882
210 1.92066
215 2.78825
220 3.73059
225 1.56218
230 2.07383
235 1.81493
240 1.69498
245 2.10991
250 2.39449
255 2.04801
260 2.92355
265 1.67874
270 1.82637
275 2.31597
280 2.31695
285 2.13383
290 3.11229
295 1.91043
300 1.34475
305 2.00572
310 1.77439
315 2.20986
320 2.58423
325 3.67967
330 2.457
335 2.99849
340 1.47835
345 3.18072
350 2.04543
355 1.54588
360 2.56255
365 1.6971
370 3.28044
375 2.78353
380 2.58282
385 2.10338
390 3.2879
395 2.93271
400 3.21464
405 3.6092
410 2.52205
415 1.63681
420 2.53516
425 3.12069
430 3.10592
435 2.31971
440 2.11889
445 3.92489
450 2.91313
455 3.0026
460 1.40698
465 1.47082
470 1.8548
475 3.549
480 5.1144
485 4.76803
490 2.84671
495 2.11469
500 1.66202
505 2.0988
510 2.03819
515 2.13261
520 3.25993
525 2.04525
530 1.60844
535 1.68063
540 1.98225
545 1.31628
550 2.10398
555 1.99939
560 1.66869
565 2.13353
570 1.92992
575 2.17494
580 2.39842
585 2.29272
590 2.52163
595 2.42301
600 0.275729
Ex : 253
200 1.79272
205 1.50139
210 1.49764
215 2.06979
220 2.70901
225 1.47342
230 1.70129
235 2.12372
240 2.21014
245 2.07561
250 1.91125
255 0.968304
260 1.21223
265 1.7251
270 1.83604
275 1.28695
280 1.62346
285 1.38798
290 2.18821
295 2.79128
300 2.46225
305 2.25616
310 2.66252
315 1.57612
320 2.22464
325 2.51467
330 1.45643
335 2.9941
340 2.08165
345 1.81631
350 1.77792
355 2.52284
360 1.96816
365 1.60141
370 1.24328
375 2.21759
380 1.87451
385 1.94399
390 1.47833
395 3.3274
400 2.2967
405 2.20608
410 2.36506
415 3.43018
420 3.2479
425 1.58782
430 3.40349
435 2.49777
440 2.16839
445 1.55314
450 2.45059
455 2.03851
460 2.83317
465 2.12365
470 1.79689
475 3.00788
480 2.24912
485 3.44727
490 2.21961
495 2.03238
500 2.1518
505 1.63641
510 2.45285
515 2.73834
520 2.76708
525 2.2806
530 2.19099
535 2.17812
540 4.04988
545 1.25844
550 2.43675
555 2.33582
560 1.14454
565 1.56336
570 1.94523
575 1.56216
580 2.22805
585 2.44493
590 2.19069
595 2.07234
600 0.235824
Ex : 258
200 1.19954
205 1.14677
210 0.847611
215 1.79733
220 2.75806
225 2.28999
230 2.40903
235 1.08157
240 2.21793
245 1.88639
250 2.1964
255 1.35871
260 2.32612
265 1.40267
270 1.25692
275 1.79165
280 1.41965
285 1.09502
290 3.35572
295 1.7203
300 1.58781
305 2.58924
310 1.5002
315 2.51353
320 2.17526
325 1.79736
330 1.33542
335 2.60063
340 1.50385
345 2.13247
350 1.96166
355 1.89413
360 1.50817
365 1.8097
370 1.38104
375 2.48319
380 1.15267
385 1.46244
390 1.77679
395 1.69677
400 2.50413
405 2.40458
410 1.89567
415 1.6135
420 2.39199
425 2.32228
430 1.8843
435 1.99277
440 2.27386
445 2.97779
450 2.23147
455 1.32141
460 3.09523
465 1.73414
470 1.83867
475 1.05631
480 2.56724
485 1.65599
490 2.35682
495 1.77212
500 1.05571
505 2.68505
510 2.75601
515 1.44869
520 1.2766
525 2.68743
530 2.28432
535 1.87985
540 1.70323
545 1.12444
550 2.0082
555 1.58724
560 1.05057
565 1.60189
570 1.49951
575 1.45319
580 1.29829
585 1.89973
590 1.75227
595 1.6582
600 0.188697
Ex : 263
200 0.686411
205 0.9517
210 1.01197
215 0.840521
220 1.31066
225 1.66341
230 1.36672
235 0.942228
240 1.30181
245 0.811152
250 0.674484
255 1.1468
260 0.721304
265 0.8972
270 1.17586
275 1.98208
280 0.987184
285 0.737064
290 1.51236
295 1.20968
300 1.22692
305 2.47001
310 1.14869
315 1.06061
320 1.31977
325 1.03799
330 0.969383
335 1.28876
340 0.885418
345 0.935212
350 2.22259
355 1.60847
360 1.71636
365 1.49324
370 1.89636
375 1.02749
380 1.16849
385 1.71864
390 1.0427
395 1.63357
400 1.50965
405 2.33498
410 2.10017
415 2.72036
420 1.5316
425 1.66241
430 1.98503
435 1.34482
440 2.54173
445 1.19732
450 0.825698
455 0.859604
460 1.81959
465 0.834992
470 1.36237
475 1.15102
480 1.21256
485 0.98221
490 1.48594
495 1.64249
500 0.995012
505 1.39593
510 1.16332
515 1.45857
520 1.5767
525 1.1152
530 1.03262
535 1.27384
540 1.04898
545 2.16372
550 0.977496
555 1.6069
560 1.76177
565 1.21056
570 0.742931
575 0.722234
580 1.43663
585 0.954178
590 1.62958
595 1.44519
600 2.08457
Ex : 268
200 0.898491
205 1.08719
210 1.07982
215 1.09401
220 1.06261
225 0.64938
230 0.643508
235 0.97664
240 0.784997
245 0.810542
250 0.729272
255 0.746424
260 0.816488
265 1.1708
270 0.572662
275 0.745892
280 1.03983
285 0.384688
290 1.05272
295 0.80851
300 0.873442
305 0.814555
310 0.678132
315 0.491988
320 0.51601
325 1.35488
330 1.24041
335 1.0261
340 0.767728
345 0.54989
350 0.932621
355 1.06566
360 0.874978
365 1.52837
370 1.17232
375 0.851231
380 1.71289
385 1.82455
390 1.28659
395 1.47078
400 1.13254
405 1.35669
410 1.60386
415 1.80325
420 1.97023
425 1.27359
430 0.946018
435 0.862056
440 1.25824
445 1.05189
450 0.955766
455 1.13111
460 1.42336
465 0.631509
470 0.461892
475 0.913802
480 1.54758
485 1.61133
490 1.41634
495 0.705378
500 1.9254
505 0.795578
510 1.38864
515 0.789472
520 1.11005
525 0.734739
530 0.906779
535 1.54374
540 0.981425
545 1.5011
550 1.65615
555 0.910462
560 1.35681
565 1.17665
570 0.939078
575 0.780477
580 0.474723
585 0.81683
590 1.33437
595 1.4462
600 2.7678
Ex : 273
200 0.739618
205 1.10903
210 0.614013
215 0.852114
220 0.689464
225 0.609981
230 0.683634
235 1.10639
240 0.752481
245 0.743039
250 0.337174
255 0.939492
260 0.658889
265 1.55538
270 0.96079
275 0.677595
280 0.423359
285 1.05839
290 1.08243
295 0.57328
300 0.817198
305 0.596519
310 0.58047
315 0.583007
320 0.631576
325 0.81556
330 0.872996
335 0.626893
340 0.542723
345 0.988569
350 0.990615
355 0.700836
360 0.679537
365 0.820531
370 1.18904
375 1.14505
380 1.01045
385 1.19555
390 1.67631
395 1.12152
400 1.2537
405 1.26955
410 1.20197
415 0.936895
420 1.41472
425 1.36818
430 1.72728
435 1.05265
440 1.03919
445 1.15365
450 1.23453
455 0.92946
460 0.966995
465 0.894679
470 0.827163
475 1.13588
480 0.970401
485 0.844253
490 0.999514
495 0.759447
500 0.72529
505 0.712835
510 0.885472
515 0.739321
520 0.894697
525 1.05075
530 0.719212
535 1.29492
540 0.992365
545 0.967554
550 0.867698
555 0.874294
560 0.891247
565 0.768078
570 0.522893
575 0.980676
580 0.607473
585 1.16843
590 0.458175
595 0.558541
600 0.0635598
Ex : 278
200 0.492122
205 0.596148
210 0.495941
215 0.456845
220 0.471942
225 0.49803
230 0.480009
235 0.380217
240 0.410057
245 0.631492
250 0.674216
255 0.450165
260 0.717935
265 0.60814
270 0.8511
275 0.569494
280 0.598979
285 0.669721
290 0.537759
295 0.72201
300 0.774922
305 0.417251
310 0.661196
315 1.28816
320 0.639375
325 0.610251
330 0.557811
335 0.566391
340 0.752535
345 0.702231
350 0.722327
355 0.646146
360 0.783807
365 0.800942
370 0.932259
375 0.822714
380 0.845552
385 1.00716
390 1.23542
395 1.14344
400 0.898923
405 0.75413
410 0.998038
415 1.11739
420 0.920636
425 1.06646
430 1.083
435 0.882373
440 1.1604
445 1.16568
450 0.829186
455 1.02088
460 1.08057
465 0.896334
470 0.907937
475 0.943784
480 0.905715
485 0.713563
490 0.656036
495 1.4696
500 0.626323
505 0.392481
510 0.599885
515 0.767509
520 1.15358
525 0.593075
530 0.806827
535 0.41151
540 0.681901
545 0.694194
550 0.821666
555 1.12713
560 0.586616
565 0.514382
570 0.712637
575 0.665578
580 0.575207
585 0.545552
590 0.838319
595 0.712313
600 0.0810585
Ex : 283
200 0.817365
205 0.296215
210 0.768939
215 0.678305
220 0.402939
225 0.446771
230 0.407803
235 0.318822
240 0.3018
245 0.44558
250 0.353525
255 0.871772
260 0.524365
265 0.409255
270 0.865495
275 0.494525
280 0.393683
285 0.468577
290 0.56603
295 0.568278
300 0.446133
305 0.412093
310 0.443925
315 0.44181
320 0.436345
325 0.621838
330 0.688503
335 0.474169
340 0.489263
345 1.03869
350 0.595438
355 1.14328
360 0.727534
365 0.647048
370 1.06437
375 1.07149
380 1.13072
385 0.975307
390 0.932836
395 1.01684
400 0.928406
405 0.866421
410 0.928
415 0.804132
420 0.958623
425 1.10385
430 1.01801
435 0.912817
440 0.850691
445 0.983009
450 0.859148
455 0.520959
460 0.872202
465 0.554513
470 0.52274
475 0.43143
480 0.468264
485 0.429004
490 0.559283
495 0.680485
500 0.472138
505 0.854746
510 0.449273
515 0.755317
520 0.25421
525 0.313853
530 0.537967
535 0.785304
540 0.534807
545 0.544493
550 0.47678
555 0.735262
560 0.803923
565 0.565342
570 0.378815
575 0.528959
580 0.500517
585 0.326055
590 0.784057
595 0.368288
600 2.05064
Ex : 288
200 0.520992
205 0.317575
210 0.411291
215 0.462441
220 0.41653
225 0.349992
230 0.390558
235 0.427071
240 0.326143
245 0.446926
250 0.775986
255 0.796249
260 0.441769
265 0.340405
270 0.309143
275 0.557213
280 0.490766
285 0.478366
290 0.218781
295 0.304119
300 0.358338
305 0.352527
310 0.343141
315 0.378409
320 0.331514
325 0.412527
330 0.378072
335 0.38678
340 0.381318
345 0.349059
350 0.477698
355 0.363462
360 0.667912
365 0.605913
370 0.648847
375 0.601474
380 0.717873
385 0.904999
390 0.770198
395 1.01087
400 1.00124
405 1.10871
410 0.83141
415 1.18028
420 1.11458
425 0.836805
430 0.644558
435 0.960118
440 0.895158
445 0.758145
450 0.655006
455 0.638485
460 0.925891
465 0.557577
470 0.493039
475 0.468307
480 0.662026
485 0.856946
490 0.56424
495 0.840266
500 0.420313
505 0.613226
510 0.70465
515 0.426201
520 0.616666
525 0.430159
530 0.414794
535 0.615784
540 0.424897
545 0.535084
550 0.411171
555 0.430699
560 0.799316
565 0.496971
570 0.786537
575 0.890442
580 0.387876
585 0.306865
590 0.541
595 0.420156
600 0.0478122
Ex : 293
200 0.345347
205 0.432
210 0.115759
215 0.43231
220 0.603675
225 0.420097
230 0.527472
235 0.346083
240 0.362293
245 0.389431
250 0.238895
255 0.332327
260 0.330158
265 0.353596
270 0.389392
275 0.297719
280 0.262515
285 0.538825
290 0.418874
295 0.514523
300 0.379618
305 0.265351
310 0.267794
315 0.364553
320 0.35613
325 0.189205
330 0.464391
335 0.671172
340 0.565284
345 0.42258
350 0.261067
355 0.499358
360 0.369659
365 0.513317
370 0.746989
375 0.562339
380 0.523469
385 0.507714
390 0.547229
395 0.785694
400 0.64377
405 1.04937
410 0.952754
415 0.676624
420 0.749091
425 0.75812
430 0.992233
435 0.821493
440 0.846394
445 0.730708
450 1.1531
455 0.75592
460 0.41394
465 0.569306
470 0.547161
475 0.312442
480 0.531944
485 0.396927
490 0.273662
495 0.29734
500 0.468399
505 0.574344
510 0.277622
515 0.458773
520 0.550817
525 0.422237
530 0.40947
535 0.619937
540 0.439718
545 0.373331
550 0.297201
555 0.627514
560 0.381386
565 0.481909
570 0.342335
575 0.42349
580 0.581069
585 0.471039
590 0.378881
595 0.312954
600 2.21947
Ex : 298
200 0.425492
205 0.465726
210 0.221064
215 0.249432
220 0.438212
225 0.248277
230 0.428461
235 0.29418
240 0.204675
245 0.297742
250 0.293126
255 0.127545
260 0.269727
265 0.340221
270 0.295732
275 0.341681
280 0.355324
285 0.366975
290 0.378867
295 0.320157
300 0.443969
305 0.493415
310 0.245128
315 0.325382
320 0.332847
325 0.270718
330 0.387383
335 0.19941
340 0.322119
345 0.231311
350 0.62941
355 0.621021
360 0.365793
365 0.524027
370 0.674184
375 0.428527
380 1.03593
385 0.782952
390 0.709523
395 0.869542
400 0.96524
405 0.928134
410 0.697815
415 0.861672
420 0.991342
425 0.821939
430 0.858986
435 0.776723
440 0.632563
445 0.559395
450 0.602412
455 0.75657
460 0.564178
465 0.641129
470 0.41164
475 0.382946
480 0.565046
485 0.397506
490 0.46795
495 0.462236
500 0.422269
505 0.6749
510 0.552548
515 0.513688
520 0.38504
525 0.372738
530 0.347153
535 0.482607
540 0.375959
545 0.439745
550 0.416182
555 0.343875
560 0.342937
565 0.341312
570 0.451086
575 0.435423
580 0.616703
585 0.748946
590 0.470533
595 0.515048
600 1.57538
Ex : 303
200 0.398793
205 0.251703
210 0.236886
215 0.218841
220 0.145421
225 0.270577
230 0.311525
235 0.211477
240 0.318743
245 0.417832
250 0.254942
255 0.254433
260 0.423061
265 0.288947
270 0.451025
275 0.21278
280 0.238311
285 0.183998
290 0.296951
295 0.581153
300 0.503631
305 0.262766
310 0.20707
315 0.417352
320 0.252895
325 0.252688
330 0.225891
335 0.294296
340 0.395978
345 0.296098
350 0.480776
355 0.39631
360 0.474708
365 0.595429
370 0.546495
375 0.718904
380 0.849224
385 0.658489
390 0.793138
395 0.689779
400 0.906658
405 0.78177
410 0.649011
415 0.889191
420 0.685161
425 0.653243
430 0.787809
435 0.648139
440 0.674273
445 0.571972
450 0.597605
455 0.600957
460 0.532298
465 0.4579
470 0.57784
475 0.483194
480 0.382322
485 0.500179
490 0.321263
495 0.344615
500 0.519948
505 0.637677
510 0.388783
515 0.539304
520 0.262306
525 0.323923
530 0.391123
535 0.185158
540 0.317794
545 0.397143
550 0.370495
555 0.255687
560 0.328587
565 0.310209
570 0.253072
575 0.303778
580 0.336232
585 0.179551
590 0.282625
595 0.460133
600 1.6623
Ex : 308
200 0.315957
205 0.249866
210 0.269499
215 0.306544
220 0.239635
225 0.210122
230 0.180879
235 0.17634
240 0.140412
245 0.369764
250 0.239292
255 0.237617
260 0.260882
265 0.140028
270 0.370352
275 0.134997
280 0.173703
285 0.187182
290 0.174959
295 0.213489
300 0.274054
305 0.482128
310 0.245554
315 0.218701
320 0.21164
325 0.402938
330 0.207387
335 0.439747
340 0.312773
345 0.576316
350 0.30645
355 0.425707
360 0.462723
365 0.470231
370 0.549848
375 0.555186
380 0.652617
385 0.530881
390 0.710632
395 0.789388
400 0.73727
405 0.892715
410 0.815738
415 0.948953
420 0.69446
425 0.560564
430 0.795114
435 0.576158
440 0.533055
445 0.595081
450 0.319399
455 0.549909
460 0.628394
465 0.408779
470 0.5465
475 0.42219
480 0.507173
485 0.476852
490 0.241032
495 0.656307
500 0.462497
505 0.458781
510 0.289095
515 0.525268
520 0.283363
525 0.258147
530 0.176016
535 0.263142
540 0.413935
545 0.376736
550 0.291123
555 0.254444
560 0.231991
565 0.245188
570 0.282369
575 0.217735
580 0.304946
585 0.329157
590 0.184425
595 0.217991
600 0.285455
Ex : 313
200 0.174697
205 0.236699
210 0.209552
215 0.322902
220 0.186242
225 0.192708
230 0.174281
235 0.146314
240 0.166627
245 0.167722
250 0.223446
255 0.167552
260 0.129291
265 0.236543
270 0.278809
275 0.377155
280 0.208428
285 0.162214
290 0.127462
295 0.314051
300 0.187034
305 0.234537
310 0.340605
315 0.331565
320 0.188427
325 0.299369
330 0.200213
335 0.207019
340 0.272898
345 0.344143
350 0.333737
355 0.427152
360 0.440903
365 0.605984
370 0.446644
375 0.740311
380 0.92426
385 1.21855
390 1.2423
395 1.3847
400 1.33373
405 1.53534
410 1.45558
415 1.60035
420 1.41412
425 1.09624
430 1.32793
435 1.13234
440 1.12687
445 1.01526
450 1.00586
455 0.969553
460 0.689082
465 0.756441
470 0.763407
475 0.651499
480 0.450678
485 0.741255
490 0.675154
495 0.447515
500 0.367092
505 0.418953
510 0.287316
515 0.397294
520 0.394933
525 0.252175
530 0.336722
535 0.208497
540 0.125322
545 0.412817
550 0.1813
555 0.210769
560 0.348381
565 0.292134
570 0.130823
575 0.23796
580 0.16363
585 0.169511
590 0.171969
595 0.147154
600 0.687079
Ex : 318
200 0.247454
205 0.156211
210 0.171247
215 0.124223
220 0.215278
225 0.394199
230 0.12452
235 0.122465
240 0.135942
245 0.131585
250 0.102412
255 0.131951
260 0.151241
265 0.0781005
270 0.298688
275 0.23425
280 0.136356
285 0.18908
290 0.100258
295 0.211749
300 0.218426
305 0.301028
310 0.393022
315 0.421869
320 0.267772
325 0.194665
330 0.287692
335 0.643321
340 0.870373
345 1.55464
350 1.96702
355 2.36411
360 3.58373
365 4.94374
370 5.61668
375 6.8051
380 7.73567
385 8.53653
390 9.13277
395 9.96881
400 10.4679
405 11.2049
410 10.5048
415 11.1306
420 10.7942
425 10.1573
430 10.0412
435 8.99707
440 8.85055
445 8.35205
450 8.50616
455 7.64668
460 6.66314
465 6.18193
470 5.92513
475 4.90426
480 4.43013
485 4.10985
490 3.56287
495 2.6881
500 2.57791
505 2.09058
510 1.89821
515 1.73117
520 1.26201
525 1.12564
530 1.10502
535 0.849838
540 0.730587
545 0.815717
550 0.61138
555 0.542707
560 0.374666
565 0.393935
570 0.396747
575 0.223518
580 0.335422
585 0.247957
590 0.206586
595 0.191993
600 0.958983
Ex : 323
200 0.15516
205 0.157584
210 0.134344
215 0.133261
220 0.194627
225 0.198691
230 0.168152
235 0.204276
240 0.194917
245 0.226021
250 0.118561
255 0.115729
260 0.177097
265 0.106622
270 0.164228
275 0.154727
280 0.14539
285 0.217945
290 0.273397
295 0.194417
300 0.164561
305 0.310355
310 0.228414
315 1.99712
320 9.76737
325 4.75227
330 1.73133
335 2.70229
340 4.10965
345 5.74873
350 9.00481
355 13.9047
360 16.2593
365 19.0984
370 22.8384
375 25.8965
380 29.6888
385 33.1815
390 36.8137
395 39.4991
400 40.1455
405 42.4
410 42.3782
415 42.2933
420 41.1226
425 39.5631
430 37.7535
435 36.4323
440 35.8365
445 33.3317
450 31.0091
455 29.0247
460 26.7048
465 25.4124
470 22.0654
475 20.4095
480 17.7352
485 16.4635
490 14.6947
495 12.812
500 11.3098
505 9.73438
510 8.12632
515 6.51896
520 5.85308
525 4.96104
530 4.42785
535 3.88931
540 3.18721
545 2.75397
550 2.17347
555 2.11058
560 1.41737
565 1.22696
570 0.708348
575 0.710792
580 0.590278
585 0.437639
590 0.422986
595 0.430107
600 0.204259
Ex : 328
200 0.224187
205 0.207804
210 0.156744
215 0.124454
220 0.182851
225 0.129543
230 0.162836
235 0.231818
240 0.194019
245 0.195347
250 0.166996
255 0.174649
260 0.229894
265 0.225949
270 0.187125
275 0.0879745
280 0.133885
285 0.137787
290 0.195723
295 0.213874
300 0.140151
305 0.198237
310 0.150259
315 0.726691
320 24.4946
325 59.9677
330 20.6515
335 5.56558
340 6.00864
345 7.6271
350 10.3033
355 14.8971
360 20.3106
365 23.4877
370 25.9158
375 29.764
380 33.2921
385 35.5461
390 39.4236
395 42.9793
400 43.7443
405 45.2992
410 45.535
415 44.6859
420 43.9473
425 41.7474
430 40.4606
435 38.6429
440 36.4409
445 34.5132
450 31.8913
455 30.3467
460 28.4173
465 25.6057
470 23.6127
475 21.0328
480 18.6903
485 17.6258
490 15.7617
495 13.1775
500 11.7996
505 10.3876
510 8.92504
515 7.74207
520 6.49117
525 5.5584
530 4.88352
535 3.99928
540 3.17871
545 2.85487
550 2.53298
555 2.23891
560 1.71098
565 1.52165
570 1.01397
575 0.959936
580 0.673362
585 0.546363
590 0.436834
595 0.278541
600 0.925957
Ex : 333
200 0.344016
205 0.130117
210 0.0549282
215 0.131758
220 0.140832
225 0.0868941
230 0.143113
235 0.159262
240 0.118445
245 0.0924806
250 0.0967511
255 0.0951913
260 0.166701
265 0.120377
270 0.189445
275 0.110196
280 0.109165
285 0.109827
290 0.123847
295 0.160401
300 0.16092
305 0.104719
310 0.121031
315 0.239484
320 3.84048
325 77.9192
330 138.309
335 39.0363
340 7.83886
345 5.69282
350 6.40717
355 7.48635
360 11.0121
365 16.3876
370 17.9688
375 17.7805
380 18.1375
385 20.8115
390 21.585
395 24.0284
400 24.4907
405 24.4364
410 24.0922
415 25.1289
420 23.9496
425 23.5371
430 21.9791
435 21.4386
440 20.2678
445 18.6774
450 17.8096
455 16.2368
460 14.5668
465 13.788
470 12.4539
475 11.2822
480 10.3315
485 9.01781
490 8.26385
495 7.21733
500 6.55314
505 5.81784
510 5.16926
515 4.35744
520 3.87695
525 3.23497
530 2.58718
535 2.17557
540 1.83541
545 1.7617
550 1.44663
555 1.3444
560 1.05637
565 0.937293
570 0.662846
575 0.528828
580 0.505573
585 0.470124
590 0.4966
595 0.31456
600 0.475174
Ex : 338
200 0.162991
205 0.102215
210 0.130114
215 0.118267
220 0.15128
225 0.159675
230 0.0849403
235 0.132594
240 0.153835
245 0.144221
250 0.096076
255 0.0641021
260 0.14587
265 0.147351
270 0.0921861
275 0.198148
280 0.172063
285 0.0836025
290 0.171936
295 0.154458
300 0.159811
305 0.125965
310 0.208328
315 0.138285
320 0.224539
325 7.73191
330 127.262
335 187.674
340 48.7551
345 8.32741
350 4.67593
355 4.73143
360 4.61365
365 6.63035
370 11.6482
375 12.2252
380 11.1856
385 10.3633
390 11.0987
395 12.1863
400 12.6783
405 12.5279
410 12.3871
415 12.6423
420 13.0092
425 12.2822
430 11.6906
435 11.0853
440 11.0324
445 10.1192
450 9.04169
455 8.62172
460 8.11762
465 7.10678
470 6.44869
475 6.33803
480 5.94593
485 5.36242
490 5.14909
495 4.49161
500 3.8384
505 3.18106
510 2.78596
515 2.3472
520 2.01638
525 1.91315
530 1.69029
535 1.447
540 1.23659
545 1.14505
550 0.880437
555 0.763959
560 0.648589
565 0.573502
570 0.540077
575 0.439224
580 0.314588
585 0.321853
590 0.200088
595 0.261103
600 0.291545
Ex : 343
200 0.13289
205 0.209973
210 0.210054
215 0.129244
220 0.148155
225 0.185313
230 0.149832
235 0.203473
240 0.206183
245 0.10906
250 0.0609079
255 0.160507
260 0.0932876
265 0.191346
270 0.135338
275 0.15262
280 0.107086
285 0.135241
290 0.0673137
295 0.12722
300 0.115666
305 0.147178
310 0.168827
315 0.143691
320 0.105643
325 0.237355
330 9.95053
335 152.538
340 220.782
345 55.525
350 8.78277
355 4.07029
360 3.19278
365 2.83403
370 4.04963
375 8.41569
380 9.95713
385 7.95871
390 7.13897
395 7.31711
400 7.83678
405 8.17995
410 8.06611
415 8.61712
420 8.51143
425 8.86405
430 8.09759
435 7.84113
440 7.42527
445 7.34937
450 6.67082
455 6.83853
460 6.04689
465 5.67932
470 5.18708
475 5.29142
480 4.63527
485 4.48172
490 3.77822
495 3.7363
500 3.05907
505 2.59931
510 2.34469
515 2.20524
520 1.8974
525 1.71697
530 1.58753
535 1.22932
540 1.12849
545 1.02951
550 0.903022
555 0.870998
560 0.64202
565 0.589575
570 0.449361
575 0.284045
580 0.297791
585 0.351841
590 0.254668
595 0.202803
600 0.0230782
Ex : 348
200 0.152333
205 0.0981421
210 0.0863153
215 0.102629
220 0.0676993
225 0.100763
230 0.166158
235 0.174204
240 0.188223
245 0.147254
250 0.0930896
255 0.113212
260 0.105271
265 0.118988
270 0.0916638
275 0.0976975
280 0.129198
285 0.117889
290 0.137031
295 0.13458
300 0.101479
305 0.131845
310 0.140298
315 0.159145
320 0.182629
325 0.190007
330 0.249503
335 10.1654
340 154.595
345 235.329
350 62.3919
355 8.86647
360 3.33522
365 2.97995
370 2.44812
375 2.80783
380 6.97441
385 9.65168
390 8.16005
395 7.44443
400 6.93251
405 6.89091
410 6.9385
415 7.51172
420 7.70977
425 7.65458
430 7.53564
435 7.49886
440 7.29904
445 6.99338
450 6.76452
455 6.70941
460 6.16128
465 5.8125
470 5.09781
475 5.03662
480 4.4403
485 4.31088
490 3.65685
495 3.42955
500 2.947
505 2.67239
510 2.42936
515 2.09522
520 1.87071
525 1.724
530 1.5806
535 1.18443
540 1.14501
545 1.09053
550 0.993719
555 0.661933
560 0.585949
565 0.729722
570 0.537089
575 0.38279
580 0.260633
585 0.226742
590 0.240883
595 0.153246
600 0.103478
Ex : 353
200 0.117247
205 0.197267
210 0.130778
215 0.10485
220 0.103822
225 0.115674
230 0.155515
235 0.0994832
240 0.199484
245 0.0579098
250 0.0997768
255 0.145883
260 0.0986245
265 0.11287
270 0.129194
275 0.109029
280 0.142316
285 0.0668954
290 0.191094
295 0.130853
300 0.141633
305 0.1324
310 0.136031
315 0.0933346
320 0.140879
325 0.148683
330 0.176189
335 0.257787
340 10.9839
345 160.467
350 236.567
355 60.2949
360 8.43077
365 3.05548
370 2.62625
375 1.9403
380 2.32115
385 5.90862
390 10.3204
395 9.54924
400 7.58075
405 6.98409
410 6.886
415 8.09506
420 8.03119
425 8.22774
430 7.85704
435 7.43723
440 7.12222
445 7.17898
450 6.80452
455 6.51683
460 6.04273
465 5.72509
470 5.34688
475 5.38615
480 4.53496
485 4.49011
490 3.87729
495 3.65419
500 3.14796
505 2.94655
510 2.47743
515 2.24634
520 2.1753
525 1.71092
530 1.55145
535 1.22422
540 1.27269
545 0.981984
550 0.751217
555 0.770516
560 0.708223
565 0.562106
570 0.565025
575 0.338987
580 0.287445
585 0.293965
590 0.279896
595 0.239777
600 0.312322
Ex : 358
200 0.11613
205 0.0822969
210 0.0656955
215 0.0796945
220 0.103717
225 0.137881
230 0.11704
235 0.0933081
240 0.140009
245 0.134246
250 0.0852161
255 0.0524432
260 0.0602888
265 0.0695366
270 0.111425
275 0.093181
280 0.101247
285 0.142093
290 0.081313
295 0.0939714
300 0.0923343
305 0.111034
310 0.0967394
315 0.111006
320 0.112517
325 0.113842
330 0.154775
335 0.155093
340 0.318513
345 10.5623
350 155.661
355 240.854
360 61.9624
365 8.69004
370 2.69711
375 2.66036
380 2.12345
385 2.53429
390 5.22692
395 10.1738
400 10.0774
405 7.82466
410 6.93956
415 7.18881
420 7.29265
425 7.31186
430 7.51637
435 7.05398
440 7.24998
445 6.97373
450 6.94916
455 6.61369
460 6.3163
465 5.82551
470 5.13304
475 5.16382
480 4.92747
485 4.45118
490 4.15123
495 3.86628
500 3.36495
505 2.87362
510 2.82009
515 2.4048
520 2.1725
525 1.78678
530 1.66901
535 1.2876
540 1.18921
545 1.0288
550 0.916158
555 0.813632
560 0.756722
565 0.56383
570 0.45171
575 0.436458
580 0.39602
585 0.33414
590 0.286718
595 0.149324
600 0.559369
Ex : 363
200 0.0963026
205 0.0622614
210 0.0740631
215 0.109055
220 0.124242
225 0.103987
230 0.0895267
235 0.110353
240 0.118411
245 0.0782642
250 0.0724744
255 0.0881942
260 0.072817
265 0.0811075
270 0.0893743
275 0.101372
280 0.0980942
285 0.133247
290 0.0887832
295 0.108177
300 0.0996929
305 0.142403
310 0.128011
315 0.123702
320 0.0960317
325 0.129218
330 0.119205
335 0.154783
340 0.177808
345 0.268418
350 9.83833
355 161.125
360 251.148
365 66.5976
370 8.92792
375 2.78538
380 2.4362
385 2.4342
390 3.1056
395 5.06892
400 9.0597
405 9.93512
410 8.1743
415 7.68006
420 7.23549
425 6.98182
430 6.93258
435 6.92129
440 6.92359
445 6.84516
450 6.78999
455 6.43928
460 6.53476
465 5.43738
470 5.43158
475 5.2779
480 5.02168
485 4.94532
490 4.41201
495 3.76055
500 3.68927
505 3.07565
510 2.82671
515 2.67407
520 2.2341
525 1.85986
530 1.58083
535 1.41561
540 1.41773
545 1.10611
550 1.00994
555 0.938866
560 0.667346
565 0.498253
570 0.47199
575 0.49045
580 0.287574
585 0.168619
590 0.209362
595 0.215587
600 0.118052
Ex : 368
200 0.112257
205 0.0809904
210 0.0713606
215 0.0824358
220 0.0916513
225 0.131025
230 0.0900946
235 0.0679438
240 0.0723227
245 0.082455
250 0.0574918
255 0.077965
260 0.0943795
265 0.0860639
270 0.0835524
275 0.0826597
280 0.0678055
285 0.0818978
290 0.063526
295 0.08615
300 0.0829194
305 0.106082
310 0.0875948
315 0.0725894
320 0.0944205
325 0.101982
330 0.106924
335 0.187767
340 0.129621
345 0.159343
350 0.297272
355 8.13625
360 155.587
365 255.99
370 71.2263
375 9.57532
380 2.79188
385 2.99676
390 3.62031
395 3.96108
400 4.86196
405 7.98901
410 10.7831
415 9.32916
420 8.17794
425 7.50612
430 7.21315
435 6.70024
440 7.04139
445 7.22997
450 6.95575
455 6.6949
460 6.17982
465 5.82015
470 5.61623
475 5.33454
480 4.80458
485 4.62486
490 4.56473
495 4.16084
500 3.79868
505 3.35616
510 3.00561
515 2.76607
520 2.31579
525 2.04947
530 1.87819
535 1.47137
540 1.32725
545 1.17092
550 1.04422
555 0.850888
560 0.742476
565 0.643634
570 0.541212
575 0.41951
580 0.329585
585 0.293199
590 0.206302
595 0.217562
600 0.0665598
Ex : 373
200 0.0903913
205 0.121097
210 0.0880312
215 0.124348
220 0.0948858
225 0.0695499
230 0.143342
235 0.0734046
240 0.119778
245 0.0873083
250 0.110638
255 0.120446
260 0.0956977
265 0.0627248
270 0.104135
275 0.0894189
280 0.0888399
285 0.123878
290 0.112207
295 0.0913935
300 0.0995472
305 0.0551856
310 0.0699174
315 0.0559512
320 0.10322
325 0.102133
330 0.136774
335 0.105536
340 0.147286
345 0.215477
350 0.215319
355 0.223017
360 9.59843
365 157.568
370 254.998
375 70.5294
380 9.76354
385 3.37633
390 4.06199
395 4.4955
400 4.61932
405 5.00118
410 7.80424
415 11.5099
420 9.84596
425 8.47935
430 7.48259
435 7.07012
440 7.00572
445 6.98897
450 6.7778
455 6.46877
460 5.73824
465 5.78008
470 5.25859
475 5.36663
480 4.91045
485 4.58131
490 4.09828
495 3.90473
500 3.78802
505 3.334
510 3.06084
515 2.5931
520 2.37325
525 2.08994
530 1.77264
535 1.58308
540 1.53348
545 1.31763
550 1.12887
555 0.845122
560 0.758417
565 0.696958
570 0.531849
575 0.449564
580 0.405018
585 0.293026
590 0.216779
595 0.175106
600 0.579219
Ex : 378
200 0.108661
205 0.10654
210 0.135528
215 0.0679404
220 0.0551414
225 0.0933471
230 0.10183
235 0.0533125
240 0.0863706
245 0.0759076
250 0.0674458
255 0.0973935
260 0.0775483
265 0.0719725
270 0.150708
275 0.0910003
280 0.0865862
285 0.0814205
290 0.105871
295 0.078638
300 0.0597906
305 0.0735862
310 0.124454
315 0.137404
320 0.0877294
325 0.090693
330 0.114241
335 0.0777616
340 0.0829216
345 0.0976833
350 0.179183
355 0.141524
360 0.259621
365 9.41325
370 167.104
375 271.885
380 74.3683
385 10.453
390 3.65084
395 4.48853
400 4.5159
405 4.16387
410 4.41756
415 6.62642
420 10.2223
425 9.67447
430 7.76921
435 6.7984
440 6.10889
445 5.6203
450 5.83859
455 5.58902
460 5.55661
465 5.08766
470 5.02468
475 4.93198
480 4.71319
485 4.34903
490 4.14054
495 3.7241
500 3.63205
505 3.01798
510 2.81288
515 2.69093
520 2.35398
525 2.1344
530 1.71777
535 1.57555
540 1.44221
545 1.15159
550 1.07309
555 0.901084
560 0.746261
565 0.76169
570 0.588027
575 0.424819
580 0.399974
585 0.296227
590 0.219612
595 0.156967
600 0.110951
Ex : 383
200 0.0859981
205 0.0751668
210 0.0822766
215 0.0621421
220 0.139833
225 0.104795
230 0.0921503
235 0.0911659
240 0.0855309
245 0.0542591
250 0.0731246
255 0.0627907
260 0.0770085
265 0.0602454
270 0.0908208
275 0.0614476
280 0.0594391
285 0.06767
290 0.09965
295 0.068301
300 0.0710061
305 0.0642374
310 0.10445
315 0.0502261
320 0.0770973
325 0.0808719
330 0.130363
335 0.102797
340 0.11624
345 0.0825738
350 0.0952075
355 0.145796
360 0.207071
365 0.315894
370 8.81047
375 163.162
380 278.04
385 77.675
390 11.2933
395 4.11315
400 4.09213
405 4.00179
410 3.90974
415 4.19378
420 5.39578
425 8.52053
430 9.01761
435 6.97763
440 6.35498
445 5.80207
450 5.49877
455 5.25444
460 4.93968
465 5.15751
470 5.04735
475 4.83244
480 4.63045
485 4.27466
490 3.97012
495 3.7455
500 3.29075
505 3.0281
510 2.95183
515 2.58497
520 2.26898
525 1.93143
530 1.88365
535 1.64997
540 1.39904
545 1.18648
550 1.14649
555 0.921346
560 0.880548
565 0.750689
570 0.518545
575 0.415315
580 0.38896
585 0.252596
590 0.243717
595 0.17317
600 0.0619062
Ex : 388
200 0.0935015
205 0.0822798
210 0.0810462
215 0.105516
220 0.0915321
225 0.0595177
230 0.122941
235 0.08827
240 0.0848558
245 0.086993
250 0.132497
255 0.0803382
260 0.0691782
265 0.0627375
270 0.103625
275 0.0617639
280 0.0950528
285 0.0689177
290 0.0500272
295 0.076087
300 0.0662346
305 0.0703857
310 0.0819483
315 0.133613
320 0.101863
325 0.102973
330 0.0758927
335 0.0982912
340 0.0789844
345 0.120995
350 0.0982974
355 0.107616
360 0.145185
365 0.240428
370 0.308518
375 9.74165
380 171.075
385 286.057
390 79.0909
395 12.0426
400 4.47318
405 3.96991
410 4.60625
415 4.73744
420 4.69759
425 5.10389
430 7.34149
435 9.12511
440 7.21151
445 6.45717
450 5.90058
455 5.16528
460 4.92489
465 4.9008
470 4.82663
475 4.65021
480 4.24282
485 4.19573
490 3.98716
495 3.93462
500 3.50188
505 3.3179
510 2.82475
515 2.57499
520 2.21331
525 2.06882
530 1.86862
535 1.66792
540 1.34196
545 1.19206
550 0.990469
555 0.870852
560 0.801962
565 0.650005
570 0.513737
575 0.436784
580 0.329248
585 0.305156
590 0.197692
595 0.165109
600 0.0864379
Ex : 393
200 0.0778006
205 0.0544301
210 0.0878525
215 0.102769
220 0.0684977
225 0.0582398
230 0.0748323
235 0.0769466
240 0.0993285
245 0.0934308
250 0.0685363
255 0.0529972
260 0.0739149
265 0.137842
270 0.0765783
275 0.068208
280 0.0455867
285 0.0712635
290 0.0553974
295 0.0817289
300 0.114147
305 0.0800373
310 0.0466257
315 0.0764233
320 0.0598504
325 0.0818984
330 0.120308
335 0.0850023
340 0.0907559
345 0.106133
350 0.106658
355 0.0770228
360 0.139062
365 0.128831
370 0.162553
375 0.264031
380 8.42435
385 172.148
390 295.672
395 83.0206
400 12.7325
405 4.55036
410 4.33278
415 5.20558
420 5.19212
425 4.59538
430 4.69778
435 6.5002
440 8.90881
445 7.48843
450 6.49281
455 5.50233
460 5.10107
465 4.92382
470 4.74495
475 4.47363
480 4.30859
485 4.13309
490 3.82003
495 3.52612
500 3.31724
505 3.03579
510 2.82522
515 2.46185
520 2.43625
525 2.0075
530 1.6438
535 1.61688
540 1.33362
545 1.20738
550 1.09827
555 0.871053
560 0.852265
565 0.755577
570 0.52012
575 0.394107
580 0.326941
585 0.261476
590 0.254871
595 0.170032
600 0.0290167
Ex : 398
200 0.0754289
205 0.100242
210 0.093939
215 0.0571939
220 0.110312
225 0.0686198
230 0.0577888
235 0.0846153
240 0.0555233
245 0.0844723
250 0.0918542
255 0.065646
260 0.117585
265 0.0875223
270 0.131503
275 0.0905463
280 0.060944
285 0.0527633
290 0.100294
295 0.0594118
300 0.0797278
305 0.0777645
310 0.0764159
315 0.107163
320 0.0537717
325 0.0865049
330 0.0880192
335 0.0497449
340 0.105739
345 0.0877419
350 0.096193
355 0.126696
360 0.0817906
365 0.104454
370 0.155779
375 0.217035
380 0.363346
385 9.57945
390 177.259
395 302.928
400 84.3293
405 12.4685
410 4.22914
415 3.75473
420 4.23772
425 3.98191
430 3.63018
435 3.58009
440 4.9525
445 7.79411
450 7.50751
455 5.67479
460 5.0239
465 4.19329
470 4.18847
475 3.91967
480 3.77962
485 3.85502
490 3.52657
495 3.29762
500 2.92745
505 2.8025
510 2.5444
515 2.45676
520 2.29287
525 1.95383
530 1.85684
535 1.65476
540 1.33519
545 1.15425
550 1.04433
555 0.943653
560 0.89591
565 0.667326
570 0.509183
575 0.425328
580 0.33198
585 0.271661
590 0.184381
595 0.168176
600 0.0191378
Ex : 403
200 0.0769861
205 0.114306
210 0.091679
215 0.103902
220 0.0876627
225 0.145983
230 0.0810675
235 0.0879355
240 0.0731507
245 0.0464091
250 0.0952303
255 0.0882416
260 0.129503
265 0.0713078
270 0.0751948
275 0.0755251
280 0.0870661
285 0.0988069
290 0.0875599
295 0.120575
300 0.115312
305 0.0795526
310 0.0687145
315 0.0731202
320 0.0716524
325 0.0742121
330 0.0832899
335 0.0690358
340 0.0809495
345 0.120235
350 0.084406
355 0.0874882
360 0.0957883
365 0.113724
370 0.121687
375 0.133666
380 0.218127
385 0.407687
390 11.2067
395 189.176
400 319.796
405 90.7777
410 12.5974
415 3.85615
420 3.0435
425 3.39216
430 3.1237
435 2.72616
440 2.82716
445 3.61653
450 6.33339
455 6.97794
460 5.1692
465 4.35076
470 3.97806
475 3.6847
480 3.36485
485 3.34612
490 3.05651
495 3.02939
500 2.59459
505 2.54395
510 2.39717
515 1.97227
520 1.92879
525 1.84161
530 1.49471
535 1.46439
540 1.19832
545 1.03128
550 0.969002
555 0.871608
560 0.700049
565 0.611561
570 0.574076
575 0.442389
580 0.252014
585 0.291573
590 0.214193
595 0.15669
600 0.0178308
Ex : 408
200 0.0549593
205 0.0777444
210 0.0807799
215 0.0497858
220 0.0636025
225 0.0972047
230 0.0749955
235 0.0650388
240 0.0814462
245 0.0781912
250 0.0753431
255 0.0788614
260 0.058623
265 0.0645159
270 0.0585306
275 0.0798586
280 0.0729654
285 0.0753484
290 0.0577193
295 0.0864169
300 0.0631361
305 0.045468
310 0.0567406
315 0.0964409
320 0.0520796
325 0.0809
330 0.0753101
335 0.0775983
340 0.0829179
345 0.0720508
350 0.0751648
355 0.0821732
360 0.10867
365 0.0779707
370 0.101781
375 0.105135
380 0.134534
385 0.194301
390 0.36928
395 10.3304
400 192.812
405 318.158
410 85.2639
415 11.8467
420 3.48455
425 2.65551
430 2.90387
435 2.75787
440 2.36305
445 2.71579
450 3.12218
455 4.98032
460 6.48353
465 5.05157
470 4.10053
475 3.52624
480 3.27639
485 3.05459
490 3.00251
495 2.78513
500 2.58758
505 2.40578
510 2.26479
515 2.10205
520 1.99343
525 1.78649
530 1.62305
535 1.47564
540 1.22489
545 1.11423
550 0.942918
555 0.823725
560 0.7154
565 0.653961
570 0.537827
575 0.411478
580 0.335687
585 0.252099
590 0.274163
595 0.14771
600 0.0228788
Ex : 413
200 0.0669056
205 0.0871292
210 0.0715223
215 0.115642
220 0.108923
225 0.0667935
230 0.0661887
235 0.0761473
240 0.0876839
245 0.0625477
250 0.0603201
255 0.0689163
260 0.0678721
265 0.0904969
270 0.0725093
275 0.0970495
280 0.0621765
285 0.0769563
290 0.0969081
295 0.057369
300 0.0521612
305 0.0489222
310 0.0777083
315 0.0815571
320 0.0576141
325 0.0872047
330 0.0822784
335 0.0931767
340 0.0861007
345 0.068265
350 0.0975809
355 0.116706
360 0.0880259
365 0.113925
370 0.108419
375 0.097878
380 0.101258
385 0.135797
390 0.223972
395 0.382988
400 11.621
405 196.131
410 316.212
415 82.8348
420 11.3561
425 3.07578
430 2.23407
435 2.60403
440 2.57667
445 2.21984
450 2.25884
455 2.61417
460 3.88071
465 6.02605
470 5.31987
475 3.97609
480 3.58335
485 2.89901
490 2.91131
495 2.49981
500 2.36592
505 2.22556
510 2.10576
515 1.92297
520 1.89107
525 1.63418
530 1.55334
535 1.34733
540 1.2404
545 1.01259
550 0.91071
555 0.764115
560 0.684373
565 0.5991
570 0.497871
575 0.425173
580 0.306648
585 0.227815
590 0.205392
595 0.226313
600 0.22137
Ex : 418
200 0.0844273
205 0.0564279
210 0.0497994
215 0.0590774
220 0.09116
225 0.0793562
230 0.105621
235 0.118415
240 0.0790805
245 0.0646642
250 0.0532634
255 0.0640365
260 0.132966
265 0.0797456
270 0.0541575
275 0.0945505
280 0.0789942
285 0.106407
290 0.0470215
295 0.0652764
300 0.0359445
305 0.0637169
310 0.060663
315 0.0722562
320 0.11001
325 0.0684164
330 0.0866672
335 0.0673428
340 0.0872071
345 0.143338
350 0.106308
355 0.0477887
360 0.118368
365 0.0943991
370 0.0821716
375 0.0847227
380 0.100461
385 0.120088
390 0.1562
395 0.232375
400 0.40512
405 11.0476
410 199.37
415 329.195
420 88.9266
425 11.8796
430 2.87147
435 1.95004
440 2.31692
445 2.22072
450 1.9116
455 2.056
460 2.16121
465 2.86398
470 5.11268
475 5.32141
480 3.68387
485 3.27464
490 2.87407
495 2.45932
500 2.27263
505 2.0719
510 1.99702
515 1.70098
520 1.61979
525 1.44417
530 1.37827
535 1.1764
540 1.1539
545 1.06798
550 0.963224
555 0.790538
560 0.645662
565 0.60252
570 0.519279
575 0.361852
580 0.326938
585 0.254986
590 0.215857
595 0.213979
600 0.02435
Ex : 423
200 0.0513358
205 0.0776378
210 0.0813273
215 0.0668774
220 0.0475119
225 0.0686127
230 0.080912
235 0.0601299
240 0.0575744
245 0.0730503
250 0.0606274
255 0.0856961
260 0.0823021
265 0.0563215
270 0.0923763
275 0.0661348
280 0.0788136
285 0.0794844
290 0.0655489
295 0.0711189
300 0.100931
305 0.0645433
310 0.074616
315 0.0813287
320 0.109529
325 0.0978996
330 0.0821568
335 0.0650518
340 0.0590857
345 0.0685193
350 0.0736259
355 0.0643987
360 0.0691841
365 0.0703042
370 0.0886216
375 0.0951083
380 0.0837544
385 0.122734
390 0.14725
395 0.194445
400 0.24434
405 0.422067
410 10.9284
415 204.718
420 325.969
425 84.5945
430 11.0757
435 2.55977
440 1.73139
445 1.92332
450 1.96613
455 1.57487
460 1.42567
465 1.60743
470 2.07404
475 4.3721
480 5.08115
485 3.48472
490 3.04029
495 2.60407
500 2.12682
505 1.95263
510 1.84626
515 1.59475
520 1.51533
525 1.409
530 1.16462
535 1.24852
540 1.12268
545 0.916051
550 0.743942
555 0.761212
560 0.660887
565 0.501905
570 0.460902
575 0.324225
580 0.266247
585 0.238443
590 0.177092
595 0.161219
600 0.398148
Ex : 428
200 0.068236
205 0.0807097
210 0.0838354
215 0.0764877
220 0.0735896
225 0.0670604
230 0.0886851
235 0.0635539
240 0.0717557
245 0.0661594
250 0.0491857
255 0.0448135
260 0.0598818
265 0.0999009
270 0.0925533
275 0.049965
280 0.0625758
285 0.0884475
290 0.101267
295 0.0805454
300 0.0854987
305 0.0760906
310 0.0658104
315 0.0922012
320 0.0647857
325 0.0683323
330 0.0758351
335 0.108668
340 0.0695197
345 0.0776718
350 0.0956839
355 0.0884331
360 0.0862699
365 0.0998239
370 0.13798
375 0.0757095
380 0.150017
385 0.204324
390 0.126407
395 0.145313
400 0.184827
405 0.225558
410 0.344769
415 12.0551
420 205.885
425 328.474
430 87.7306
435 11.2929
440 2.38686
445 1.41995
450 1.82296
455 1.80882
460 1.55994
465 1.40534
470 1.50412
475 1.93313
480 3.41655
485 4.90278
490 3.65776
495 2.66593
500 2.42571
505 1.85491
510 1.61414
515 1.51866
520 1.36803
525 1.18749
530 1.11517
535 1.03234
540 1.0748
545 0.939734
550 0.823181
555 0.815149
560 0.633663
565 0.489446
570 0.398797
575 0.425326
580 0.277736
585 0.269469
590 0.170187
595 0.110265
600 0.128527
Ex : 433
200 0.0740533
205 0.0933985
210 0.0669522
215 0.0901029
220 0.0725679
225 0.0939642
230 0.069797
235 0.0724303
240 0.063219
245 0.106978
250 0.0962319
255 0.101161
260 0.0708633
265 0.0526708
270 0.0555526
275 0.0838663
280 0.0648867
285 0.119002
290 0.0806579
295 0.0772984
300 0.0768443
305 0.0571977
310 0.0765572
315 0.0783289
320 0.118962
325 0.0835783
330 0.090508
335 0.0932355
340 0.0978664
345 0.113424
350 0.079286
355 0.0972461
360 0.0666644
365 0.098773
370 0.0632302
375 0.0919007
380 0.0927283
385 0.106195
390 0.109126
395 0.0860476
400 0.153199
405 0.213214
410 0.214661
415 0.417389
420 13.5747
425 223.343
430 338.368
435 85.9425
440 11.0229
445 2.37481
450 1.38423
455 1.62534
460 1.80935
465 1.43209
470 1.32584
475 1.43971
480 1.66264
485 2.7175
490 4.51184
495 3.96092
500 2.67246
505 2.24524
510 1.8596
515 1.47064
520 1.40253
525 1.36859
530 1.30435
535 1.08458
540 0.956926
545 0.948179
550 0.762966
555 0.635729
560 0.569512
565 0.47419
570 0.452767
575 0.380797
580 0.33351
585 0.254115
590 0.185657
595 0.144461
600 0.0823056
Ex : 438
200 0.0461868
205 0.0797488
210 0.109913
215 0.0610619
220 0.0877893
225 0.0767545
230 0.095652
235 0.0837167
240 0.114431
245 0.0815073
250 0.0935409
255 0.118587
260 0.080965
265 0.0674526
270 0.0763573
275 0.0488525
280 0.0835649
285 0.0576579
290 0.0697851
295 0.0956737
300 0.0675451
305 0.0755833
310 0.0740427
315 0.0750796
320 0.0894497
325 0.0752385
330 0.0897244
335 0.0797666
340 0.0813506
345 0.0545082
350 0.126665
355 0.129735
360 0.100222
365 0.098006
370 0.107662
375 0.100623
380 0.0864457
385 0.0953718
390 0.145363
395 0.0908787
400 0.102128
405 0.15708
410 0.186533
415 0.235748
420 0.333511
425 13.1006
430 218.388
435 350.148
440 89.144
445 11.5158
450 2.41722
455 1.16732
460 1.47258
465 1.71012
470 1.39432
475 1.31039
480 1.31968
485 1.4668
490 1.90762
495 3.92688
500 4.29802
505 2.60852
510 2.26583
515 1.984
520 1.50649
525 1.23066
530 1.18395
535 0.99969
540 0.934165
545 0.866802
550 0.78081
555 0.671401
560 0.60318
565 0.514148
570 0.466112
575 0.355655
580 0.297035
585 0.2274
590 0.199028
595 0.158141
600 0.0596296
Ex : 443
200 0.053673
205 0.0941978
210 0.0827238
215 0.0600477
220 0.116918
225 0.0807856
230 0.0777628
235 0.102044
240 0.0812415
245 0.0811962
250 0.0812591
255 0.074799
260 0.0868797
265 0.0494747
270 0.0845611
275 0.0848327
280 0.0844542
285 0.0490243
290 0.158052
295 0.0901095
300 0.0805877
305 0.073933
310 0.128863
315 0.0578638
320 0.0670581
325 0.102607
330 0.0825553
335 0.0921525
340 0.0550463
345 0.0450994
350 0.119469
355 0.0792956
360 0.0910264
365 0.0930345
370 0.0920482
375 0.104275
380 0.122104
385 0.131974
390 0.0740699
395 0.126542
400 0.138343
405 0.103481
410 0.15773
415 0.208752
420 0.248092
425 0.302643
430 14.3482
435 235.004
440 357.389
445 90.634
450 11.7254
455 2.32895
460 1.2841
465 1.45425
470 1.69679
475 1.58893
480 1.2429
485 1.22728
490 1.39203
495 1.72644
500 3.04825
505 4.14834
510 2.71457
515 1.81403
520 1.85913
525 1.5373
530 1.21708
535 1.06426
540 0.947187
545 0.812774
550 0.841095
555 0.744417
560 0.602004
565 0.555321
570 0.459708
575 0.343304
580 0.370156
585 0.234098
590 0.223383
595 0.161391
600 0.0540517
Ex : 448
200 0.0850775
205 0.0717936
210 0.0607716
215 0.0765086
220 0.0989943
225 0.0626331
230 0.062358
235 0.0884683
240 0.127382
245 0.0832675
250 0.14315
255 0.0736463
260 0.110383
265 0.0490334
270 0.112794
275 0.0773826
280 0.0883892
285 0.103317
290 0.0903465
295 0.0880913
300 0.123662
305 0.07503
310 0.102026
315 0.0644072
320 0.0896253
325 0.0865664
330 0.0667039
335 0.0964333
340 0.074606
345 0.0917573
350 0.096503
355 0.0884433
360 0.104611
365 0.0913107
370 0.0839608
375 0.083844
380 0.0746645
385 0.0981728
390 0.0856043
395 0.105781
400 0.130212
405 0.0885547
410 0.144854
415 0.222991
420 0.215419
425 0.300109
430 0.398115
435 14.6096
440 240.67
445 365.749
450 93.6905
455 11.7967
460 2.55492
465 1.39236
470 1.4538
475 1.59694
480 1.49464
485 1.24865
490 1.22408
495 1.3205
500 1.40427
505 2.3075
510 3.70814
515 3.13165
520 2.05292
525 1.83619
530 1.55223
535 1.08803
540 0.941525
545 1.00945
550 0.903351
555 0.734985
560 0.712885
565 0.510578
570 0.455287
575 0.457936
580 0.273841
585 0.274593
590 0.231229
595 0.193494
600 0.0725742
Ex : 453
200 0.0776808
205 0.0671116
210 0.0725455
215 0.0818416
220 0.0622099
225 0.0754187
230 0.0942062
235 0.0401589
240 0.0722825
245 0.0493171
250 0.0553095
255 0.0973262
260 0.0647908
265 0.0816007
270 0.0863616
275 0.0667806
280 0.0814945
285 0.0779039
290 0.083668
295 0.0737727
300 0.0707188
305 0.0578881
310 0.0435238
315 0.0542163
320 0.0538338
325 0.0955583
330 0.0639094
335 0.0872603
340 0.0811933
345 0.0695401
350 0.110784
355 0.0680407
360 0.0935456
365 0.0884987
370 0.093745
375 0.0744346
380 0.0850915
385 0.0887916
390 0.1124
395 0.103925
400 0.170928
405 0.138514
410 0.145035
415 0.168311
420 0.147215
425 0.182382
430 0.270837
435 0.452867
440 14.8341
445 272.514
450 392.309
455 91.2228
460 11.6328
465 2.43538
470 1.15891
475 1.46777
480 1.68326
485 1.51857
490 1.19121
495 1.17187
500 1.19604
505 1.27247
510 1.82665
515 3.21866
520 3.17552
525 1.94478
530 1.67588
535 1.4884
540 1.1863
545 0.878877
550 0.919279
555 0.761173
560 0.665441
565 0.657617
570 0.531964
575 0.374828
580 0.327906
585 0.228308
590 0.170996
595 0.165031
600 0.196585
Ex : 458
200 0.073085
205 0.087126
210 0.0551732
215 0.0702543
220 0.100917
225 0.0824609
230 0.066409
235 0.109189
240 0.0699257
245 0.134875
250 0.0688913
255 0.0911234
260 0.0696118
265 0.0686973
270 0.0616426
275 0.100372
280 0.114055
285 0.0677491
290 0.0913766
295 0.0877195
300 0.138998
305 0.112253
310 0.0813882
315 0.110594
320 0.0706489
325 0.0937744
330 0.0841356
335 0.111362
340 0.124879
345 0.0920315
350 0.0971538
355 0.089558
360 0.103491
365 0.143906
370 0.116182
375 0.115462
380 0.0809941
385 0.152359
390 0.0746199
395 0.075725
400 0.113515
405 0.111168
410 0.0900385
415 0.105444
420 0.190669
425 0.171265
430 0.190371
435 0.256096
440 0.485514
445 19.9006
450 275.021
455 398.855
460 98.7693
465 12.6479
470 2.58434
475 1.2482
480 1.32803
485 1.6445
490 1.61653
495 1.30078
500 1.11346
505 1.04487
510 1.23641
515 1.37008
520 2.71129
525 3.37611
530 2.29141
535 1.66899
540 1.49363
545 1.13164
550 0.944189
555 0.827041
560 0.621209
565 0.570594
570 0.514406
575 0.361632
580 0.329317
585 0.240899
590 0.23551
595 0.175844
600 0.0719701
Ex : 463
200 0.0667733
205 0.0638902
210 0.098038
215 0.0922716
220 0.0759784
225 0.0802572
230 0.100349
235 0.0742299
240 0.0445226
245 0.0615718
250 0.104544
255 0.102372
260 0.0986116
265 0.0934743
270 0.0918935
275 0.0676588
280 0.0799788
285 0.0685131
290 0.0718957
295 0.0727156
300 0.0827824
305 0.0992797
310 0.0637342
315 0.0514942
320 0.0785402
325 0.0804851
330 0.108948
335 0.0707858
340 0.0806072
345 0.126054
350 0.0883678
355 0.122237
360 0.0928826
365 0.0826267
370 0.097835
375 0.119821
380 0.0916279
385 0.10819
390 0.113922
395 0.115731
400 0.11598
405 0.0968145
410 0.0804797
415 0.161135
420 0.124564
425 0.120174
430 0.149954
435 0.179305
440 0.311821
445 0.444962
450 16.2409
455 269.316
460 413.282
465 100.896
470 12.8081
475 2.57782
480 1.38742
485 1.13156
490 1.51442
495 1.43842
500 1.25569
505 1.07222
510 1.01102
515 1.1548
520 1.32417
525 2.07561
530 3.50446
535 2.7822
540 1.69778
545 1.44585
550 1.26544
555 0.925847
560 0.779178
565 0.62327
570 0.555759
575 0.356413
580 0.320704
585 0.260467
590 0.252918
595 0.156273
600 0.0853293
Ex : 468
200 0.0893276
205 0.0877472
210 0.0693493
215 0.114215
220 0.0728955
225 0.0957148
230 0.0593681
235 0.103255
240 0.0612329
245 0.0857625
250 0.0545418
255 0.083893
260 0.0712078
265 0.114259
270 0.0945629
275 0.0680365
280 0.0632135
285 0.0600907
290 0.0952193
295 0.0849922
300 0.0846614
305 0.0817947
310 0.0963234
315 0.0595443
320 0.0788255
325 0.0804766
330 0.079306
335 0.0575168
340 0.0943367
345 0.0670585
350 0.125446
355 0.0788731
360 0.083879
365 0.077436
370 0.0887772
375 0.0946606
380 0.101924
385 0.0830742
390 0.0667745
395 0.073672
400 0.0917636
405 0.0837334
410 0.109038
415 0.071768
420 0.101058
425 0.0790529
430 0.106912
435 0.159925
440 0.181095
445 0.313146
450 0.461607
455 17.7269
460 272.926
465 424.352
470 103.695
475 12.9335
480 2.53712
485 1.36407
490 1.21578
495 1.49642
500 1.56668
505 1.29496
510 1.01287
515 1.08481
520 1.0386
525 1.24691
530 1.5092
535 2.8925
540 2.85353
545 1.80554
550 1.37261
555 1.35103
560 0.921809
565 0.700776
570 0.518265
575 0.469057
580 0.417467
585 0.277472
590 0.270437
595 0.191138
600 0.24571
Ex : 473
200 0.0950937
205 0.0772943
210 0.088844
215 0.0876823
220 0.0721536
225 0.0692138
230 0.0904785
235 0.0841977
240 0.0530628
245 0.0672816
250 0.0863504
255 0.138038
260 0.0956785
265 0.0922272
270 0.0738395
275 0.0515223
280 0.107723
285 0.0983992
290 0.130605
295 0.105337
300 0.0665464
305 0.0980645
310 0.135937
315 0.148326
320 0.0837236
325 0.0885622
330 0.0812019
335 0.0928876
340 0.102798
345 0.0704772
350 0.0855057
355 0.0817158
360 0.0811849
365 0.109742
370 0.0617527
375 0.1005
380 0.0702918
385 0.130293
390 0.099354
395 0.0811805
400 0.0980256
405 0.123568
410 0.110666
415 0.124406
420 0.127719
425 0.105037
430 0.100654
435 0.159821
440 0.172676
445 0.238635
450 0.268893
455 0.485911
460 19.9363
465 296.636
470 427.968
475 101.353
480 12.6252
485 2.58601
490 1.37256
495 1.09339
500 1.36433
505 1.34751
510 1.15957
515 1.09692
520 1.01348
525 1.0801
530 1.13257
535 1.20665
540 2.35719
545 2.85688
550 1.95465
555 1.28393
560 1.09773
565 0.89196
570 0.581391
575 0.452957
580 0.32485
585 0.334528
590 0.27069
595 0.203464
600 0.151589
Ex : 478
200 0.0612193
205 0.100718
210 0.0723598
215 0.0833579
220 0.0868439
225 0.0779478
230 0.073428
235 0.0707846
240 0.0794806
245 0.0659212
250 0.101801
255 0.128946
260 0.0967931
265 0.106348
270 0.0982793
275 0.0833366
280 0.0890758
285 0.0678396
290 0.0825619
295 0.0853705
300 0.114
305 0.118055
310 0.117172
315 0.0512969
320 0.0964915
325 0.0641496
330 0.121201
335 0.0828005
340 0.0775163
345 0.115915
350 0.0907914
355 0.0795138
360 0.0995858
365 0.0741408
370 0.0964267
375 0.0915984
380 0.128014
385 0.128093
390 0.0986847
395 0.118133
400 0.12537
405 0.143324
410 0.146199
415 0.112457
420 0.108492
425 0.180408
430 0.165213
435 0.128987
440 0.173648
445 0.161334
450 0.193674
455 0.302973
460 0.553586
465 21.9272
470 301.187
475 417.525
480 100.642
485 12.6414
490 2.39947
495 1.25698
500 1.03417
505 1.22904
510 1.32664
515 1.12604
520 1.04454
525 1.03904
530 0.972365
535 1.11201
540 1.16645
545 1.74024
550 2.45031
555 2.16865
560 1.28038
565 0.886874
570 0.818197
575 0.554561
580 0.359106
585 0.288462
590 0.205318
595 0.206297
600 0.0234759
Ex : 483
200 0.116482
205 0.0854683
210 0.063834
215 0.0737201
220 0.126065
225 0.123902
230 0.0716297
235 0.0973043
240 0.107786
245 0.0581752
250 0.0583036
255 0.0845191
260 0.0652278
265 0.0853837
270 0.0760057
275 0.098541
280 0.0893534
285 0.0885212
290 0.0765109
295 0.116204
300 0.0989376
305 0.0895972
310 0.11547
315 0.0916064
320 0.118446
325 0.102484
330 0.112962
335 0.097128
340 0.155816
345 0.101825
350 0.0626391
355 0.0708584
360 0.0799939
365 0.117716
370 0.10528
375 0.092349
380 0.0954378
385 0.0643861
390 0.126233
395 0.0878368
400 0.11819
405 0.0989203
410 0.142434
415 0.10468
420 0.114021
425 0.0940304
430 0.135264
435 0.157647
440 0.156541
445 0.166283
450 0.236698
455 0.213096
460 0.391651
465 0.623237
470 16.6736
475 296.468
480 454.904
485 109.129
490 13.4535
495 2.31307
500 1.23086
505 0.860011
510 1.13833
515 1.28845
520 1.2469
525 1.24417
530 1.07173
535 1.1466
540 1.03884
545 0.964101
550 1.24028
555 2.18485
560 2.35355
565 1.26417
570 0.900004
575 0.740164
580 0.477007
585 0.282814
590 0.242737
595 0.179072
600 0.137307
Ex : 488
200 0.110542
205 0.0932766
210 0.0727439
215 0.122386
220 0.087382
225 0.0969721
230 0.0770834
235 0.0901637
240 0.144118
245 0.172496
250 0.106509
255 0.0917745
260 0.0812416
265 0.0857352
270 0.112731
275 0.0824545
280 0.120588
285 0.134415
290 0.0791938
295 0.106181
300 0.0997105
305 0.109759
310 0.0782685
315 0.0722715
320 0.107997
325 0.0884791
330 0.119565
335 0.136112
340 0.0707434
345 0.14162
350 0.110581
355 0.121248
360 0.110347
365 0.0977375
370 0.0886148
375 0.14736
380 0.100718
385 0.0807766
390 0.0898529
395 0.120231
400 0.114661
405 0.123361
410 0.155062
415 0.1328
420 0.115468
425 0.141852
430 0.0959767
435 0.134695
440 0.113822
445 0.116976
450 0.203154
455 0.223115
460 0.289243
465 0.391859
470 0.566163
475 21.1906
480 329.562
485 445.374
490 104.148
495 12.9373
500 2.41188
505 1.09716
510 0.799969
515 1.01679
520 1.416
525 1.25629
530 1.14003
535 1.03797
540 1.00399
545 1.09369
550 0.997585
555 1.06115
560 1.63442
565 2.04068
570 1.3153
575 0.777049
580 0.650118
585 0.399624
590 0.287791
595 0.25811
600 0.299681
Ex : 493
200 0.0958657
205 0.0942769
210 0.137664
215 0.132621
220 0.0984907
225 0.119189
230 0.126071
235 0.0513924
240 0.0658846
245 0.116585
250 0.102663
255 0.0761749
260 0.0958479
265 0.11754
270 0.0941978
275 0.0556653
280 0.14268
285 0.10262
290 0.110648
295 0.170322
300 0.12377
305 0.107869
310 0.0735559
315 0.14903
320 0.103534
325 0.0816515
330 0.0953403
335 0.103392
340 0.103392
345 0.107757
350 0.130353
355 0.107545
360 0.0940602
365 0.0879819
370 0.130979
375 0.120833
380 0.138876
385 0.132797
390 0.089599
395 0.109022
400 0.184037
405 0.12622
410 0.144821
415 0.142781
420 0.121319
425 0.159751
430 0.16153
435 0.130608
440 0.157244
445 0.131636
450 0.179191
455 0.156407
460 0.2116
465 0.276216
470 0.276028
475 0.538728
480 18.8158
485 306.543
490 455.383
495 106.001
500 13.0328
505 2.22584
510 1.09896
515 0.824244
520 1.02982
525 1.42591
530 1.37439
535 1.3327
540 1.17205
545 0.888058
550 0.958451
555 0.768061
560 0.750035
565 1.11158
570 1.68367
575 1.26702
580 0.621963
585 0.392586
590 0.364173
595 0.284033
600 0.0323218
Ex : 498
200 0.071643
205 0.104745
210 0.0949401
215 0.0815362
220 0.0925815
225 0.104324
230 0.118515
235 0.0866438
240 0.11199
245 0.0985725
250 0.0994605
255 0.0976566
260 0.0923042
265 0.118074
270 0.0893482
275 0.0911554
280 0.144319
285 0.104588
290 0.143043
295 0.0842821
300 0.0837631
305 0.10962
310 0.138488
315 0.127338
320 0.104391
325 0.0956601
330 0.0880054
335 0.130185
340 0.114838
345 0.103147
350 0.125007
355 0.153592
360 0.10934
365 0.10084
370 0.154095
375 0.139456
380 0.143463
385 0.0977706
390 0.126722
395 0.127226
400 0.106742
405 0.108931
410 0.137556
415 0.119237
420 0.0902182
425 0.101081
430 0.129562
435 0.111365
440 0.119681
445 0.120234
450 0.163031
455 0.176116
460 0.197354
465 0.206811
470 0.261875
475 0.323952
480 0.5165
485 21.557
490 317.728
495 446.127
500 107.169
505 13.2482
510 2.36073
515 1.12598
520 0.912783
525 1.21715
530 1.23358
535 1.27937
540 1.17316
545 1.04835
550 0.81591
555 0.775032
560 0.723123
565 0.654753
570 0.776045
575 1.13179
580 1.14694
585 0.569473
590 0.398201
595 0.328084
600 0.130423
Ex : 503
200 0.118208
205 0.0862889
210 0.134846
215 0.117498
220 0.101407
225 0.103268
230 0.109632
235 0.163385
240 0.0953223
245 0.217406
250 0.0926854
255 0.105924
260 0.1105
265 0.090469
270 0.0954436
275 0.0803452
280 0.123133
285 0.158577
290 0.132324
295 0.159472
300 0.123688
305 0.0868712
310 0.124844
315 0.103083
320 0.0916033
325 0.139499
330 0.123957
335 0.147764
340 0.105482
345 0.0793113
350 0.133433
355 0.084984
360 0.0871573
365 0.157071
370 0.122425
375 0.111277
380 0.1317
385 0.171072
390 0.12225
395 0.137568
400 0.105914
405 0.13316
410 0.1534
415 0.0834452
420 0.101013
425 0.124975
430 0.116002
435 0.14394
440 0.193545
445 0.215435
450 0.109706
455 0.153462
460 0.178395
465 0.165609
470 0.188985
475 0.20065
480 0.408213
485 0.533475
490 20.0092
495 318.16
500 452.027
505 105.146
510 13.035
515 2.35047
520 1.21125
525 0.999108
530 1.1084
535 1.14948
540 1.28972
545 1.13993
550 0.933539
555 0.687051
560 0.642191
565 0.654212
570 0.554938
575 0.532555
580 0.702109
585 0.921758
590 0.59246
595 0.342471
600 0.229298
Ex : 508
200 0.110615
205 0.140813
210 0.166333
215 0.115437
220 0.103341
225 0.0988716
230 0.128987
235 0.0655882
240 0.141283
245 0.125049
250 0.114902
255 0.075289
260 0.101765
265 0.113094
270 0.180338
275 0.169991
280 0.118006
285 0.116858
290 0.111722
295 0.107545
300 0.091753
305 0.191975
310 0.114839
315 0.135871
320 0.152355
325 0.105773
330 0.0975801
335 0.1276
340 0.155947
345 0.124247
350 0.111547
355 0.0937107
360 0.112382
365 0.130574
370 0.10191
375 0.156028
380 0.125637
385 0.145211
390 0.121738
395 0.122008
400 0.101311
405 0.0931285
410 0.138896
415 0.165265
420 0.134086
425 0.191389
430 0.119581
435 0.205437
440 0.129734
445 0.113773
450 0.23542
455 0.149266
460 0.211032
465 0.198296
470 0.208417
475 0.210363
480 0.217388
485 0.360558
490 0.584263
495 21.3925
500 317.011
505 447.116
510 108.06
515 13.3853
520 2.52305
525 1.15673
530 1.0515
535 0.990584
540 1.20651
545 1.16162
550 0.98535
555 0.791031
560 0.767376
565 0.596466
570 0.532579
575 0.411904
580 0.395481
585 0.437597
590 0.835588
595 0.625038
600 0.851637
Ex : 513
200 0.164136
205 0.088088
210 0.105744
215 0.110832
220 0.144061
225 0.103724
230 0.0867945
235 0.0847547
240 0.079354
245 0.0962141
250 0.106477
255 0.128304
260 0.133847
265 0.114808
270 0.0795025
275 0.113201
280 0.0788673
285 0.0604866
290 0.10599
295 0.126714
300 0.162988
305 0.140728
310 0.158159
315 0.14045
320 0.130981
325 0.122811
330 0.0756401
335 0.156959
340 0.132316
345 0.175942
350 0.133046
355 0.114162
360 0.130423
365 0.142852
370 0.0819267
375 0.118206
380 0.116586
385 0.124317
390 0.120332
395 0.146145
400 0.127269
405 0.128715
410 0.220952
415 0.171804
420 0.155143
425 0.16258
430 0.116834
435 0.188988
440 0.106307
445 0.169418
450 0.226559
455 0.170679
460 0.148191
465 0.206088
470 0.168573
475 0.158348
480 0.169276
485 0.282167
490 0.328273
495 0.659671
500 19.5127
505 315.89
510 466.445
515 114.37
520 14.2019
525 2.51238
530 1.24941
535 1.0156
540 0.948589
545 1.08693
550 1.23584
555 1.03191
560 0.764451
565 0.640745
570 0.519101
575 0.355039
580 0.378593
585 0.338218
590 0.250806
595 0.456665
600 0.784229
Ex : 518
200 0.0784
205 0.113031
210 0.116253
215 0.160335
220 0.090597
225 0.127085
230 0.114911
235 0.0995203
240 0.0811972
245 0.0760516
250 0.0825475
255 0.0826825
260 0.127569
265 0.116917
270 0.108116
275 0.100074
280 0.143875
285 0.133959
290 0.15796
295 0.104554
300 0.127543
305 0.146332
310 0.144639
315 0.232619
320 0.102589
325 0.110141
330 0.076543
335 0.166869
340 0.140909
345 0.1575
350 0.110071
355 0.0807824
360 0.106805
365 0.111504
370 0.130672
375 0.130444
380 0.124951
385 0.138835
390 0.245514
395 0.121868
400 0.11471
405 0.149495
410 0.153107
415 0.113303
420 0.138635
425 0.108948
430 0.114989
435 0.157442
440 0.129604
445 0.134348
450 0.201793
455 0.171039
460 0.15589
465 0.139323
470 0.168962
475 0.236457
480 0.181439
485 0.208038
490 0.242224
495 0.318735
500 0.519841
505 19.3439
510 298.803
515 443.977
520 110.605
525 13.7634
530 2.5895
535 1.3116
540 1.13762
545 0.871335
550 1.00525
555 1.11595
560 0.87884
565 0.736215
570 0.471032
575 0.481674
580 0.311243
585 0.226958
590 0.343469
595 0.217841
600 0.698983
Ex : 523
200 0.160666
205 0.124838
210 0.106992
215 0.121122
220 0.144535
225 0.107508
230 0.0986153
235 0.136831
240 0.0883706
245 0.112791
250 0.0805598
255 0.106989
260 0.108745
265 0.104585
270 0.0916871
275 0.122815
280 0.163763
285 0.145733
290 0.17167
295 0.136041
300 0.145156
305 0.108579
310 0.117481
315 0.120246
320 0.0969432
325 0.0910202
330 0.0867253
335 0.114479
340 0.168866
345 0.111659
350 0.112651
355 0.11448
360 0.158412
365 0.142992
370 0.093694
375 0.125732
380 0.158108
385 0.14054
390 0.121616
395 0.127326
400 0.151347
405 0.154733
410 0.135881
415 0.104506
420 0.0946327
425 0.116759
430 0.208262
435 0.129717
440 0.114605
445 0.131916
450 0.138464
455 0.23736
460 0.16166
465 0.131899
470 0.193592
475 0.170361
480 0.248344
485 0.203646
490 0.280442
495 0.248127
500 0.313098
505 0.592409
510 17.8737
515 297.576
520 449.622
525 114.687
530 14.361
535 2.67303
540 1.34325
545 1.15723
550 1.03167
555 1.01458
560 1.05583
565 0.779336
570 0.617416
575 0.533153
580 0.420171
585 0.223688
590 0.288642
595 0.182576
600 0.0815943
Ex : 528
200 0.162459
205 0.124475
210 0.0760839
215 0.107547
220 0.144761
225 0.0848508
230 0.129795
235 0.093222
240 0.11012
245 0.125044
250 0.0973892
255 0.132165
260 0.0898892
265 0.099434
270 0.115971
275 0.119632
280 0.0791181
285 0.108112
290 0.103148
295 0.111924
300 0.083875
305 0.138245
310 0.125367
315 0.164402
320 0.15929
325 0.125473
330 0.0824142
335 0.126686
340 0.154542
345 0.143878
350 0.155831
355 0.132145
360 0.0987811
365 0.151065
370 0.152812
375 0.113445
380 0.133879
385 0.0938542
390 0.095888
395 0.100445
400 0.118014
405 0.194839
410 0.129814
415 0.144275
420 0.125549
425 0.167434
430 0.152418
435 0.199083
440 0.106144
445 0.138834
450 0.153972
455 0.164951
460 0.202624
465 0.168081
470 0.127664
475 0.134634
480 0.146699
485 0.160355
490 0.188166
495 0.182312
500 0.237079
505 0.351556
510 0.484525
515 16.8314
520 290.418
525 443.391
530 115.333
535 14.3726
540 2.60992
545 1.3931
550 1.14402
555 0.94541
560 1.00693
565 0.785829
570 0.73433
575 0.633002
580 0.379602
585 0.391148
590 0.284981
595 0.243122
600 0.291737
Ex : 533
200 0.109424
205 0.106755
210 0.133339
215 0.114199
220 0.10918
225 0.135105
230 0.108914
235 0.19133
240 0.114851
245 0.122861
250 0.115942
255 0.0974928
260 0.126191
265 0.126532
270 0.115494
275 0.126459
280 0.133248
285 0.149321
290 0.124139
295 0.116854
300 0.151069
305 0.149317
310 0.160833
315 0.11621
320 0.156142
325 0.0989021
330 0.140819
335 0.152861
340 0.219953
345 0.12417
350 0.144223
355 0.137683
360 0.101315
365 0.128758
370 0.0900093
375 0.138733
380 0.141973
385 0.124311
390 0.16632
395 0.145111
400 0.132574
405 0.121507
410 0.133449
415 0.158039
420 0.171746
425 0.131509
430 0.127295
435 0.0881125
440 0.111371
445 0.0967179
450 0.211882
455 0.130895
460 0.136333
465 0.110154
470 0.178818
475 0.158937
480 0.139924
485 0.223163
490 0.246946
495 0.23359
500 0.203554
505 0.284547
510 0.361667
515 0.446546
520 16.3797
525 272.494
530 429.253
535 113.061
540 14.0893
545 2.61934
550 1.33118
555 1.06088
560 0.832492
565 0.649859
570 0.671457
575 0.443723
580 0.433145
585 0.363338
590 0.219506
595 0.214704
600 0.0244325
Ex : 538
200 0.0677486
205 0.103214
210 0.119515
215 0.124203
220 0.132825
225 0.198725
230 0.149165
235 0.115403
240 0.131721
245 0.093204
250 0.123712
255 0.132884
260 0.169209
265 0.1561
270 0.157425
275 0.207799
280 0.151056
285 0.128643
290 0.130838
295 0.1407
300 0.191103
305 0.149633
310 0.194014
315 0.205771
320 0.12452
325 0.239245
330 0.130098
335 0.138774
340 0.270244
345 0.276289
350 0.113605
355 0.113837
360 0.209079
365 0.115925
370 0.144852
375 0.171043
380 0.110431
385 0.150472
390 0.193217
395 0.113314
400 0.163745
405 0.194836
410 0.148871
415 0.1634
420 0.192082
425 0.134791
430 0.107637
435 0.218091
440 0.111358
445 0.142019
450 0.16596
455 0.199697
460 0.161782
465 0.208639
470 0.200845
475 0.135811
480 0.155521
485 0.165837
490 0.218527
495 0.196532
500 0.228381
505 0.247799
510 0.307738
515 0.387919
520 0.574553
525 14.5186
530 257.325
535 423.707
540 116.393
545 14.5258
550 2.54611
555 1.16207
560 0.767766
565 0.511506
570 0.49894
575 0.494275
580 0.297065
585 0.322436
590 0.420331
595 0.221075
600 0.0251575
Ex : 543
200 0.174864
205 0.174855
210 0.202925
215 0.113976
220 0.117354
225 0.150466
230 0.152083
235 0.146037
240 0.165357
245 0.153433
250 0.162615
255 0.094857
260 0.0639077
265 0.124718
270 0.141079
275 0.152466
280 0.240404
285 0.164551
290 0.149461
295 0.105322
300 0.19206
305 0.14546
310 0.142493
315 0.126268
320 0.145362
325 0.183723
330 0.159321
335 0.116859
340 0.164311
345 0.150946
350 0.141985
355 0.153441
360 0.114616
365 0.135246
370 0.190941
375 0.188792
380 0.113475
385 0.188218
390 0.127829
395 0.158195
400 0.143423
405 0.156409
410 0.13035
415 0.171028
420 0.144267
425 0.136748
430 0.179498
435 0.162961
440 0.125594
445 0.189695
450 0.159957
455 0.206067
460 0.198422
465 0.15861
470 0.151215
475 0.107198
480 0.170487
485 0.141648
490 0.185667
495 0.189935
500 0.197086
505 0.177543
510 0.222663
515 0.338574
520 0.35454
525 0.476185
530 12.9417
535 249.789
540 421.62
545 117.634
550 14.7002
555 2.39536
560 0.897214
565 0.576454
570 0.499573
575 0.31724
580 0.279677
585 0.393893
590 0.225541
595 0.239953
600 0.14971
Ex : 548
200 0.125289
205 0.119298
210 0.148166
215 0.189401
220 0.107729
225 0.0985429
230 0.168377
235 0.0791193
240 0.135743
245 0.125875
250 0.104324
255 0.0511751
260 0.13933
265 0.129221
270 0.162001
275 0.190729
280 0.180124
285 0.257962
290 0.138239
295 0.121341
300 0.1065
305 0.097261
310 0.117693
315 0.120485
320 0.154171
325 0.118581
330 0.13535
335 0.140741
340 0.18135
345 0.194934
350 0.166623
355 0.148714
360 0.184606
365 0.169978
370 0.158036
375 0.119779
380 0.128257
385 0.113507
390 0.150041
395 0.234975
400 0.169715
405 0.168545
410 0.138226
415 0.137034
420 0.147398
425 0.115551
430 0.235096
435 0.206552
440 0.155819
445 0.180685
450 0.137951
455 0.130371
460 0.146787
465 0.154017
470 0.137766
475 0.145862
480 0.177793
485 0.192704
490 0.193495
495 0.18966
500 0.254127
505 0.201461
510 0.219014
515 0.300924
520 0.26064
525 0.299839
530 0.620732
535 14.04
540 247.151
545 409.515
550 116.232
555 14.1915
560 2.13165
565 0.745665
570 0.583601
575 0.343123
580 0.281818
585 0.32234
590 0.278738
595 0.216835
600 0.216014
Ex : 553
200 0.0903496
205 0.121649
210 0.118337
215 0.126038
220 0.247442
225 0.130172
230 0.108309
235 0.215504
240 0.133378
245 0.125641
250 0.139099
255 0.128133
260 0.152969
265 0.128774
270 0.145736
275 0.102672
280 0.105958
285 0.132516
290 0.111203
295 0.140803
300 0.0970173
305 0.117855
310 0.157628
315 0.149864
320 0.177273
325 0.132179
330 0.198631
335 0.123306
340 0.165411
345 0.114872
350 0.183179
355 0.144443
360 0.147403
365 0.179372
370 0.164689
375 0.182742
380 0.220294
385 0.127227
390 0.179721
395 0.165133
400 0.129239
405 0.166171
410 0.124185
415 0.172244
420 0.101779
425 0.178713
430 0.157812
435 0.183179
440 0.186985
445 0.209268
450 0.170222
455 0.156939
460 0.157766
465 0.180748
470 0.139562
475 0.196003
480 0.15748
485 0.18382
490 0.189671
495 0.180402
500 0.231584
505 0.274096
510 0.159664
515 0.209343
520 0.284793
525 0.253493
530 0.384008
535 0.488111
540 12.5966
545 239.804
550 399.748
555 114.292
560 13.7739
565 2.12553
570 0.562446
575 0.485054
580 0.268946
585 0.167424
590 0.214871
595 0.253363
600 0.313683
Ex : 558
200 0.128646
205 0.151028
210 0.150246
215 0.114992
220 0.16537
225 0.145566
230 0.124145
235 0.133345
240 0.204385
245 0.173901
250 0.170201
255 0.11604
260 0.138816
265 0.137035
270 0.194822
275 0.166056
280 0.172063
285 0.0948734
290 0.191489
295 0.115776
300 0.166537
305 0.150169
310 0.125664
315 0.138121
320 0.173202
325 0.293409
330 0.216759
335 0.153816
340 0.147295
345 0.115717
350 0.12826
355 0.18848
360 0.157362
365 0.143161
370 0.168694
375 0.128397
380 0.125451
385 0.160731
390 0.140181
395 0.226947
400 0.181571
405 0.19314
410 0.160816
415 0.183148
420 0.189237
425 0.17308
430 0.109134
435 0.132155
440 0.252772
445 0.183815
450 0.227264
455 0.127874
460 0.165839
465 0.170295
470 0.0898826
475 0.177791
480 0.186604
485 0.182046
490 0.129023
495 0.144915
500 0.206355
505 0.220873
510 0.140256
515 0.167657
520 0.184268
525 0.189659
530 0.263793
535 0.428419
540 0.618052
545 11.5262
550 220.329
555 390.514
560 112.971
565 13.5992
570 1.97726
575 0.562637
580 0.383613
585 0.276899
590 0.167898
595 0.145028
600 0.28505
Ex : 563
200 0.16032
205 0.180994
210 0.15907
215 0.123577
220 0.145057
225 0.131598
230 0.126703
235 0.130947
240 0.138843
245 0.13531
250 0.185176
255 0.144571
260 0.207171
265 0.141134
270 0.107189
275 0.142295
280 0.148353
285 0.107109
290 0.11949
295 0.182625
300 0.14299
305 0.123561
310 0.168067
315 0.131256
320 0.134254
325 0.301534
330 0.10764
335 0.170039
340 0.127122
345 0.158024
350 0.214679
355 0.165462
360 0.226539
365 0.125579
370 0.128183
375 0.201429
380 0.175209
385 0.178341
390 0.230706
395 0.155497
400 0.214897
405 0.159355
410 0.0954725
415 0.113632
420 0.213114
425 0.183587
430 0.159975
435 0.130355
440 0.133375
445 0.171465
450 0.244262
455 0.148769
460 0.204234
465 0.123883
470 0.155057
475 0.170034
480 0.0972747
485 0.17417
490 0.178023
495 0.13125
500 0.240309
505 0.203264
510 0.245277
515 0.160602
520 0.148502
525 0.198328
530 0.256856
535 0.290942
540 0.359555
545 0.514191
550 11.7959
555 218.986
560 382.794
565 113.102
570 13.7276
575 1.87357
580 0.455284
585 0.313212
590 0.264865
595 0.229646
600 0.0261329
Ex : 568
200 0.0721382
205 0.126033
210 0.159
215 0.159562
220 0.216787
225 0.171508
230 0.16035
235 0.21096
240 0.159808
245 0.142331
250 0.116212
255 0.136179
260 0.143586
265 0.123269
270 0.133332
275 0.154549
280 0.10036
285 0.117404
290 0.245787
295 0.147221
300 0.12388
305 0.144284
310 0.10659
315 0.155935
320 0.129947
325 0.17653
330 0.123786
335 0.141429
340 0.17118
345 0.211369
350 0.186764
355 0.165642
360 0.140815
365 0.208345
370 0.155247
375 0.188075
380 0.193465
385 0.180584
390 0.158865
395 0.198121
400 0.184696
405 0.191847
410 0.211211
415 0.170523
420 0.122423
425 0.213967
430 0.182194
435 0.287708
440 0.157583
445 0.161198
450 0.124413
455 0.192441
460 0.217185
465 0.219649
470 0.174996
475 0.195
480 0.202475
485 0.149994
490 0.1417
495 0.143702
500 0.170416
505 0.168261
510 0.247393
515 0.173598
520 0.23443
525 0.159196
530 0.186218
535 0.140182
540 0.185593
545 0.299883
550 0.376722
555 8.48966
560 194.256
565 367.789
570 112.855
575 13.7249
580 1.80896
585 0.504463
590 0.325019
595 0.207801
600 0.150247
Ex : 573
200 0.143533
205 0.105406
210 0.205812
215 0.128606
220 0.16409
225 0.155359
230 0.162169
235 0.124329
240 0.139615
245 0.10144
250 0.0804392
255 0.194868
260 0.110472
265 0.179972
270 0.151319
275 0.109383
280 0.14871
285 0.150199
290 0.173109
295 0.283131
300 0.142977
305 0.131384
310 0.102119
315 0.151474
320 0.136564
325 0.207413
330 0.12064
335 0.130267
340 0.153709
345 0.120784
350 0.159157
355 0.176106
360 0.184262
365 0.143554
370 0.154312
375 0.145329
380 0.128311
385 0.162748
390 0.166527
395 0.196613
400 0.198769
405 0.174946
410 0.138726
415 0.173636
420 0.202114
425 0.21869
430 0.144147
435 0.131836
440 0.183168
445 0.209211
450 0.151359
455 0.133741
460 0.177049
465 0.184666
470 0.206571
475 0.209511
480 0.330327
485 0.232738
490 0.205102
495 0.14768
500 0.163752
505 0.249843
510 0.203673
515 0.111657
520 0.178658
525 0.2343
530 0.137884
535 0.185284
540 0.247637
545 0.296152
550 0.249011
555 0.399026
560 7.45556
565 168.219
570 337.309
575 106.164
580 12.865
585 1.71132
590 0.470888
595 0.173713
600 0.172359
Ex : 578
200 0.133214
205 0.125097
210 0.141044
215 0.069632
220 0.190651
225 0.142548
230 0.136327
235 0.306234
240 0.115715
245 0.135117
250 0.14673
255 0.13249
260 0.178064
265 0.141705
270 0.109747
275 0.136108
280 0.121334
285 0.123892
290 0.159764
295 0.142165
300 0.0873763
305 0.127707
310 0.186943
315 0.131521
320 0.143726
325 0.152214
330 0.160309
335 0.146707
340 0.137905
345 0.114887
350 0.151929
355 0.143744
360 0.195606
365 0.180188
370 0.170357
375 0.197987
380 0.232157
385 0.201196
390 0.137859
395 0.131204
400 0.118149
405 0.282675
410 0.174424
415 0.185532
420 0.149406
425 0.215741
430 0.146765
435 0.194029
440 0.229702
445 0.194747
450 0.198643
455 0.220039
460 0.214444
465 0.176912
470 0.274885
475 0.17033
480 0.169843
485 0.148243
490 0.213868
495 0.202071
500 0.180723
505 0.143621
510 0.202378
515 0.170247
520 0.13325
525 0.157711
530 0.141845
535 0.183558
540 0.21623
545 0.217278
550 0.270506
555 0.274877
560 0.263491
565 6.31727
570 152.355
575 299.144
580 94.8011
585 11.36
590 1.58152
595 0.394874
600 0.208822
Ex : 583
200 0.115744
205 0.144057
210 0.184106
215 0.196431
220 0.154128
225 0.16638
230 0.114477
235 0.11093
240 0.0680205
245 0.136702
250 0.159617
255 0.204907
260 0.185614
265 0.120682
270 0.184168
275 0.153198
280 0.146603
285 0.0740062
290 0.111763
295 0.190255
300 0.177759
305 0.141399
310 0.148231
315 0.11038
320 0.0722648
325 0.10228
330 0.21878
335 0.109496
340 0.158554
345 0.130379
350 0.202331
355 0.14594
360 0.138182
365 0.179087
370 0.120387
375 0.157207
380 0.173771
385 0.166375
390 0.253675
395 0.230026
400 0.221756
405 0.158663
410 0.183
415 0.188295
420 0.285289
425 0.203959
430 0.207935
435 0.142249
440 0.145584
445 0.0955326
450 0.26537
455 0.249067
460 0.263005
465 0.33656
470 0.173833
475 0.173671
480 0.269528
485 0.137681
490 0.176809
495 0.171195
500 0.156303
505 0.213692
510 0.251932
515 0.217366
520 0.167945
525 0.11902
530 0.249364
535 0.195134
540 0.197812
545 0.240239
550 0.178372
555 0.203815
560 0.223357
565 0.309169
570 5.24714
575 137.802
580 260.795
585 77.2483
590 9.27843
595 1.23908
600 0.391584
Ex : 588
200 0.147145
205 0.148977
210 0.178807
215 0.107847
220 0.0925285
225 0.108962
230 0.142046
235 0.0954893
240 0.0956698
245 0.198534
250 0.138733
255 0.159209
260 0.151309
265 0.111675
270 0.152222
275 0.156884
280 0.12022
285 0.182962
290 0.136419
295 0.116527
300 0.188433
305 0.143094
310 0.0866172
315 0.156079
320 0.184763
325 0.147405
330 0.178663
335 0.230432
340 0.155004
345 0.163394
350 0.180464
355 0.135218
360 0.153601
365 0.147476
370 0.173713
375 0.0729707
380 0.181131
385 0.201058
390 0.19483
395 0.119336
400 0.199609
405 0.197813
410 0.200674
415 0.202476
420 0.124545
425 0.220381
430 0.267051
435 0.157516
440 0.136291
445 0.124921
450 0.138843
455 0.192979
460 0.132313
465 0.0970044
470 0.185136
475 0.256327
480 0.178043
485 0.192156
490 0.161697
495 0.200438
500 0.206273
505 0.205353
510 0.211486
515 0.157128
520 0.151963
525 0.169002
530 0.164712
535 0.149384
540 0.0982206
545 0.171111
550 0.248798
555 0.251953
560 0.258708
565 0.252912
570 0.390067
575 4.57562
580 116.259
585 233.29
590 69.2375
595 8.38365
600 0.973155
Ex : 593
200 0.100975
205 0.134159
210 0.188818
215 0.122144
220 0.0888081
225 0.119289
230 0.112221
235 0.17258
240 0.109745
245 0.157846
250 0.107212
255 0.120058
260 0.23834
265 0.141201
270 0.124602
275 0.133863
280 0.151659
285 0.0971947
290 0.144375
295 0.301486
300 0.211517
305 0.14107
310 0.171753
315 0.119275
320 0.206611
325 0.0933601
330 0.158676
335 0.169674
340 0.155796
345 0.140768
350 0.178662
355 0.163813
360 0.160421
365 0.120257
370 0.171706
375 0.192108
380 0.227509
385 0.179308
390 0.192559
395 0.191395
400 0.196211
405 0.178368
410 0.156047
415 0.2544
420 0.195747
425 0.179619
430 0.153944
435 0.15997
440 0.138468
445 0.216288
450 0.152065
455 0.142824
460 0.22497
465 0.19887
470 0.13054
475 0.293653
480 0.135442
485 0.183793
490 0.232771
495 0.24095
500 0.173021
505 0.180876
510 0.180688
515 0.162438
520 0.151755
525 0.167951
530 0.182007
535 0.158248
540 0.274072
545 0.137797
550 0.218859
555 0.133807
560 0.218408
565 0.215892
570 0.229175
575 0.245864
580 4.34034
585 105.155
590 196.793
595 57.0697
600 9.26705
Ex : 598
200 0.271279
205 0.177256
210 0.238477
215 0.140953
220 0.160771
225 0.120743
230 0.151106
235 0.268565
240 0.141673
245 0.171048
250 0.119509
255 0.138713
260 0.131793
265 0.112042
270 0.178597
275 0.103227
280 0.131418
285 0.144835
290 0.146281
295 0.195875
300 0.166822
305 0.114749
310 0.153153
315 0.171924
320 0.242211
325 0.19315
330 0.143105
335 0.175865
340 0.227494
345 0.190269
350 0.147624
355 0.156841
360 0.119908
365 0.200599
370 0.173982
375 0.187663
380 0.230211
385 0.222925
390 0.179689
395 0.225866
400 0.324244
405 0.135028
410 0.235105
415 0.182618
420 0.176265
425 0.236929
430 0.216522
435 0.243552
440 0.163564
445 0.175649
450 0.216509
455 0.190686
460 0.186371
465 0.101865
470 0.131649
475 0.221807
480 0.167817
485 0.153068
490 0.144767
495 0.192261
500 0.107477
505 0.12517
510 0.134215
515 0.120436
520 0.189299
525 0.186832
530 0.185827
535 0.199602
540 0.238336
545 0.128828
550 0.160448
555 0.207246
560 0.206171
565 0.349559
570 0.215438
575 0.299923
580 0.363861
585 4.19626
590 94.1984
595 182.344
600 119.008
Ex : 603
200 0.166077
205 0.180314
210 0.211131
215 0.117246
220 0.176053
225 0.132432
230 0.124287
235 0.261672
240 0.115861
245 0.414417
250 0.228228
255 0.132435
260 0.192731
265 0.160838
270 0.164803
275 0.111363
280 0.158854
285 0.170415
290 0.127757
295 0.133455
300 0.135834
305 0.160282
310 0.160172
315 0.0916955
320 0.14465
325 0.146136
330 0.165295
335 0.212612
340 0.159725
345 0.16394
350 0.270148
355 0.133699
360 0.137389
365 0.145665
370 0.227845
375 0.142534
380 0.183226
385 0.244761
390 0.148301
395 0.168247
400 0.145322
405 0.243926
410 0.19297
415 0.27364
420 0.185614
425 0.242498
430 0.239014
435 0.19267
440 0.271044
445 0.211032
450 0.164606
455 0.205523
460 0.221024
465 0.155929
470 0.154232
475 0.155734
480 0.22752
485 0.250552
490 0.158573
495 0.142736
500 0.219029
505 0.254494
510 0.153159
515 0.109304
520 0.173455
525 0.171784
530 0.145624
535 0.211057
540 0.30958
545 0.275982
550 0.25468
555 0.194123
560 0.171825
565 0.235428
570 0.226178
575 0.211662
580 0.186267
585 0.248626
590 3.44456
595 78.0493
600 164.634
