File format V 1.0
jeu. 5. janv. 21:00:40 2017
Operator : 
Comments : 

=============================================
SpectroFluorometer parameters
Mode : 3D measurement
Data : Fluorescence
Phospho. : Ordinary
Spectrum : Fluorescence

Scan speed : 2400 nm/mn
Response : 100 ms
PM Voltage : 700 V
Shutter : On

Lambda Ex. Start : 203
Lambda Ex. End : 603
Lambda Ex. Step : 5
Ex. Slit : 5 nm

Lambda Em. Start : 200
Lambda Em. End : 600
Lambda Em. Step : 5
Em. Slit : 5 nm

Repetition : 1
Decal lambda em : 10
=============================================
DATA
Ex : 203
200 3.36145
205 5.18279
210 4.77287
215 6.46298
220 3.98488
225 2.04624
230 8.85538
235 5.8486
240 3.27237
245 6.53553
250 4.97361
255 5.53995
260 5.15615
265 7.1141
270 5.96025
275 6.37613
280 7.63012
285 5.29372
290 3.4167
295 4.72075
300 5.52967
305 4.55304
310 5.47848
315 2.91383
320 2.3072
325 3.59582
330 3.365
335 2.6978
340 3.73794
345 6.55541
350 5.37331
355 7.44144
360 5.87454
365 7.05141
370 4.10107
375 3.59516
380 7.04367
385 5.56871
390 5.2316
395 5.30329
400 5.20385
405 3.17023
410 4.86611
415 6.13568
420 3.0578
425 6.29008
430 7.49496
435 6.67485
440 4.85383
445 6.0013
450 5.97156
455 6.28648
460 5.52289
465 4.01656
470 4.21316
475 6.09003
480 6.31583
485 6.24216
490 3.77124
495 4.14773
500 2.95337
505 3.92723
510 5.9583
515 4.7613
520 4.41896
525 5.8591
530 5.83821
535 5.71696
540 7.25476
545 6.01781
550 4.37363
555 5.34192
560 2.66313
565 6.4132
570 3.89403
575 5.51128
580 3.77876
585 7.90957
590 3.96414
595 3.23872
600 0.368554
Ex : 208
200 5.78667
205 3.44118
210 7.69849
215 4.48674
220 5.04339
225 5.24821
230 7.63297
235 8.49691
240 5.90996
245 8.03619
250 4.43228
255 3.84803
260 6.99223
265 4.64989
270 3.96617
275 6.16184
280 2.98667
285 1.8564
290 4.41297
295 3.28892
300 6.43194
305 5.38183
310 3.71117
315 6.07549
320 3.93059
325 6.14834
330 6.75718
335 6.90212
340 4.0332
345 8.55225
350 6.72747
355 9.21906
360 5.66449
365 4.07864
370 3.61016
375 4.28725
380 5.83896
385 5.65006
390 6.26105
395 6.67918
400 7.23057
405 5.62944
410 7.485
415 6.13468
420 3.16432
425 4.30971
430 5.68738
435 6.93925
440 5.99815
445 5.95025
450 5.21968
455 5.64301
460 4.74668
465 2.66477
470 6.66005
475 5.92839
480 8.77621
485 2.85382
490 15.2823
495 7.52049
500 6.63141
505 5.65303
510 4.79359
515 5.06819
520 3.83958
525 4.41659
530 4.21174
535 5.48872
540 4.47039
545 3.75622
550 3.29284
555 7.82688
560 9.62035
565 4.3537
570 4.2518
575 6.08864
580 7.78249
585 5.73527
590 4.35698
595 3.91899
600 0.445966
Ex : 213
200 12.0592
205 5.58325
210 6.49001
215 8.60975
220 6.22792
225 4.27748
230 10.352
235 7.7371
240 6.54764
245 3.9429
250 10.185
255 3.39587
260 2.89361
265 2.4174
270 3.64388
275 5.57514
280 8.17542
285 5.37286
290 7.719
295 4.42878
300 6.33091
305 3.71558
310 4.06359
315 6.4062
320 4.03565
325 3.82013
330 3.28403
335 4.67012
340 8.43482
345 4.53919
350 5.4921
355 10.3281
360 4.76737
365 4.33004
370 5.40715
375 3.94744
380 5.81217
385 3.79845
390 8.05603
395 4.53107
400 4.80942
405 5.11067
410 5.69382
415 5.62019
420 3.95836
425 7.41261
430 3.75209
435 4.68287
440 6.05958
445 5.30567
450 6.70999
455 5.54907
460 6.24227
465 6.01106
470 6.11979
475 7.3602
480 7.09312
485 3.9593
490 4.19602
495 3.30763
500 4.65135
505 8.37531
510 7.56427
515 5.47442
520 5.00995
525 7.67082
530 3.26088
535 4.80812
540 5.52888
545 5.00805
550 10.6971
555 10.8942
560 9.77896
565 5.63513
570 7.52548
575 3.90306
580 5.57453
585 3.14806
590 2.49795
595 5.48008
600 0.623613
Ex : 218
200 6.99387
205 3.68684
210 5.46019
215 8.4103
220 3.97479
225 2.86978
230 6.85174
235 4.39837
240 3.62925
245 2.49557
250 6.3199
255 4.36307
260 7.11534
265 4.39378
270 4.73882
275 3.33862
280 2.72811
285 4.50114
290 3.75289
295 4.24847
300 2.63487
305 5.19322
310 4.13038
315 3.22415
320 3.13986
325 7.361
330 5.84042
335 4.46507
340 4.73507
345 6.83761
350 6.79239
355 6.74641
360 5.69938
365 7.32464
370 3.91688
375 4.27479
380 2.28348
385 4.76819
390 8.68813
395 4.59717
400 5.39726
405 5.89215
410 6.03176
415 7.77019
420 9.21805
425 7.2801
430 8.21717
435 5.19332
440 7.21724
445 4.26954
450 3.76423
455 6.37635
460 3.2551
465 3.07919
470 4.99411
475 2.79425
480 4.53005
485 2.00923
490 4.54819
495 2.64121
500 6.47322
505 6.33079
510 5.77667
515 10.6954
520 5.98811
525 4.57956
530 6.14491
535 4.80187
540 5.48225
545 5.6474
550 6.29152
555 4.6566
560 5.00757
565 6.01367
570 5.5376
575 7.77192
580 5.77908
585 7.44817
590 4.31238
595 3.0323
600 1.67437
Ex : 223
200 4.61272
205 4.1663
210 2.36184
215 4.6232
220 3.58437
225 6.90144
230 6.30236
235 5.19143
240 4.6673
245 4.16742
250 5.06638
255 5.43502
260 3.05027
265 6.95445
270 8.10972
275 2.83337
280 3.66404
285 1.85228
290 4.27435
295 2.61527
300 5.84652
305 5.65778
310 10.783
315 3.6272
320 3.52244
325 7.38434
330 6.87886
335 6.0854
340 5.48907
345 4.83951
350 7.11369
355 4.39729
360 7.20332
365 7.89342
370 6.65031
375 6.074
380 4.93565
385 5.04161
390 4.09521
395 4.7529
400 4.94114
405 6.85987
410 6.96895
415 6.35291
420 6.83279
425 5.19769
430 5.29693
435 6.57664
440 4.67779
445 2.49691
450 2.99956
455 5.23494
460 5.55227
465 5.77902
470 4.48916
475 5.28491
480 5.19765
485 6.2041
490 5.13119
495 5.57548
500 6.76891
505 6.252
510 4.56405
515 6.06095
520 5.72891
525 4.01739
530 5.36662
535 4.01151
540 5.04188
545 4.6908
550 4.51103
555 4.6251
560 4.06052
565 3.77854
570 7.72006
575 3.16967
580 4.94033
585 4.49607
590 4.40521
595 7.86403
600 6.74384
Ex : 228
200 4.33721
205 3.34571
210 3.98529
215 3.27796
220 4.87258
225 5.43116
230 3.35632
235 4.68076
240 3.89631
245 3.78176
250 6.48137
255 3.08549
260 4.04873
265 6.00807
270 7.09925
275 3.86035
280 3.52573
285 3.04463
290 2.88726
295 5.64578
300 3.61259
305 6.24657
310 3.96379
315 4.19054
320 4.47221
325 5.96875
330 6.41819
335 3.92283
340 4.12873
345 6.50472
350 2.38112
355 3.39328
360 2.35548
365 4.25596
370 7.14152
375 6.37883
380 4.01906
385 4.26592
390 3.30326
395 7.08852
400 4.94401
405 5.09668
410 3.21724
415 5.37086
420 5.83979
425 4.64191
430 3.71759
435 3.37381
440 4.27725
445 3.9057
450 4.1292
455 5.70053
460 6.08633
465 5.89562
470 7.8156
475 5.70248
480 6.01146
485 8.27608
490 5.46664
495 5.28247
500 3.75951
505 4.61986
510 4.25579
515 5.38146
520 2.83975
525 3.20197
530 4.57764
535 4.25774
540 5.89502
545 4.02751
550 5.10342
555 4.62436
560 3.34457
565 7.6223
570 6.39224
575 4.06936
580 6.09646
585 3.66388
590 6.71004
595 3.2469
600 0.369484
Ex : 233
200 0.966184
205 3.1583
210 2.67646
215 7.17382
220 4.51551
225 3.73724
230 3.00202
235 3.37109
240 6.46664
245 4.56289
250 3.97942
255 5.12081
260 4.02741
265 3.88464
270 1.94676
275 4.02147
280 2.94183
285 2.59844
290 6.6453
295 2.67096
300 3.33353
305 2.64684
310 4.57499
315 6.66923
320 4.26739
325 5.67756
330 4.68826
335 6.23844
340 4.31633
345 4.73125
350 3.56881
355 3.07457
360 6.77823
365 3.60907
370 3.43632
375 2.49342
380 6.56551
385 6.06435
390 3.26733
395 4.89935
400 5.38186
405 3.96524
410 4.7069
415 5.91546
420 7.22122
425 7.36301
430 6.23388
435 3.57624
440 3.18813
445 8.09166
450 3.73236
455 3.66637
460 7.01671
465 5.58571
470 7.80448
475 6.7531
480 5.42456
485 4.56359
490 7.94128
495 6.01568
500 3.04012
505 4.55659
510 5.09648
515 2.31384
520 2.94048
525 3.42738
530 3.29757
535 4.50924
540 4.71655
545 3.84808
550 3.57989
555 3.42251
560 3.29107
565 4.01339
570 3.1766
575 3.83204
580 5.02454
585 2.69301
590 2.39711
595 2.12183
600 36.9556
Ex : 238
200 3.44144
205 2.74934
210 4.0267
215 2.76759
220 4.29838
225 2.43279
230 3.83014
235 4.21789
240 3.29051
245 3.98287
250 5.81378
255 5.32326
260 3.63224
265 3.94253
270 4.48428
275 3.384
280 5.21382
285 5.02433
290 4.61531
295 4.32744
300 2.22893
305 3.96904
310 2.78012
315 3.81371
320 4.86053
325 3.98607
330 2.10535
335 3.99996
340 2.80321
345 3.26614
350 2.27635
355 3.46877
360 3.37675
365 4.74285
370 3.35569
375 2.07447
380 5.06185
385 3.00874
390 4.80982
395 6.63481
400 6.9711
405 4.13613
410 6.13795
415 3.77889
420 3.35656
425 1.86891
430 3.51618
435 5.97
440 3.18955
445 2.27236
450 3.13978
455 4.81123
460 4.14224
465 2.41771
470 4.40332
475 2.79313
480 4.60872
485 3.83903
490 3.43347
495 4.27872
500 5.42738
505 4.32859
510 5.88165
515 3.63022
520 5.39912
525 5.65862
530 4.63599
535 3.49277
540 4.71518
545 3.92026
550 2.75418
555 6.93864
560 6.74471
565 9.62534
570 6.20577
575 2.79162
580 2.27417
585 3.52439
590 6.13807
595 6.90192
600 6.43496
Ex : 243
200 5.1046
205 2.96395
210 3.1436
215 4.48213
220 2.96035
225 2.46799
230 2.78642
235 4.71514
240 2.43714
245 4.13638
250 3.0275
255 5.17564
260 1.97687
265 1.77126
270 2.59774
275 5.00504
280 3.78586
285 2.84054
290 4.13793
295 3.04303
300 2.61583
305 2.47098
310 1.81258
315 2.55929
320 1.18489
325 2.80439
330 3.3482
335 3.86575
340 6.33836
345 4.52457
350 2.93503
355 6.64232
360 2.79194
365 4.80568
370 3.33911
375 2.46756
380 4.22706
385 2.66302
390 3.47587
395 4.48027
400 3.95659
405 2.39197
410 4.10988
415 3.13761
420 2.76782
425 3.4789
430 4.67117
435 5.24961
440 2.76246
445 3.36068
450 2.98808
455 3.56756
460 2.84211
465 3.50419
470 2.23241
475 3.93807
480 3.28252
485 4.6933
490 4.83532
495 3.61503
500 2.69747
505 3.77505
510 2.38285
515 1.86088
520 1.94129
525 3.45484
530 2.02582
535 2.86392
540 4.2074
545 5.08548
550 4.08151
555 3.60905
560 3.85057
565 3.44707
570 3.53662
575 2.84036
580 3.43251
585 2.82089
590 2.89173
595 3.27018
600 10.1204
Ex : 248
200 3.5159
205 2.39928
210 1.91792
215 1.56971
220 1.9602
225 1.20158
230 1.98661
235 1.85227
240 2.89351
245 3.70177
250 2.51901
255 2.07928
260 2.01819
265 2.12023
270 2.34639
275 2.87084
280 3.80428
285 2.53086
290 3.61751
295 4.52433
300 3.20997
305 4.36126
310 2.65063
315 3.69043
320 1.81631
325 2.97995
330 1.79696
335 3.02651
340 2.73911
345 2.4446
350 1.94931
355 3.6943
360 3.40384
365 2.503
370 2.63618
375 3.3626
380 2.21793
385 4.85051
390 2.75445
395 4.83678
400 2.99205
405 1.64929
410 4.0905
415 3.61571
420 3.52992
425 3.04197
430 3.08534
435 2.87045
440 2.31672
445 2.10518
450 2.0555
455 2.21058
460 3.68482
465 2.95809
470 2.38736
475 3.06687
480 2.5388
485 1.72783
490 3.33631
495 4.37546
500 2.68222
505 2.91937
510 3.13563
515 1.69057
520 2.7782
525 3.15506
530 2.76753
535 3.83147
540 3.67741
545 2.20302
550 2.6679
555 2.18788
560 2.86327
565 4.03065
570 1.39025
575 1.60128
580 2.34417
585 3.30005
590 2.29256
595 3.07433
600 0.349848
Ex : 253
200 2.58449
205 1.49944
210 3.275
215 2.22961
220 2.78179
225 4.34202
230 2.59232
235 4.72602
240 2.136
245 1.665
250 3.12675
255 3.55669
260 1.75873
265 3.36009
270 2.258
275 1.928
280 1.35485
285 1.40752
290 1.89682
295 1.84399
300 1.95714
305 3.64868
310 2.15276
315 4.07492
320 1.74947
325 2.80246
330 2.80534
335 1.71295
340 3.21267
345 4.01996
350 2.36788
355 3.94474
360 3.6701
365 2.04069
370 1.71821
375 2.56866
380 4.82834
385 1.89344
390 2.00315
395 1.56218
400 1.95791
405 1.42753
410 2.55595
415 2.91856
420 2.97796
425 1.77896
430 1.60212
435 1.39144
440 1.98438
445 2.06482
450 1.63792
455 3.99783
460 2.67045
465 1.59381
470 2.83998
475 3.41372
480 3.30652
485 3.35081
490 2.37722
495 3.33755
500 2.40321
505 3.77621
510 2.55925
515 3.88937
520 2.48235
525 2.78813
530 1.69945
535 1.75867
540 1.40836
545 1.77266
550 1.64213
555 1.73896
560 2.86916
565 1.43089
570 1.38289
575 2.30133
580 2.05676
585 1.419
590 1.43104
595 2.4835
600 5.1075
Ex : 258
200 2.01754
205 2.12831
210 2.3921
215 2.57796
220 2.6411
225 1.47294
230 1.52686
235 2.89368
240 1.52291
245 2.58411
250 1.3303
255 1.34338
260 1.18368
265 2.0686
270 1.79235
275 1.41314
280 1.11074
285 3.23122
290 2.14216
295 1.58668
300 1.03863
305 1.3167
310 1.1968
315 3.74978
320 3.10122
325 2.82622
330 2.24069
335 1.76917
340 2.49003
345 1.81353
350 1.62508
355 1.77644
360 2.69042
365 1.42568
370 1.85645
375 1.51198
380 1.671
385 0.600734
390 1.87819
395 1.80809
400 1.6332
405 1.68309
410 2.1292
415 1.76697
420 1.70561
425 2.27051
430 2.62753
435 1.99048
440 1.78352
445 2.93674
450 1.82517
455 2.86021
460 3.58501
465 1.14306
470 3.44867
475 2.35707
480 2.38057
485 2.53279
490 1.86392
495 2.08343
500 2.05298
505 1.51184
510 1.92312
515 2.1086
520 3.06297
525 2.02789
530 2.37347
535 1.58968
540 2.21408
545 1.93192
550 1.48098
555 1.01953
560 2.03374
565 1.16565
570 1.50406
575 1.54111
580 1.18907
585 2.42793
590 1.26711
595 1.39311
600 0.158531
Ex : 263
200 0.47619
205 1.74445
210 1.18528
215 1.41495
220 0.63109
225 1.45543
230 1.30957
235 1.05103
240 0.809717
245 1.31919
250 1.23028
255 1.73676
260 2.58722
265 0.77968
270 1.06293
275 1.12801
280 2.20307
285 1.02414
290 1.51336
295 1.33242
300 1.60709
305 1.13896
310 0.946904
315 1.54165
320 1.88749
325 1.62708
330 2.05207
335 0.950323
340 1.6746
345 2.28392
350 1.4446
355 2.21576
360 0.902656
365 0.868077
370 1.16099
375 1.37375
380 3.09275
385 1.58586
390 2.36664
395 1.95687
400 1.20072
405 1.73368
410 1.78807
415 1.65208
420 2.32418
425 1.70456
430 1.28627
435 1.19356
440 1.35101
445 1.83939
450 1.467
455 0.876218
460 1.72104
465 2.32367
470 2.79912
475 0.775011
480 0.990082
485 1.50264
490 1.91064
495 1.19194
500 1.12719
505 1.60477
510 0.830166
515 1.88404
520 1.7081
525 1.53079
530 1.53206
535 1.44836
540 1.4456
545 0.929861
550 0.689297
555 1.05294
560 1.21951
565 0.800286
570 1.92798
575 1.12614
580 2.38805
585 0.896841
590 0.972576
595 1.46973
600 0.16725
Ex : 268
200 0.789041
205 1.16811
210 0.538643
215 0.997147
220 1.61052
225 1.16808
230 0.546316
235 0.604145
240 1.27837
245 1.12779
250 1.37894
255 1.40203
260 1.30034
265 0.9535
270 0.883933
275 0.670379
280 1.07884
285 1.4373
290 0.796386
295 0.57435
300 0.851308
305 0.76921
310 1.7444
315 1.16802
320 2.07737
325 0.886765
330 0.630136
335 1.84536
340 2.68538
345 1.40965
350 1.96184
355 1.64803
360 1.41639
365 1.3379
370 1.42076
375 0.745794
380 1.3123
385 1.00069
390 2.09298
395 1.4268
400 1.13255
405 0.956249
410 1.55428
415 2.00299
420 2.67178
425 1.28608
430 1.12564
435 1.53022
440 1.72225
445 1.17168
450 1.11554
455 0.93587
460 1.42842
465 1.32416
470 1.1179
475 1.05341
480 1.45283
485 1.3768
490 1.18682
495 1.03866
500 1.61975
505 0.754908
510 1.29233
515 1.11993
520 1.60649
525 1.26498
530 1.56038
535 1.17296
540 1.60966
545 1.11117
550 0.798484
555 1.01242
560 1.13614
565 0.657027
570 1.5566
575 0.617222
580 0.799764
585 0.624453
590 0.816814
595 0.526314
600 0.0598925
Ex : 273
200 0.598655
205 1.5112
210 0.920902
215 1.99349
220 0.654984
225 0.578376
230 1.07678
235 0.890839
240 1.62907
245 0.916023
250 1.21275
255 1.01215
260 0.664504
265 1.06543
270 0.966666
275 1.23853
280 0.414459
285 1.06484
290 0.663077
295 1.00746
300 0.950067
305 2.24702
310 1.13182
315 0.416539
320 1.20436
325 0.756997
330 0.962231
335 0.750476
340 0.593665
345 0.717506
350 1.18424
355 1.2766
360 1.34336
365 1.59994
370 1.38591
375 0.826374
380 0.890626
385 2.47696
390 1.31761
395 0.796276
400 1.47854
405 0.903781
410 1.43765
415 1.33722
420 1.11247
425 0.771016
430 1.45167
435 1.54428
440 1.10323
445 1.05877
450 1.26444
455 1.54622
460 1.27949
465 1.10965
470 0.833629
475 0.910414
480 0.525125
485 1.17512
490 0.803658
495 1.33174
500 1.12102
505 1.28845
510 0.640735
515 0.797899
520 1.13713
525 0.885103
530 0.877032
535 1.07103
540 1.44968
545 1.60181
550 0.807661
555 0.919496
560 1.06948
565 0.662569
570 0.861334
575 1.4667
580 1.53541
585 0.973303
590 0.491565
595 1.07362
600 0.122174
Ex : 278
200 0.584991
205 0.778913
210 0.626316
215 1.17883
220 0.828474
225 0.677581
230 0.916799
235 0.685848
240 0.804537
245 0.723969
250 1.53654
255 0.840721
260 0.843355
265 0.423587
270 0.743755
275 0.888422
280 1.08723
285 0.7302
290 0.899143
295 0.594565
300 1.06108
305 0.803693
310 0.421453
315 0.724016
320 0.733865
325 0.977141
330 0.476969
335 0.572041
340 0.772122
345 1.32067
350 0.653624
355 1.14249
360 1.05105
365 0.815385
370 0.818824
375 1.08895
380 0.712006
385 1.66458
390 1.548
395 0.739957
400 1.45482
405 0.882726
410 1.15915
415 1.16513
420 1.09298
425 1.34392
430 0.806569
435 0.532064
440 0.658694
445 0.400551
450 0.873847
455 1.1568
460 0.963169
465 0.676248
470 1.04814
475 1.06679
480 0.877516
485 0.778635
490 0.824633
495 0.53776
500 0.46068
505 0.82149
510 0.766507
515 0.48909
520 0.649177
525 0.899819
530 0.685596
535 0.599794
540 0.778682
545 0.62066
550 0.476097
555 0.581044
560 0.527366
565 0.607231
570 0.533837
575 0.806221
580 1.08842
585 0.691254
590 1.01796
595 0.373807
600 0.0425378
Ex : 283
200 0.487879
205 0.309867
210 0.436386
215 0.30487
220 0.402062
225 1.35867
230 0.452248
235 0.291252
240 0.310414
245 0.628368
250 0.288029
255 0.458528
260 0.515835
265 0.342954
270 0.402767
275 0.633724
280 1.09168
285 0.715481
290 1.28939
295 0.564002
300 0.409707
305 0.546533
310 0.491666
315 0.326069
320 1.00681
325 0.727429
330 0.807672
335 0.527627
340 0.418521
345 0.653199
350 0.674422
355 0.707923
360 0.650358
365 0.850936
370 0.748196
375 1.07363
380 1.19498
385 0.959275
390 0.938497
395 0.47087
400 0.716374
405 0.988664
410 1.52788
415 1.124
420 0.700813
425 1.19189
430 1.00022
435 0.654795
440 0.378742
445 0.765644
450 0.981363
455 0.387816
460 0.528002
465 0.818348
470 0.790532
475 0.848705
480 1.18123
485 0.705025
490 0.66744
495 0.780078
500 0.640621
505 0.855703
510 0.603874
515 0.473083
520 0.889092
525 0.430894
530 0.429029
535 0.304911
540 1.09329
545 0.504884
550 0.709854
555 0.586223
560 0.862038
565 0.628075
570 0.465562
575 0.452104
580 0.310576
585 0.926217
590 0.934494
595 0.57234
600 7.069
Ex : 288
200 0.894243
205 0.668461
210 0.426063
215 0.377165
220 0.61929
225 0.570931
230 1.05743
235 0.669599
240 0.859694
245 0.480103
250 0.566962
255 0.61336
260 0.5201
265 0.578956
270 0.624699
275 0.412066
280 0.634312
285 0.313823
290 0.210833
295 0.569818
300 0.341462
305 0.314002
310 0.707947
315 0.523388
320 0.527435
325 0.493791
330 0.348359
335 1.08983
340 0.761796
345 0.312098
350 0.512267
355 0.781354
360 0.731427
365 0.924063
370 1.10082
375 0.579421
380 0.819209
385 0.974914
390 0.781203
395 0.611204
400 0.622388
405 0.801445
410 1.06597
415 0.952776
420 0.863193
425 0.553561
430 0.898395
435 0.805588
440 0.789251
445 0.812696
450 0.738473
455 0.51083
460 0.719814
465 0.682843
470 0.951
475 1.10111
480 0.472712
485 0.706075
490 0.517595
495 0.705544
500 0.35522
505 0.483525
510 0.377177
515 0.853133
520 0.534039
525 0.584817
530 0.473009
535 0.838142
540 0.586412
545 0.336008
550 0.423858
555 0.503915
560 0.367989
565 0.453647
570 1.31058
575 0.684426
580 0.378114
585 0.557472
590 0.321355
595 0.493729
600 0.0561844
Ex : 293
200 0.320935
205 0.74737
210 0.239992
215 0.540829
220 0.593842
225 0.474132
230 0.668002
235 0.545908
240 0.370222
245 0.371074
250 0.391856
255 0.488408
260 0.465514
265 0.523814
270 0.209988
275 0.52838
280 0.475654
285 0.300506
290 0.398768
295 0.360653
300 0.776024
305 0.687785
310 0.332891
315 0.353804
320 0.600969
325 0.395536
330 0.335953
335 0.51804
340 0.50442
345 0.669967
350 0.534342
355 0.685718
360 0.61004
365 0.359278
370 0.416201
375 0.50262
380 0.462481
385 0.614727
390 0.466313
395 0.764886
400 0.462336
405 0.945529
410 0.536437
415 0.664518
420 0.442358
425 0.486271
430 0.341993
435 0.607697
440 0.700383
445 0.662855
450 0.45598
455 0.53079
460 0.813389
465 0.699668
470 0.448436
475 0.516953
480 0.577128
485 0.71334
490 0.435561
495 0.381122
500 0.608707
505 0.785925
510 0.39925
515 0.39704
520 0.643878
525 0.390624
530 0.637977
535 0.437814
540 0.727422
545 0.416408
550 0.581192
555 0.644305
560 0.55817
565 0.527129
570 0.365149
575 0.587092
580 0.628467
585 0.710996
590 0.465777
595 0.42281
600 0.625177
Ex : 298
200 0.523658
205 0.460463
210 0.398143
215 0.370508
220 0.367325
225 0.24482
230 0.323124
235 0.230474
240 0.341515
245 0.321738
250 0.257346
255 0.310548
260 0.329922
265 0.308409
270 0.359177
275 0.649545
280 0.506433
285 0.470973
290 0.430914
295 0.314236
300 0.253207
305 0.337781
310 0.309566
315 0.398989
320 0.435765
325 0.460774
330 0.580006
335 0.296953
340 0.535768
345 0.750698
350 0.574139
355 0.635243
360 0.287462
365 0.546561
370 0.525458
375 0.743297
380 0.553166
385 0.393005
390 0.279645
395 0.691886
400 0.714588
405 0.449269
410 0.584993
415 0.432251
420 0.590619
425 0.581675
430 0.357296
435 0.538968
440 0.458967
445 0.620075
450 0.480149
455 0.575569
460 0.673311
465 0.612963
470 0.424897
475 0.366163
480 0.477814
485 0.342597
490 0.362935
495 0.610298
500 0.276148
505 0.368281
510 0.377799
515 0.442033
520 0.184153
525 0.252979
530 0.407348
535 0.472263
540 0.37324
545 0.268729
550 0.254796
555 0.241452
560 0.303642
565 0.304429
570 0.414445
575 0.338861
580 0.306667
585 0.36779
590 0.473257
595 0.685322
600 0.077987
Ex : 303
200 0.207705
205 0.356185
210 0.373705
215 0.134264
220 0.254726
225 0.324269
230 0.305217
235 0.264078
240 0.275823
245 0.296434
250 0.303201
255 0.291697
260 0.397701
265 0.300604
270 0.330321
275 0.224234
280 0.182282
285 0.246296
290 0.368766
295 0.275814
300 0.383805
305 0.178548
310 0.371233
315 0.306895
320 0.402634
325 0.322382
330 0.391024
335 0.446442
340 0.201405
345 0.266634
350 0.322899
355 0.556916
360 0.613163
365 0.439235
370 0.377625
375 0.266293
380 0.45652
385 0.476886
390 0.593094
395 0.476674
400 0.416911
405 0.39893
410 0.303633
415 0.568127
420 0.294801
425 0.486987
430 0.45601
435 0.768518
440 0.475102
445 0.554048
450 0.319713
455 0.632056
460 0.499748
465 0.402357
470 0.283983
475 0.35747
480 0.777213
485 0.541842
490 0.487264
495 0.444965
500 0.475134
505 0.378559
510 0.530759
515 0.719626
520 0.3106
525 0.241166
530 0.404934
535 0.237159
540 0.219826
545 0.120017
550 0.325576
555 0.191541
560 0.238695
565 0.291337
570 0.320013
575 0.377594
580 0.262018
585 0.30952
590 0.314907
595 0.557423
600 0.0634327
Ex : 308
200 0.445334
205 0.299573
210 0.292008
215 0.470099
220 0.230611
225 0.339258
230 0.183947
235 0.295951
240 0.401113
245 0.3735
250 0.326586
255 0.26402
260 0.219588
265 0.15912
270 0.234422
275 0.217046
280 0.147886
285 0.382849
290 0.142173
295 0.210863
300 0.241366
305 0.3835
310 0.472718
315 0.345028
320 0.675031
325 0.210286
330 0.381898
335 0.339274
340 0.476707
345 0.599747
350 0.423106
355 0.395167
360 0.362682
365 0.271803
370 0.42428
375 0.445331
380 0.396739
385 0.473795
390 0.713322
395 0.479934
400 0.611264
405 0.434375
410 0.456151
415 0.553403
420 0.452718
425 0.446982
430 0.453969
435 0.493221
440 0.457848
445 0.449096
450 0.346714
455 0.314323
460 0.807774
465 0.543
470 0.375798
475 0.812892
480 0.374154
485 0.208644
490 0.313891
495 0.344882
500 0.294096
505 0.59501
510 0.296408
515 0.372718
520 0.263887
525 0.301184
530 0.295014
535 0.400471
540 0.244166
545 0.217864
550 0.345691
555 0.306036
560 0.524463
565 0.393062
570 0.22284
575 0.324994
580 0.316772
585 0.178151
590 0.288848
595 0.233614
600 0.0265844
Ex : 313
200 0.210351
205 0.298108
210 0.3992
215 0.297694
220 0.305085
225 0.454985
230 0.460267
235 0.212857
240 0.201518
245 0.32417
250 0.22856
255 0.414349
260 0.286673
265 0.28179
270 0.232053
275 0.165973
280 0.180114
285 0.149763
290 0.128399
295 0.145016
300 0.146184
305 0.256615
310 0.275641
315 0.163848
320 0.176837
325 0.286964
330 0.432841
335 0.31574
340 0.322313
345 0.355417
350 0.235752
355 0.539636
360 0.529376
365 0.773938
370 0.504948
375 0.571547
380 0.772207
385 0.644221
390 0.897247
395 0.735417
400 0.589973
405 0.591442
410 0.811737
415 0.721821
420 0.778716
425 0.937687
430 0.753849
435 0.863009
440 0.52082
445 0.696432
450 0.62044
455 0.390094
460 0.555779
465 0.474191
470 0.563951
475 0.577861
480 0.598352
485 0.445442
490 0.549298
495 0.451165
500 0.375928
505 0.274246
510 0.26623
515 0.245108
520 0.360731
525 0.300148
530 0.267093
535 0.241705
540 0.245246
545 0.208421
550 0.171692
555 0.176087
560 0.155084
565 0.293167
570 0.165372
575 0.182354
580 0.228017
585 0.237116
590 0.180464
595 0.0774908
600 0.0203273
Ex : 318
200 0.129825
205 0.268078
210 0.179578
215 0.163987
220 0.261805
225 0.208192
230 0.16974
235 0.208203
240 0.353685
245 0.294731
250 0.211647
255 0.231755
260 0.190369
265 0.187204
270 0.119153
275 0.246416
280 0.142781
285 0.218733
290 0.173631
295 0.197145
300 0.330289
305 0.202038
310 0.302883
315 1.07862
320 0.88245
325 0.518454
330 0.37874
335 0.607508
340 1.00109
345 1.37022
350 2.11062
355 2.66107
360 2.81812
365 3.81513
370 4.64519
375 5.84414
380 5.96316
385 7.11201
390 8.42129
395 8.67525
400 8.69256
405 8.88628
410 9.30531
415 9.18705
420 8.02254
425 7.78138
430 7.58653
435 7.51224
440 7.74555
445 6.87065
450 6.20852
455 6.02155
460 5.75164
465 5.12465
470 4.75102
475 4.63403
480 3.87393
485 3.58312
490 3.09695
495 2.60021
500 2.13272
505 2.22967
510 1.6908
515 1.24188
520 1.19635
525 1.11569
530 0.93624
535 0.710011
540 0.528149
545 0.608658
550 0.63565
555 0.513019
560 0.444506
565 0.330654
570 0.467882
575 0.398025
580 0.278962
585 0.265501
590 0.337022
595 0.351842
600 0.0400383
Ex : 323
200 0.419432
205 0.227377
210 0.250371
215 0.156284
220 0.163664
225 0.263922
230 0.255636
235 0.0999867
240 0.170933
245 0.217408
250 0.167303
255 0.149236
260 0.134182
265 0.146909
270 0.202882
275 0.194012
280 0.195451
285 0.0971835
290 0.216777
295 0.290701
300 0.191301
305 0.127137
310 0.177687
315 8.24248
320 36.045
325 15.3322
330 3.1812
335 2.9218
340 3.67992
345 5.43973
350 8.39279
355 11.926
360 14.9534
365 16.7073
370 18.7603
375 22.6545
380 26.7459
385 27.6504
390 31.8055
395 32.9279
400 34.6779
405 35.2981
410 35.2426
415 35.0646
420 34.0624
425 32.4609
430 32.1007
435 30.571
440 28.0753
445 26.98
450 25.1053
455 24.2872
460 22.2775
465 20.4616
470 19.1808
475 16.708
480 15.1623
485 14.6286
490 12.6198
495 11.5089
500 9.60976
505 8.8005
510 8.02607
515 6.47816
520 5.46447
525 4.77035
530 3.71367
535 3.55019
540 2.87628
545 2.62787
550 2.05514
555 1.7539
560 1.47337
565 1.37813
570 0.849375
575 0.834304
580 0.733782
585 0.472063
590 0.306128
595 0.383889
600 2.1174
Ex : 328
200 0.223922
205 0.265635
210 0.175779
215 0.149494
220 0.143502
225 0.185103
230 0.158012
235 0.256873
240 0.31158
245 0.289071
250 0.44817
255 0.211108
260 0.153419
265 0.172049
270 0.353276
275 0.180869
280 0.240444
285 0.280233
290 0.323962
295 0.34501
300 0.343791
305 0.257596
310 0.283755
315 1.82378
320 78.0162
325 186.878
330 54.7451
335 9.52639
340 5.9759
345 6.77403
350 8.69596
355 12.6801
360 17.4788
365 19.4494
370 21.2099
375 23.534
380 27.4222
385 30.753
390 33.2979
395 35.2422
400 35.2574
405 37.0444
410 38.6356
415 37.3086
420 35.8666
425 34.9979
430 32.6356
435 31.0335
440 29.6484
445 28.0278
450 26.255
455 24.7374
460 22.8082
465 20.715
470 18.9586
475 17.5949
480 16.3018
485 13.6673
490 13.1384
495 11.3518
500 10.0866
505 9.40832
510 8.09045
515 6.77643
520 5.73132
525 5.17048
530 4.40893
535 3.92159
540 3.36371
545 2.77383
550 2.19719
555 1.96382
560 1.63262
565 1.49965
570 1.0772
575 0.978094
580 0.798477
585 0.578538
590 0.4946
595 0.413668
600 0.651304
Ex : 333
200 0.109347
205 0.23073
210 0.211078
215 0.185673
220 0.36653
225 0.160209
230 0.111118
235 0.154744
240 0.249294
245 0.124604
250 0.0968965
255 0.125381
260 0.186532
265 0.113307
270 0.347643
275 0.249763
280 0.284759
285 0.152902
290 0.160041
295 0.256551
300 0.142743
305 0.179019
310 0.194633
315 0.242474
320 10.4465
325 210.347
330 355.4
335 91.4846
340 13.8015
345 6.01943
350 5.72782
355 6.50643
360 9.70547
365 13.6054
370 14.5697
375 14.6578
380 15.3336
385 18.0955
390 20.6153
395 21.61
400 21.4275
405 22.3284
410 22.4902
415 22.0405
420 21.9697
425 20.3465
430 18.4842
435 17.7142
440 16.5256
445 16.2283
450 15.4932
455 13.9645
460 13.0363
465 10.9919
470 10.507
475 10.0794
480 8.36553
485 8.27211
490 7.05096
495 6.57998
500 6.01656
505 5.09415
510 4.45507
515 3.6518
520 3.53629
525 2.80366
530 2.4434
535 2.10131
540 1.76064
545 1.66393
550 1.48338
555 1.29868
560 1.11655
565 0.798568
570 0.72851
575 0.786004
580 0.554152
585 0.38182
590 0.46444
595 0.514937
600 1.51558
Ex : 338
200 0.187834
205 0.138942
210 0.142321
215 0.172649
220 0.107744
225 0.1362
230 0.185954
235 0.125177
240 0.0911335
245 0.196589
250 0.300677
255 0.196048
260 0.119142
265 0.122736
270 0.103521
275 0.170133
280 0.20221
285 0.228302
290 0.357829
295 0.198875
300 0.187151
305 0.18588
310 0.11009
315 0.268468
320 0.347708
325 18.7828
330 308.163
335 452.302
340 112.089
345 15.7242
350 5.05661
355 3.7218
360 3.59888
365 5.66285
370 9.52966
375 10.3036
380 9.24337
385 9.81617
390 12.623
395 12.9397
400 12.9144
405 12.7274
410 13.571
415 14.1635
420 13.6029
425 12.2883
430 11.0153
435 10.5984
440 10.1643
445 9.8718
450 9.29707
455 7.77491
460 7.62385
465 6.67633
470 6.86904
475 5.6363
480 5.12909
485 4.93559
490 4.55558
495 3.88048
500 3.26581
505 2.93482
510 2.87582
515 2.44016
520 2.1925
525 1.92477
530 1.55363
535 1.6001
540 1.27453
545 1.13743
550 1.05356
555 0.906906
560 0.813146
565 0.677922
570 0.658498
575 0.651602
580 0.383324
585 0.384505
590 0.424395
595 0.355149
600 0.208256
Ex : 343
200 0.140665
205 0.149479
210 0.197255
215 0.108513
220 0.268408
225 0.140437
230 0.170009
235 0.114797
240 0.168427
245 0.0702934
250 0.137509
255 0.0930735
260 0.127541
265 0.15399
270 0.16763
275 0.110001
280 0.104454
285 0.22259
290 0.159652
295 0.192791
300 0.280487
305 0.175999
310 0.15532
315 0.134254
320 0.227546
325 0.374527
330 21.9463
335 349.743
340 500.186
345 120.233
350 16.2117
355 4.48512
360 2.94001
365 2.38447
370 2.98975
375 6.95635
380 9.35534
385 9.3322
390 9.97229
395 10.3198
400 9.4583
405 10.3836
410 11.3145
415 11.9147
420 11.1258
425 9.79546
430 9.12458
435 8.91789
440 8.62797
445 8.35408
450 7.37032
455 6.98717
460 6.09332
465 5.90602
470 5.41863
475 5.09983
480 4.63782
485 4.46239
490 3.66632
495 3.10465
500 2.89621
505 2.66212
510 2.31465
515 2.19993
520 1.99595
525 1.61233
530 1.60352
535 1.52024
540 1.26181
545 1.13875
550 0.941005
555 1.09624
560 0.845142
565 0.771501
570 0.783236
575 0.460558
580 0.46601
585 0.366454
590 0.309193
595 0.291334
600 0.883429
Ex : 348
200 0.135028
205 0.100194
210 0.13804
215 0.128855
220 0.168078
225 0.138053
230 0.11575
235 0.0766334
240 0.201512
245 0.0972869
250 0.126339
255 0.104337
260 0.138757
265 0.117307
270 0.114822
275 0.106149
280 0.115157
285 0.139535
290 0.18906
295 0.0940651
300 0.124433
305 0.156479
310 0.196867
315 0.127614
320 0.247803
325 0.224587
330 0.496039
335 21.8625
340 355.833
345 537.187
350 137.192
355 17.6132
360 4.16211
365 2.63127
370 1.87442
375 2.45437
380 6.92741
385 11.7777
390 12.9235
395 12.9558
400 11.1716
405 12.0108
410 13.0139
415 14.1056
420 13.1882
425 11.6588
430 10.7816
435 10.2092
440 9.49185
445 9.0545
450 8.01072
455 7.67097
460 6.81022
465 6.18678
470 5.88704
475 5.63311
480 4.94851
485 4.43109
490 4.31635
495 3.87678
500 3.50183
505 3.10797
510 2.67608
515 2.32887
520 2.10849
525 1.567
530 1.76219
535 1.60561
540 1.24298
545 1.06762
550 1.10287
555 1.0482
560 0.908102
565 0.754314
570 0.46657
575 0.487336
580 0.535736
585 0.326971
590 0.293349
595 0.369519
600 0.150735
Ex : 353
200 0.0638533
205 0.163713
210 0.0823136
215 0.103615
220 0.149533
225 0.109807
230 0.176903
235 0.143327
240 0.117608
245 0.139163
250 0.208831
255 0.140056
260 0.0976715
265 0.0719961
270 0.116668
275 0.105451
280 0.131335
285 0.0954204
290 0.108443
295 0.172117
300 0.13659
305 0.103858
310 0.116865
315 0.193562
320 0.139747
325 0.22899
330 0.259464
335 0.540151
340 22.6859
345 365.832
350 536.459
355 133.401
360 17.1381
365 3.84929
370 2.37631
375 1.95365
380 2.93143
385 8.23786
390 15.4757
395 15.9895
400 14.0911
405 12.895
410 13.6139
415 15.365
420 14.6199
425 12.4089
430 11.2194
435 10.668
440 10.6999
445 10.0057
450 9.13417
455 8.12306
460 7.28986
465 6.62303
470 6.60737
475 5.80897
480 5.36228
485 4.84671
490 4.93962
495 4.04109
500 3.62715
505 3.58725
510 2.94259
515 2.64028
520 2.24962
525 2.04804
530 1.8238
535 1.64433
540 1.27444
545 1.3335
550 1.05139
555 0.932374
560 0.83927
565 0.671397
570 0.691045
575 0.463775
580 0.47401
585 0.343701
590 0.266516
595 0.324707
600 0.217283
Ex : 358
200 0.0991117
205 0.133734
210 0.118728
215 0.105706
220 0.131903
225 0.0905504
230 0.111312
235 0.167231
240 0.117106
245 0.204602
250 0.0804758
255 0.123834
260 0.14981
265 0.111025
270 0.0831705
275 0.116046
280 0.196221
285 0.135137
290 0.167783
295 0.0838734
300 0.215366
305 0.130702
310 0.153329
315 0.134468
320 0.147043
325 0.131796
330 0.211153
335 0.332843
340 0.611741
345 21.8133
350 353.758
355 551.226
360 137.386
365 17.5623
370 3.9726
375 2.8255
380 3.23245
385 5.62774
390 10.7135
395 16.0899
400 14.5495
405 12.9594
410 13.823
415 14.2798
420 13.9269
425 11.6471
430 10.7109
435 10.2794
440 10.504
445 10.136
450 8.99745
455 8.11668
460 7.60016
465 6.85419
470 6.60125
475 5.62867
480 5.11394
485 4.86646
490 4.46845
495 4.26795
500 3.70769
505 3.58481
510 3.05504
515 2.68323
520 2.29782
525 2.18494
530 1.84864
535 1.6685
540 1.5891
545 1.24478
550 1.12218
555 1.01729
560 1.00014
565 0.818089
570 0.741607
575 0.594916
580 0.472357
585 0.427816
590 0.351883
595 0.316967
600 1.04821
Ex : 363
200 0.138909
205 0.0914627
210 0.183155
215 0.101349
220 0.147528
225 0.164684
230 0.113036
235 0.108497
240 0.0848047
245 0.111398
250 0.204753
255 0.119304
260 0.1241
265 0.0719365
270 0.0697488
275 0.135342
280 0.115496
285 0.147766
290 0.0903398
295 0.117298
300 0.111188
305 0.075045
310 0.148377
315 0.0816147
320 0.0760139
325 0.155979
330 0.18787
335 0.266998
340 0.430251
345 0.589251
350 20.1278
355 344.785
360 545.279
365 142.31
370 18.2078
375 4.09498
380 4.5101
385 7.83096
390 10.8055
395 12.524
400 14.7335
405 16.3422
410 16.9233
415 17.1137
420 14.5118
425 12.5192
430 11.5254
435 11.5145
440 11.3134
445 10.6305
450 9.42726
455 8.12874
460 7.89062
465 7.15082
470 6.57433
475 6.41539
480 5.69787
485 5.3255
490 5.00288
495 4.55723
500 3.92335
505 3.69362
510 3.16633
515 2.95323
520 2.41501
525 2.21094
530 2.12636
535 1.83205
540 1.61155
545 1.29534
550 1.20951
555 1.22953
560 1.03141
565 0.867864
570 0.689881
575 0.549934
580 0.453141
585 0.356625
590 0.329119
595 0.367835
600 0.16718
Ex : 368
200 0.10315
205 0.0733458
210 0.114132
215 0.0872112
220 0.15303
225 0.0846047
230 0.0774285
235 0.0631335
240 0.113081
245 0.123284
250 0.114185
255 0.0730805
260 0.108797
265 0.124526
270 0.192781
275 0.154383
280 0.126115
285 0.0776517
290 0.10395
295 0.133201
300 0.202899
305 0.157849
310 0.137372
315 0.0855592
320 0.133021
325 0.11334
330 0.143907
335 0.21838
340 0.230339
345 0.289993
350 0.5286
355 16.9845
360 337.113
365 563.099
370 148.791
375 19.4202
380 6.08559
385 9.06063
390 13.9914
395 15.5044
400 14.5927
405 17.3856
410 21.4418
415 22.1015
420 19.7847
425 15.8897
430 14.2226
435 13.6893
440 13.8304
445 12.6566
450 11.5865
455 9.55118
460 8.96437
465 8.49497
470 7.70392
475 7.3303
480 6.40398
485 5.81946
490 5.32616
495 4.71056
500 4.73283
505 4.21493
510 3.67887
515 3.2054
520 2.76594
525 2.34807
530 2.36497
535 1.85506
540 1.66435
545 1.43827
550 1.24633
555 1.20052
560 1.00626
565 0.802597
570 0.669452
575 0.639091
580 0.559709
585 0.440969
590 0.360362
595 0.310891
600 0.268371
Ex : 373
200 0.0851462
205 0.0543452
210 0.0554748
215 0.0661927
220 0.0801552
225 0.137418
230 0.0714029
235 0.0510528
240 0.0580715
245 0.0795457
250 0.0994544
255 0.0767145
260 0.0707716
265 0.179825
270 0.078357
275 0.0942867
280 0.149373
285 0.12015
290 0.134169
295 0.0896963
300 0.0819176
305 0.0624867
310 0.092652
315 0.120897
320 0.232743
325 0.164577
330 0.148892
335 0.110954
340 0.207332
345 0.215015
350 0.248256
355 0.550643
360 19.5605
365 341.374
370 556.645
375 149.372
380 20.288
385 8.44637
390 13.4259
395 16.4032
400 14.6108
405 13.7907
410 17.8486
415 23.3824
420 21.5321
425 18.1057
430 14.573
435 13.36
440 13.6958
445 12.7011
450 11.6439
455 9.59494
460 8.67268
465 8.24217
470 8.1106
475 7.34656
480 6.69303
485 6.17958
490 5.25738
495 4.72381
500 4.60817
505 4.06195
510 3.78112
515 3.40049
520 3.13285
525 2.65541
530 2.21916
535 1.84205
540 1.76946
545 1.58692
550 1.41143
555 1.18734
560 1.07714
565 1.02975
570 0.758958
575 0.820204
580 0.512068
585 0.357246
590 0.337989
595 0.334143
600 0.0380242
Ex : 378
200 0.12474
205 0.145406
210 0.0574971
215 0.084066
220 0.112523
225 0.0999752
230 0.0995257
235 0.08112
240 0.0654952
245 0.0639516
250 0.169163
255 0.117992
260 0.0992344
265 0.168226
270 0.148352
275 0.0788232
280 0.0961475
285 0.0871014
290 0.0812625
295 0.138008
300 0.118746
305 0.176199
310 0.0836424
315 0.13761
320 0.170827
325 0.0987705
330 0.108796
335 0.145364
340 0.185657
345 0.198651
350 0.242372
355 0.375114
360 0.599493
365 18.3591
370 346.994
375 573.098
380 154.071
385 23.2398
390 11.6812
395 12.4112
400 11.2499
405 10.1497
410 11.6188
415 15.2928
420 17.3346
425 14.6257
430 12.0642
435 11.0366
440 10.2684
445 9.91127
450 9.02957
455 7.9929
460 7.35811
465 6.80828
470 6.70487
475 6.23152
480 5.8545
485 5.49633
490 4.98497
495 4.63523
500 4.20046
505 3.8257
510 3.4336
515 3.04961
520 2.72595
525 2.55547
530 2.26829
535 1.99228
540 1.7991
545 1.74187
550 1.369
555 1.24112
560 1.02656
565 0.915618
570 0.777797
575 0.64858
580 0.505118
585 0.437194
590 0.321241
595 0.295492
600 0.365952
Ex : 383
200 0.0823242
205 0.116374
210 0.0835593
215 0.0712256
220 0.109374
225 0.101767
230 0.11584
235 0.0942864
240 0.103729
245 0.068908
250 0.0973899
255 0.0904492
260 0.0704085
265 0.0803434
270 0.0646303
275 0.13332
280 0.0803123
285 0.073397
290 0.150982
295 0.0698853
300 0.098166
305 0.106977
310 0.0986467
315 0.0966185
320 0.110666
325 0.0882562
330 0.102277
335 0.106789
340 0.122928
345 0.190776
350 0.171671
355 0.232701
360 0.251122
365 0.588561
370 17.0619
375 341.91
380 594.383
385 165.742
390 28.3978
395 13.0374
400 10.6299
405 11.1713
410 12.5248
415 13.4117
420 12.8956
425 13.8146
430 13.405
435 11.7533
440 11.5612
445 10.1857
450 8.61593
455 7.92158
460 7.21628
465 7.08287
470 6.54619
475 5.95743
480 5.75187
485 4.99071
490 4.74014
495 4.52829
500 4.02157
505 3.82242
510 3.49623
515 3.10597
520 2.80518
525 2.38558
530 2.15313
535 2.04995
540 1.77403
545 1.46181
550 1.31733
555 1.21627
560 1.09022
565 0.856414
570 0.924597
575 0.692429
580 0.579997
585 0.346886
590 0.367614
595 0.273412
600 0.11518
Ex : 388
200 0.132596
205 0.101181
210 0.0733554
215 0.126092
220 0.094728
225 0.101654
230 0.0719612
235 0.0714545
240 0.0654753
245 0.0801368
250 0.0725756
255 0.0857305
260 0.10906
265 0.132078
270 0.0989904
275 0.147703
280 0.0793991
285 0.122311
290 0.100668
295 0.126454
300 0.0948879
305 0.165458
310 0.12415
315 0.089732
320 0.0885514
325 0.125859
330 0.0905862
335 0.11265
340 0.100254
345 0.213505
350 0.114392
355 0.128062
360 0.188774
365 0.368381
370 0.61072
375 19.531
380 357.35
385 603.408
390 169.725
395 31.8643
400 14.5446
405 13.2747
410 15.5042
415 17.2821
420 15.7993
425 13.7238
430 14.6175
435 15.1398
440 14.1366
445 12.7047
450 10.3502
455 8.94509
460 8.32032
465 7.72857
470 7.33786
475 6.93376
480 6.48071
485 5.7703
490 5.24982
495 4.74303
500 4.46053
505 4.29283
510 3.68165
515 3.30947
520 2.98903
525 2.73618
530 2.32769
535 2.1491
540 1.86824
545 1.6194
550 1.4768
555 1.25718
560 1.12983
565 0.852475
570 0.743941
575 0.589484
580 0.444091
585 0.399279
590 0.343003
595 0.29317
600 0.0333617
Ex : 393
200 0.0611878
205 0.144824
210 0.102429
215 0.0728735
220 0.141973
225 0.11756
230 0.0789427
235 0.0853882
240 0.0892627
245 0.0759521
250 0.085036
255 0.067844
260 0.106434
265 0.0942187
270 0.0678813
275 0.0768302
280 0.0801357
285 0.0827768
290 0.0665446
295 0.083158
300 0.0830315
305 0.100676
310 0.110282
315 0.0810996
320 0.137825
325 0.207558
330 0.0877662
335 0.109592
340 0.095205
345 0.127666
350 0.117646
355 0.18328
360 0.181196
365 0.225409
370 0.356998
375 0.712161
380 17.3752
385 354.621
390 617.41
395 178.156
400 32.3951
405 13.7923
410 14.2979
415 17.5315
420 17.4107
425 14.2022
430 12.2204
435 12.3373
440 14.791
445 13.5601
450 11.5298
455 9.7936
460 7.75207
465 7.25296
470 7.02602
475 6.72559
480 6.20953
485 5.58747
490 5.17421
495 4.57096
500 4.37608
505 4.06751
510 3.66299
515 3.19123
520 2.8111
525 2.46647
530 2.36203
535 1.97194
540 1.88107
545 1.63546
550 1.55484
555 1.34119
560 1.16527
565 0.937959
570 0.835922
575 0.696502
580 0.461257
585 0.35966
590 0.366157
595 0.27718
600 1.09113
Ex : 398
200 0.107702
205 0.0815653
210 0.0525642
215 0.0638623
220 0.0523616
225 0.0885462
230 0.0913097
235 0.0897027
240 0.0830603
245 0.0910332
250 0.0596732
255 0.0560603
260 0.136368
265 0.105253
270 0.0723445
275 0.0682115
280 0.0859141
285 0.0945033
290 0.117807
295 0.119932
300 0.0996422
305 0.104223
310 0.0646999
315 0.0879462
320 0.126825
325 0.0981782
330 0.103511
335 0.176809
340 0.100939
345 0.157015
350 0.150806
355 0.116425
360 0.184018
365 0.181217
370 0.26904
375 0.291523
380 0.786774
385 19.2994
390 363.221
395 622.914
400 171.33
405 26.1409
410 10.332
415 10.6268
420 11.1465
425 9.1127
430 7.20415
435 6.55638
440 7.94386
445 10.291
450 9.12626
455 7.26363
460 6.50968
465 5.56554
470 5.23478
475 5.13987
480 4.48502
485 4.49304
490 4.24751
495 3.75555
500 3.81187
505 3.49844
510 3.22019
515 2.90166
520 2.79287
525 2.40321
530 2.05608
535 1.87093
540 1.76234
545 1.67556
550 1.38106
555 1.30165
560 1.02311
565 0.948262
570 0.760989
575 0.609277
580 0.465365
585 0.345757
590 0.384849
595 0.282354
600 0.231075
Ex : 403
200 0.0780171
205 0.102013
210 0.0932145
215 0.125565
220 0.116082
225 0.098611
230 0.0586431
235 0.136547
240 0.0899554
245 0.18949
250 0.130595
255 0.0795258
260 0.0832473
265 0.06407
270 0.111825
275 0.114104
280 0.0797045
285 0.0938317
290 0.0846797
295 0.0609955
300 0.0566081
305 0.0590984
310 0.111285
315 0.111486
320 0.0978101
325 0.0618396
330 0.101237
335 0.0884516
340 0.140927
345 0.106744
350 0.0918199
355 0.125882
360 0.146789
365 0.117687
370 0.208471
375 0.233047
380 0.35438
385 0.832471
390 20.7864
395 371.645
400 618.086
405 168.583
410 23.0254
415 6.71253
420 4.88238
425 4.61762
430 4.22389
435 3.55042
440 3.943
445 4.53704
450 6.28252
455 6.62264
460 5.37357
465 4.88514
470 4.21837
475 4.05053
480 4.00914
485 3.78673
490 3.74503
495 3.46135
500 3.22677
505 3.17019
510 2.85739
515 2.79894
520 2.4088
525 2.15084
530 2.06172
535 1.80929
540 1.65862
545 1.55375
550 1.30325
555 1.23454
560 1.03498
565 0.805405
570 0.767129
575 0.625962
580 0.475451
585 0.341782
590 0.251751
595 0.216587
600 0.258337
Ex : 408
200 0.0692798
205 0.104146
210 0.0455421
215 0.044623
220 0.0860468
225 0.070439
230 0.0668886
235 0.0735372
240 0.0548737
245 0.0577239
250 0.0809756
255 0.075066
260 0.0709601
265 0.0927755
270 0.0828947
275 0.109316
280 0.0928845
285 0.113849
290 0.0838954
295 0.0697064
300 0.0953608
305 0.0939061
310 0.0492514
315 0.0716421
320 0.0749333
325 0.0911997
330 0.108117
335 0.0922491
340 0.132548
345 0.0803415
350 0.0766248
355 0.128408
360 0.0981027
365 0.0974491
370 0.182899
375 0.116248
380 0.226812
385 0.386097
390 0.806772
395 19.0367
400 370.724
405 620.275
410 163.088
415 21.9068
420 5.68604
425 3.28794
430 3.10372
435 3.06171
440 3.04414
445 3.38917
450 3.66777
455 5.21364
460 5.97288
465 5.05347
470 4.43132
475 3.99271
480 3.62425
485 3.405
490 3.31553
495 3.41814
500 3.0727
505 3.06312
510 2.85422
515 2.54953
520 2.39775
525 2.05938
530 1.93144
535 1.78435
540 1.59024
545 1.45069
550 1.37639
555 1.22085
560 1.0889
565 0.910088
570 0.731074
575 0.588695
580 0.451044
585 0.40987
590 0.363522
595 0.261903
600 0.427225
Ex : 413
200 0.0679781
205 0.0497469
210 0.0654867
215 0.0804874
220 0.0774379
225 0.110651
230 0.106272
235 0.0758259
240 0.0502523
245 0.0682641
250 0.106086
255 0.0785748
260 0.0609955
265 0.0623511
270 0.0607274
275 0.0768087
280 0.0536053
285 0.0686774
290 0.15249
295 0.068062
300 0.0524528
305 0.114721
310 0.0661047
315 0.117337
320 0.0415411
325 0.0902927
330 0.104907
335 0.118311
340 0.0788711
345 0.119127
350 0.0930772
355 0.0926307
360 0.102448
365 0.0946641
370 0.138642
375 0.100914
380 0.17245
385 0.30842
390 0.489888
395 0.768327
400 21.4802
405 384.348
410 619.843
415 159.254
420 21.241
425 4.70412
430 3.01847
435 3.20066
440 2.99423
445 2.95697
450 2.98931
455 2.92931
460 4.08229
465 5.95357
470 5.03646
475 4.35215
480 4.06866
485 3.60069
490 3.14313
495 3.03157
500 2.941
505 2.79769
510 2.5959
515 2.32718
520 2.21848
525 2.1741
530 1.93532
535 1.7464
540 1.68353
545 1.33532
550 1.32021
555 1.12273
560 1.00219
565 0.812288
570 0.743241
575 0.517887
580 0.434783
585 0.40767
590 0.279186
595 0.20028
600 0.0966415
Ex : 418
200 0.096634
205 0.0917396
210 0.0823624
215 0.0541814
220 0.0600859
225 0.137941
230 0.0639748
235 0.094266
240 0.0499942
245 0.105244
250 0.116169
255 0.0573953
260 0.090048
265 0.0835606
270 0.0650498
275 0.119144
280 0.0427953
285 0.0632397
290 0.0871324
295 0.0369654
300 0.0403064
305 0.0523791
310 0.0283586
315 0.0807305
320 0.0639487
325 0.0810336
330 0.0752898
335 0.083901
340 0.0633941
345 0.0948706
350 0.0706249
355 0.0698502
360 0.161039
365 0.118067
370 0.098084
375 0.15129
380 0.184937
385 0.183741
390 0.25691
395 0.374027
400 0.658004
405 19.5733
410 383.131
415 629.834
420 166.417
425 21.0743
430 4.0774
435 2.41054
440 2.50866
445 2.38896
450 2.23237
455 1.9885
460 2.14291
465 2.96363
470 4.77194
475 4.84099
480 3.785
485 3.4102
490 3.15133
495 2.61369
500 2.74292
505 2.46254
510 2.32513
515 2.17615
520 2.00533
525 1.91416
530 1.51072
535 1.61173
540 1.35801
545 1.25827
550 1.24711
555 1.19831
560 0.880529
565 0.801896
570 0.69711
575 0.646324
580 0.441865
585 0.331436
590 0.319306
595 0.256625
600 0.122795
Ex : 423
200 0.0699579
205 0.0719245
210 0.100854
215 0.0861088
220 0.0752634
225 0.0714805
230 0.0634085
235 0.0556436
240 0.0701587
245 0.0448482
250 0.0597713
255 0.0597809
260 0.036621
265 0.0499249
270 0.0663602
275 0.0619578
280 0.0511555
285 0.0490677
290 0.0672617
295 0.0543148
300 0.0651869
305 0.0813262
310 0.09391
315 0.0720642
320 0.0900577
325 0.121601
330 0.0940523
335 0.149029
340 0.0774785
345 0.0712863
350 0.0905838
355 0.0950157
360 0.16219
365 0.0943632
370 0.0935746
375 0.0904772
380 0.111928
385 0.13023
390 0.220788
395 0.256961
400 0.403009
405 0.763849
410 20.5345
415 394.507
420 623.537
425 157.957
430 19.7225
435 3.57338
440 1.68712
445 1.76101
450 1.84616
455 1.65592
460 1.4717
465 1.81057
470 2.28619
475 3.8031
480 4.46696
485 3.58793
490 3.10449
495 2.80196
500 2.42653
505 2.11758
510 2.07442
515 2.14242
520 1.91953
525 1.6184
530 1.61484
535 1.43133
540 1.35954
545 1.27755
550 1.13415
555 1.02815
560 0.924866
565 0.778997
570 0.691285
575 0.594715
580 0.456512
585 0.40463
590 0.29633
595 0.250155
600 0.775202
Ex : 428
200 0.0945139
205 0.0441863
210 0.0569862
215 0.0875865
220 0.0494359
225 0.0448869
230 0.0816291
235 0.0871284
240 0.0355371
245 0.103588
250 0.0421097
255 0.0779634
260 0.0481278
265 0.0911651
270 0.0908674
275 0.0896248
280 0.122937
285 0.110525
290 0.0577009
295 0.080281
300 0.0663444
305 0.0662903
310 0.0533951
315 0.0562734
320 0.0968717
325 0.106501
330 0.130695
335 0.104631
340 0.0894988
345 0.126907
350 0.0969514
355 0.165072
360 0.100287
365 0.0980043
370 0.0956269
375 0.146343
380 0.164224
385 0.147505
390 0.124312
395 0.20742
400 0.29572
405 0.38071
410 0.796213
415 21.8452
420 395.364
425 631.71
430 164.886
435 20.3634
440 3.40746
445 1.39883
450 1.49296
455 1.39841
460 1.48353
465 1.41953
470 1.53367
475 1.80691
480 3.11362
485 4.2057
490 3.51754
495 2.74719
500 2.63054
505 2.26341
510 1.8384
515 1.75351
520 1.81544
525 1.55735
530 1.5025
535 1.43122
540 1.25566
545 1.13458
550 1.01411
555 1.0155
560 0.913977
565 0.70536
570 0.598439
575 0.581087
580 0.374235
585 0.399231
590 0.286808
595 0.207777
600 0.44016
Ex : 433
200 0.0831329
205 0.0676983
210 0.0454891
215 0.0491972
220 0.0892377
225 0.0980394
230 0.058031
235 0.101938
240 0.108613
245 0.100459
250 0.132076
255 0.117424
260 0.0990503
265 0.0929984
270 0.0776914
275 0.103322
280 0.0816288
285 0.0760539
290 0.0524231
295 0.116705
300 0.0944655
305 0.0458159
310 0.0954719
315 0.0801744
320 0.12516
325 0.0735094
330 0.0692867
335 0.101977
340 0.0833023
345 0.130647
350 0.109605
355 0.0695345
360 0.101746
365 0.10149
370 0.121434
375 0.087538
380 0.128474
385 0.12296
390 0.15875
395 0.189812
400 0.199098
405 0.250535
410 0.375539
415 0.67708
420 24.7056
425 422.051
430 645.581
435 162.067
440 20.0031
445 3.37431
450 1.40245
455 1.57652
460 1.49747
465 1.43284
470 1.37941
475 1.54675
480 1.70302
485 2.5631
490 4.02771
495 3.58021
500 2.57848
505 2.36459
510 1.99142
515 1.76567
520 1.73032
525 1.51476
530 1.33348
535 1.26768
540 1.20199
545 1.14736
550 1.08506
555 0.906732
560 0.82675
565 0.748977
570 0.656029
575 0.615676
580 0.380902
585 0.369386
590 0.219949
595 0.27452
600 0.249796
Ex : 438
200 0.0901471
205 0.0570493
210 0.0771436
215 0.0791582
220 0.050459
225 0.082665
230 0.0977221
235 0.0724572
240 0.0793373
245 0.0579828
250 0.0754138
255 0.063573
260 0.0815383
265 0.0830408
270 0.0762824
275 0.0883505
280 0.131218
285 0.0767487
290 0.0758253
295 0.114724
300 0.0663771
305 0.0788053
310 0.0524797
315 0.0628705
320 0.0609301
325 0.0777309
330 0.0690778
335 0.0789916
340 0.0900092
345 0.126409
350 0.0681371
355 0.0642704
360 0.100095
365 0.102472
370 0.118514
375 0.136533
380 0.117794
385 0.0824345
390 0.119241
395 0.139674
400 0.187399
405 0.224845
410 0.280771
415 0.509953
420 0.695789
425 23.0254
430 414.239
435 677.344
440 170.722
445 21.0039
450 3.60516
455 1.40388
460 1.59092
465 1.71323
470 1.56609
475 1.39285
480 1.4345
485 1.52543
490 1.9109
495 3.34653
500 3.76471
505 2.68454
510 2.07867
515 1.96965
520 1.55171
525 1.47267
530 1.23709
535 1.28613
540 1.26975
545 1.0526
550 0.972086
555 0.935338
560 0.716299
565 0.83551
570 0.591678
575 0.542348
580 0.402038
585 0.398964
590 0.26176
595 0.2932
600 0.033365
Ex : 443
200 0.0627538
205 0.0676222
210 0.0717262
215 0.0997717
220 0.118579
225 0.0532607
230 0.0678407
235 0.131476
240 0.0895808
245 0.051196
250 0.0410625
255 0.0715655
260 0.0752859
265 0.0972806
270 0.118502
275 0.133578
280 0.080327
285 0.0707695
290 0.0580585
295 0.0741914
300 0.110689
305 0.0685412
310 0.0804078
315 0.0684056
320 0.0783802
325 0.0928237
330 0.105518
335 0.117835
340 0.120651
345 0.0931388
350 0.102596
355 0.0595663
360 0.1068
365 0.129257
370 0.126602
375 0.106365
380 0.146963
385 0.0835385
390 0.117663
395 0.110817
400 0.157926
405 0.187974
410 0.182583
415 0.248668
420 0.372972
425 0.650497
430 26.6256
435 449.155
440 687.154
445 171.555
450 21.1876
455 3.59057
460 1.43388
465 1.55616
470 1.79994
475 1.54748
480 1.43791
485 1.31349
490 1.35751
495 1.84734
500 2.75613
505 3.59961
510 2.61918
515 2.11717
520 2.03856
525 1.79386
530 1.39505
535 1.30491
540 1.16076
545 1.12953
550 0.98297
555 0.983203
560 0.780967
565 0.736847
570 0.580879
575 0.498586
580 0.416691
585 0.358948
590 0.285783
595 0.203221
600 0.163367
Ex : 448
200 0.0655109
205 0.0432373
210 0.0420937
215 0.0578383
220 0.109097
225 0.12164
230 0.0969642
235 0.0743141
240 0.0925594
245 0.0482906
250 0.0751296
255 0.0400722
260 0.0875838
265 0.0911527
270 0.0742709
275 0.0720206
280 0.045487
285 0.132632
290 0.123479
295 0.107867
300 0.079224
305 0.114552
310 0.0872818
315 0.0845107
320 0.0840501
325 0.0791625
330 0.0652856
335 0.0696565
340 0.106623
345 0.0645781
350 0.0729803
355 0.115551
360 0.0715241
365 0.111944
370 0.0927982
375 0.0659879
380 0.0979903
385 0.0944146
390 0.133476
395 0.127876
400 0.203097
405 0.119485
410 0.188472
415 0.189675
420 0.276495
425 0.471764
430 0.698728
435 26.8362
440 476.796
445 727.756
450 181.617
455 22.2552
460 3.77906
465 1.6107
470 1.32167
475 1.51497
480 1.45584
485 1.31297
490 1.14001
495 1.25107
500 1.37041
505 2.22798
510 3.42814
515 2.78361
520 1.97151
525 1.8238
530 1.53566
535 1.27938
540 1.0125
545 0.967168
550 1.0154
555 0.858268
560 0.78441
565 0.752618
570 0.640725
575 0.477402
580 0.419238
585 0.281234
590 0.241472
595 0.211671
600 1.01039
Ex : 453
200 0.0711644
205 0.0767832
210 0.0772682
215 0.0957386
220 0.0565066
225 0.0695867
230 0.0766057
235 0.0489079
240 0.0807259
245 0.0722271
250 0.0934246
255 0.0788474
260 0.0833144
265 0.0881109
270 0.0763417
275 0.0662987
280 0.0836277
285 0.0816283
290 0.0470026
295 0.104998
300 0.0720322
305 0.0817797
310 0.0746146
315 0.10066
320 0.0732424
325 0.0876802
330 0.100867
335 0.0612282
340 0.0800406
345 0.0687314
350 0.0676937
355 0.090158
360 0.0978149
365 0.0764091
370 0.0981193
375 0.0877627
380 0.0930478
385 0.109264
390 0.149512
395 0.0702236
400 0.128758
405 0.150633
410 0.178864
415 0.188697
420 0.155877
425 0.298825
430 0.394818
435 0.687781
440 28.6337
445 516.083
450 754.819
455 177.675
460 21.7518
465 3.8016
470 1.4403
475 1.36919
480 1.73184
485 1.42627
490 1.25282
495 1.04252
500 1.22192
505 1.28084
510 1.67292
515 2.96264
520 2.95909
525 1.91096
530 1.79297
535 1.6376
540 1.25392
545 1.1051
550 0.947486
555 0.810086
560 0.829194
565 0.716014
570 0.627722
575 0.502124
580 0.400338
585 0.352486
590 0.300272
595 0.208484
600 0.0237247
Ex : 458
200 0.0715788
205 0.077184
210 0.0484547
215 0.0873515
220 0.144997
225 0.131083
230 0.0791847
235 0.0930673
240 0.0931252
245 0.078923
250 0.0585317
255 0.0735295
260 0.072241
265 0.103216
270 0.0569572
275 0.0616222
280 0.094363
285 0.0585287
290 0.0638036
295 0.0880709
300 0.0618241
305 0.0911454
310 0.102445
315 0.0690095
320 0.084613
325 0.101062
330 0.116472
335 0.0837855
340 0.0908299
345 0.0538557
350 0.0640508
355 0.0739399
360 0.0789739
365 0.0762656
370 0.0829052
375 0.105351
380 0.0971911
385 0.132563
390 0.116182
395 0.112372
400 0.117768
405 0.11631
410 0.145635
415 0.186148
420 0.226154
425 0.223464
430 0.25759
435 0.449539
440 0.839448
445 32.3506
450 533.391
455 806.881
460 195.453
465 24.0413
470 4.1989
475 1.46353
480 1.44364
485 1.47704
490 1.40472
495 1.27153
500 1.04693
505 1.06226
510 1.08715
515 1.28205
520 2.54839
525 3.00085
530 2.16349
535 1.62567
540 1.59276
545 1.2979
550 0.933469
555 0.881315
560 0.790484
565 0.749417
570 0.595629
575 0.611402
580 0.384304
585 0.243292
590 0.310295
595 0.317672
600 0.300558
Ex : 463
200 0.0813547
205 0.0381403
210 0.0671456
215 0.0515934
220 0.0561701
225 0.122802
230 0.109893
235 0.0773464
240 0.0944444
245 0.115712
250 0.0746019
255 0.0742712
260 0.0509198
265 0.0914892
270 0.0608808
275 0.10499
280 0.078794
285 0.0521597
290 0.0970946
295 0.100955
300 0.0816787
305 0.0612747
310 0.0888092
315 0.0562182
320 0.0744921
325 0.0384879
330 0.0754215
335 0.104771
340 0.0944882
345 0.103614
350 0.0648928
355 0.118128
360 0.089549
365 0.0961861
370 0.0875664
375 0.139857
380 0.0845821
385 0.121625
390 0.13264
395 0.0839719
400 0.0667217
405 0.107501
410 0.131766
415 0.111279
420 0.105824
425 0.212461
430 0.175556
435 0.22165
440 0.465491
445 0.751466
450 32.1049
455 564.93
460 869.971
465 209.789
470 25.6996
475 4.30318
480 1.45456
485 1.30616
490 1.44326
495 1.4675
500 1.12824
505 1.07117
510 1.10419
515 1.034
520 1.23311
525 1.781
530 2.76416
535 2.36938
540 1.60156
545 1.44926
550 1.2515
555 1.09958
560 0.750309
565 0.741565
570 0.683593
575 0.519985
580 0.453149
585 0.329794
590 0.294031
595 0.305819
600 0.173653
Ex : 468
200 0.0597364
205 0.0865561
210 0.0950962
215 0.0723587
220 0.0518617
225 0.0501333
230 0.058075
235 0.055312
240 0.0825505
245 0.0356858
250 0.0555315
255 0.0591767
260 0.0489315
265 0.0381658
270 0.0853704
275 0.0695832
280 0.10258
285 0.0587114
290 0.0641465
295 0.0521061
300 0.0626419
305 0.0627663
310 0.0966137
315 0.120457
320 0.0736168
325 0.0622363
330 0.0518086
335 0.0840013
340 0.0996076
345 0.0668746
350 0.0721936
355 0.0806203
360 0.0854317
365 0.0840501
370 0.0982491
375 0.110261
380 0.100821
385 0.113526
390 0.129242
395 0.125751
400 0.135385
405 0.104793
410 0.0967978
415 0.0992406
420 0.096056
425 0.171469
430 0.188603
435 0.260403
440 0.260958
445 0.447899
450 0.787466
455 35.1977
460 574.704
465 913.15
470 220.613
475 26.7523
480 4.27585
485 1.53363
490 1.19117
495 1.35567
500 1.38562
505 1.16786
510 1.05989
515 1.04697
520 1.06007
525 1.22938
530 1.51699
535 2.50756
540 2.57877
545 1.70195
550 1.46938
555 1.25988
560 0.949456
565 0.781998
570 0.59959
575 0.550904
580 0.482551
585 0.353393
590 0.267309
595 0.256586
600 0.204518
Ex : 473
200 0.0668597
205 0.0564276
210 0.0698972
215 0.0480496
220 0.0728073
225 0.0861033
230 0.0390001
235 0.0834214
240 0.0892342
245 0.059812
250 0.0824067
255 0.0809931
260 0.0855934
265 0.0884785
270 0.0760852
275 0.0789683
280 0.074788
285 0.0603232
290 0.083579
295 0.108633
300 0.113565
305 0.0692323
310 0.117552
315 0.0677404
320 0.0961077
325 0.052268
330 0.098958
335 0.128537
340 0.0629946
345 0.081705
350 0.051612
355 0.0735392
360 0.0560165
365 0.0889209
370 0.129375
375 0.0998157
380 0.120887
385 0.133805
390 0.0761461
395 0.116017
400 0.108643
405 0.0781402
410 0.143503
415 0.156574
420 0.139329
425 0.151014
430 0.117131
435 0.115271
440 0.168089
445 0.284805
450 0.47016
455 0.993136
460 40.6273
465 642.551
470 909.162
475 210.409
480 25.6339
485 4.14636
490 1.51426
495 1.1268
500 1.36554
505 1.14698
510 1.09427
515 1.06859
520 0.97025
525 0.964599
530 1.00284
535 1.09577
540 2.06547
545 2.53422
550 1.79151
555 1.15014
560 1.14
565 0.967557
570 0.746967
575 0.50805
580 0.415041
585 0.423511
590 0.285137
595 0.282679
600 0.50481
Ex : 478
200 0.060644
205 0.0685676
210 0.0674038
215 0.106039
220 0.089523
225 0.0730879
230 0.0780295
235 0.0884115
240 0.0826008
245 0.062789
250 0.0880633
255 0.0651166
260 0.0961198
265 0.103521
270 0.0902848
275 0.0986932
280 0.0673998
285 0.0799629
290 0.131514
295 0.126329
300 0.0933074
305 0.09741
310 0.10361
315 0.0861566
320 0.0770151
325 0.0720856
330 0.0853429
335 0.154995
340 0.13695
345 0.0784797
350 0.102509
355 0.168058
360 0.0870245
365 0.0702007
370 0.073437
375 0.121183
380 0.143722
385 0.0763417
390 0.119593
395 0.134
400 0.20124
405 0.145238
410 0.123935
415 0.162945
420 0.139917
425 0.123677
430 0.177923
435 0.155405
440 0.203379
445 0.194301
450 0.348571
455 0.548008
460 1.06363
465 45.552
470 663.696
475 939.87
480 226.726
485 27.5142
490 4.40388
495 1.44923
500 1.00048
505 1.18382
510 1.13291
515 1.12878
520 1.06299
525 1.10172
530 1.06555
535 0.960971
540 1.06887
545 1.54709
550 2.13446
555 1.86917
560 1.17162
565 1.04488
570 0.858996
575 0.596886
580 0.518343
585 0.530695
590 0.422105
595 0.277763
600 0.221287
Ex : 483
200 0.0869458
205 0.0613944
210 0.0915414
215 0.0987717
220 0.0787967
225 0.0663442
230 0.107834
235 0.0799862
240 0.101789
245 0.0928093
250 0.073323
255 0.106441
260 0.084206
265 0.0661266
270 0.0978055
275 0.0742523
280 0.0887586
285 0.108855
290 0.0794186
295 0.105227
300 0.11045
305 0.0626123
310 0.0982059
315 0.123218
320 0.085201
325 0.118353
330 0.0989381
335 0.0978099
340 0.0543598
345 0.111285
350 0.0997734
355 0.117168
360 0.0842088
365 0.161311
370 0.111684
375 0.086133
380 0.087378
385 0.108105
390 0.105661
395 0.191138
400 0.126491
405 0.11496
410 0.140443
415 0.140402
420 0.134877
425 0.182115
430 0.108795
435 0.182739
440 0.252398
445 0.156038
450 0.275433
455 0.439782
460 0.608519
465 1.09035
470 35.0364
475 665.501
480 1023.24
485 246.475
490 29.6341
495 4.4278
500 1.5319
505 1.00939
510 1.18276
515 1.27458
520 1.1409
525 0.99476
530 1.04889
535 0.862541
540 0.975241
545 0.978454
550 1.12942
555 2.02747
560 2.0084
565 1.24967
570 0.994091
575 0.789293
580 0.678952
585 0.402408
590 0.332776
595 0.358572
600 0.402645
Ex : 488
200 0.0765037
205 0.123235
210 0.131993
215 0.0762082
220 0.0853857
225 0.096016
230 0.122811
235 0.143064
240 0.0887082
245 0.131898
250 0.111311
255 0.0946198
260 0.0836735
265 0.118058
270 0.106651
275 0.127098
280 0.104989
285 0.0849645
290 0.101156
295 0.101086
300 0.0767818
305 0.0509842
310 0.0972297
315 0.083005
320 0.0618775
325 0.0881106
330 0.0692552
335 0.0924446
340 0.137916
345 0.126725
350 0.0911265
355 0.164162
360 0.117621
365 0.120323
370 0.121286
375 0.0830634
380 0.128652
385 0.106212
390 0.0759017
395 0.134818
400 0.0938661
405 0.177638
410 0.124541
415 0.149599
420 0.122178
425 0.142628
430 0.185762
435 0.197742
440 0.163064
445 0.206846
450 0.250651
455 0.245582
460 0.424216
465 0.697869
470 1.06568
475 44.688
480 731.826
485 1031.46
490 242.286
495 29.3027
500 4.44934
505 1.35964
510 1.01908
515 1.04872
520 1.28333
525 1.05207
530 1.1168
535 0.992159
540 1.01803
545 0.841109
550 0.802621
555 0.86468
560 1.41824
565 1.82187
570 1.39736
575 0.918091
580 0.74092
585 0.636794
590 0.423408
595 0.35476
600 0.132754
Ex : 493
200 0.134022
205 0.0728637
210 0.0944604
215 0.0888299
220 0.0731672
225 0.0603376
230 0.10734
235 0.0872638
240 0.0775371
245 0.0829417
250 0.0962159
255 0.087849
260 0.0897036
265 0.0790307
270 0.149922
275 0.101797
280 0.110838
285 0.0745931
290 0.0771613
295 0.137745
300 0.0883395
305 0.114727
310 0.0832363
315 0.151723
320 0.111371
325 0.127721
330 0.122154
335 0.131426
340 0.0945936
345 0.0552482
350 0.138476
355 0.0718714
360 0.0807164
365 0.10927
370 0.128879
375 0.127343
380 0.141574
385 0.127464
390 0.121092
395 0.153872
400 0.092533
405 0.10455
410 0.104652
415 0.107468
420 0.116294
425 0.192982
430 0.209712
435 0.204183
440 0.119902
445 0.148596
450 0.200681
455 0.215027
460 0.228891
465 0.470562
470 0.689818
475 1.11251
480 42.1657
485 730.201
490 1092.22
495 252.417
500 30.5062
505 4.58219
510 1.3966
515 0.984728
520 1.08494
525 1.40752
530 1.20998
535 1.04493
540 0.922887
545 0.824799
550 0.821717
555 0.692992
560 0.973615
565 0.923618
570 1.52429
575 1.30081
580 0.80416
585 0.564625
590 0.514827
595 0.435683
600 0.29219
Ex : 498
200 0.180593
205 0.122027
210 0.115266
215 0.0995217
220 0.119242
225 0.120027
230 0.125936
235 0.115202
240 0.10057
245 0.0612172
250 0.0977611
255 0.0824994
260 0.0825749
265 0.0665424
270 0.106256
275 0.115058
280 0.0706668
285 0.15446
290 0.0988146
295 0.108734
300 0.104508
305 0.0841171
310 0.0760063
315 0.120391
320 0.0909277
325 0.131939
330 0.193923
335 0.0919466
340 0.109971
345 0.0907479
350 0.0819617
355 0.131314
360 0.107208
365 0.139553
370 0.0888203
375 0.122667
380 0.113227
385 0.153965
390 0.124435
395 0.177777
400 0.139046
405 0.147479
410 0.152078
415 0.183419
420 0.0981934
425 0.105892
430 0.129273
435 0.137317
440 0.127659
445 0.122594
450 0.249684
455 0.219882
460 0.217776
465 0.31236
470 0.446186
475 0.616034
480 1.16102
485 50.6097
490 782.32
495 1088.57
500 252.837
505 30.4821
510 4.58708
515 1.5973
520 1.04237
525 0.996299
530 1.26754
535 1.16285
540 0.932635
545 0.913255
550 0.744331
555 0.73503
560 0.677814
565 0.709126
570 0.783673
575 1.09228
580 1.12239
585 0.632826
590 0.518418
595 0.445236
600 0.198367
Ex : 503
200 0.0841984
205 0.121175
210 0.087186
215 0.151004
220 0.0760827
225 0.152067
230 0.143581
235 0.137859
240 0.0782765
245 0.0782927
250 0.160838
255 0.0960035
260 0.0799175
265 0.0721931
270 0.140046
275 0.111613
280 0.109816
285 0.0842266
290 0.0871556
295 0.0873104
300 0.0527619
305 0.120341
310 0.108715
315 0.092593
320 0.113398
325 0.138473
330 0.166477
335 0.130047
340 0.146085
345 0.132081
350 0.156568
355 0.142671
360 0.0800916
365 0.119468
370 0.112698
375 0.112385
380 0.129377
385 0.163986
390 0.0841496
395 0.128272
400 0.0673884
405 0.145202
410 0.180077
415 0.130013
420 0.0874639
425 0.0925876
430 0.159107
435 0.130406
440 0.137471
445 0.149288
450 0.189184
455 0.18395
460 0.163845
465 0.271699
470 0.290265
475 0.451571
480 0.694628
485 1.15226
490 46.8446
495 790.758
500 1120.93
505 257.237
510 30.9842
515 4.763
520 1.76556
525 1.19995
530 1.01621
535 0.969635
540 0.931214
545 0.922187
550 0.830998
555 0.777403
560 0.635978
565 0.600772
570 0.549235
575 0.603417
580 0.779677
585 1.06629
590 0.797461
595 0.464144
600 0.134801
Ex : 508
200 0.0981921
205 0.141672
210 0.138306
215 0.144345
220 0.1168
225 0.105922
230 0.16322
235 0.0907485
240 0.145847
245 0.111138
250 0.101559
255 0.132447
260 0.111014
265 0.1217
270 0.0649631
275 0.0862308
280 0.153587
285 0.113884
290 0.110601
295 0.156529
300 0.113576
305 0.137627
310 0.12822
315 0.134887
320 0.0914128
325 0.132366
330 0.0793287
335 0.0675502
340 0.128827
345 0.119482
350 0.108623
355 0.151591
360 0.14727
365 0.105679
370 0.080024
375 0.0660026
380 0.154238
385 0.106706
390 0.119626
395 0.122737
400 0.172343
405 0.240338
410 0.124077
415 0.143075
420 0.107894
425 0.203437
430 0.162505
435 0.188559
440 0.138435
445 0.172217
450 0.191312
455 0.180108
460 0.237285
465 0.28606
470 0.236867
475 0.299595
480 0.452848
485 0.645248
490 1.29709
495 50.7007
500 804.642
505 1143.14
510 274.409
515 33.0586
520 4.98223
525 1.61043
530 1.07952
535 0.88202
540 1.04474
545 0.964238
550 0.912773
555 0.883123
560 0.693199
565 0.638841
570 0.627985
575 0.513835
580 0.399328
585 0.487867
590 0.748699
595 0.667291
600 1.01474
Ex : 513
200 0.142523
205 0.0715813
210 0.0607332
215 0.156054
220 0.13109
225 0.140708
230 0.117087
235 0.0820692
240 0.110864
245 0.147067
250 0.217669
255 0.102792
260 0.227039
265 0.134152
270 0.10335
275 0.125694
280 0.175441
285 0.0776287
290 0.143565
295 0.0930989
300 0.082551
305 0.139136
310 0.116691
315 0.151003
320 0.0872073
325 0.0985144
330 0.100293
335 0.0930212
340 0.165614
345 0.141394
350 0.110166
355 0.15936
360 0.127316
365 0.0793904
370 0.100834
375 0.17985
380 0.135994
385 0.094298
390 0.186616
395 0.105116
400 0.266283
405 0.133238
410 0.139515
415 0.194834
420 0.167688
425 0.21637
430 0.131186
435 0.102733
440 0.157416
445 0.109693
450 0.168643
455 0.109954
460 0.19456
465 0.251709
470 0.260346
475 0.262848
480 0.365215
485 0.451091
490 0.598171
495 1.32437
500 47.8189
505 791.419
510 1164.27
515 286.6
520 34.4218
525 5.19349
530 1.72704
535 1.04185
540 0.809627
545 0.978237
550 1.05944
555 0.833946
560 0.786376
565 0.676471
570 0.601296
575 0.504415
580 0.462804
585 0.363916
590 0.407929
595 0.527991
600 0.258858
Ex : 518
200 0.20197
205 0.163678
210 0.11531
215 0.122492
220 0.134069
225 0.174272
230 0.130941
235 0.116298
240 0.102069
245 0.0996323
250 0.143158
255 0.104779
260 0.156944
265 0.133296
270 0.0980421
275 0.0955232
280 0.140108
285 0.136131
290 0.0820227
295 0.121589
300 0.126887
305 0.170595
310 0.127362
315 0.0796929
320 0.0845315
325 0.0959643
330 0.121415
335 0.106413
340 0.229216
345 0.149478
350 0.0969337
355 0.180978
360 0.139603
365 0.124675
370 0.130515
375 0.0839508
380 0.124635
385 0.0812719
390 0.0969489
395 0.112601
400 0.155414
405 0.114565
410 0.162657
415 0.135892
420 0.14894
425 0.11562
430 0.151194
435 0.189307
440 0.227783
445 0.154803
450 0.197045
455 0.262134
460 0.192734
465 0.234893
470 0.239988
475 0.250337
480 0.233373
485 0.311028
490 0.412473
495 0.644342
500 1.31171
505 48.0703
510 787.711
515 1192.3
520 294.561
525 35.7007
530 5.22933
535 1.61901
540 0.941454
545 0.82851
550 0.831532
555 0.870143
560 0.789944
565 0.710819
570 0.533309
575 0.458582
580 0.385226
585 0.304708
590 0.310951
595 0.498964
600 0.0567803
Ex : 523
200 0.125515
205 0.121647
210 0.104308
215 0.093173
220 0.130716
225 0.149971
230 0.0922202
235 0.102304
240 0.109957
245 0.079041
250 0.189069
255 0.234824
260 0.102157
265 0.162777
270 0.173184
275 0.0908014
280 0.136215
285 0.1799
290 0.161507
295 0.0880885
300 0.1203
305 0.0941202
310 0.119259
315 0.0973843
320 0.131952
325 0.0875845
330 0.173909
335 0.0909907
340 0.105204
345 0.0702484
350 0.120043
355 0.119642
360 0.219314
365 0.261664
370 0.145716
375 0.228159
380 0.0994795
385 0.0935052
390 0.133541
395 0.130743
400 0.114489
405 0.104392
410 0.131447
415 0.140451
420 0.134305
425 0.176421
430 0.140191
435 0.177091
440 0.140346
445 0.147136
450 0.141475
455 0.1768
460 0.254507
465 0.219073
470 0.266069
475 0.202069
480 0.267724
485 0.327234
490 0.324492
495 0.511156
500 0.862794
505 1.13184
510 44.491
515 761.077
520 1169.44
525 295.655
530 35.5226
535 5.10421
540 1.59863
545 0.828314
550 0.888581
555 0.751105
560 0.561818
565 0.692318
570 0.598666
575 0.437848
580 0.382139
585 0.340463
590 0.371202
595 0.362969
600 0.572149
Ex : 528
200 0.123054
205 0.0828544
210 0.172711
215 0.197458
220 0.104037
225 0.206776
230 0.101901
235 0.0889107
240 0.0692196
245 0.074976
250 0.148379
255 0.0991807
260 0.130282
265 0.13578
270 0.261481
275 0.143867
280 0.0789182
285 0.0696527
290 0.169202
295 0.102136
300 0.0990806
305 0.100254
310 0.0923759
315 0.100543
320 0.157083
325 0.142523
330 0.0926287
335 0.094409
340 0.0928534
345 0.139324
350 0.144445
355 0.154815
360 0.195769
365 0.156269
370 0.119094
375 0.149316
380 0.183107
385 0.133174
390 0.143876
395 0.1333
400 0.164813
405 0.242229
410 0.121479
415 0.0960322
420 0.116524
425 0.189935
430 0.161616
435 0.150088
440 0.13269
445 0.182006
450 0.133669
455 0.22458
460 0.227415
465 0.239212
470 0.180498
475 0.189501
480 0.236092
485 0.170883
490 0.234552
495 0.351351
500 0.42619
505 0.598286
510 1.07209
515 41.7216
520 752.05
525 1162.26
530 292.573
535 34.9781
540 5.05137
545 1.46244
550 0.923855
555 0.654652
560 0.584821
565 0.726471
570 0.720284
575 0.516547
580 0.426443
585 0.330108
590 0.401917
595 0.406056
600 0.329613
Ex : 533
200 0.108986
205 0.117793
210 0.131236
215 0.137884
220 0.171191
225 0.192997
230 0.145231
235 0.099434
240 0.211127
245 0.126275
250 0.139817
255 0.153429
260 0.151211
265 0.133491
270 0.178806
275 0.110369
280 0.172601
285 0.100911
290 0.186687
295 0.175784
300 0.125173
305 0.198958
310 0.132928
315 0.124501
320 0.123212
325 0.135112
330 0.20329
335 0.151435
340 0.148269
345 0.147434
350 0.163012
355 0.198717
360 0.109018
365 0.161965
370 0.128758
375 0.116489
380 0.188596
385 0.168153
390 0.146963
395 0.12531
400 0.164473
405 0.144472
410 0.195973
415 0.19291
420 0.150694
425 0.133534
430 0.21775
435 0.101424
440 0.126174
445 0.221665
450 0.110203
455 0.146221
460 0.128491
465 0.138325
470 0.218623
475 0.214715
480 0.205713
485 0.195968
490 0.253888
495 0.257289
500 0.40761
505 0.402385
510 0.679367
515 1.23044
520 43.3426
525 740.957
530 1166.86
535 300.824
540 35.745
545 5.01001
550 1.34355
555 0.778295
560 0.565487
565 0.55556
570 0.52613
575 0.569808
580 0.524111
585 0.302459
590 0.430799
595 0.353757
600 0.0402562
Ex : 538
200 0.0923354
205 0.12624
210 0.137395
215 0.119474
220 0.142231
225 0.104771
230 0.120244
235 0.122657
240 0.185872
245 0.109611
250 0.120889
255 0.140374
260 0.210997
265 0.169636
270 0.171274
275 0.152646
280 0.212393
285 0.0744775
290 0.167909
295 0.146809
300 0.135648
305 0.135113
310 0.0965991
315 0.161548
320 0.14444
325 0.119745
330 0.144933
335 0.147197
340 0.118014
345 0.133816
350 0.0979478
355 0.109805
360 0.14679
365 0.131046
370 0.155373
375 0.099061
380 0.206014
385 0.136989
390 0.110691
395 0.145538
400 0.108262
405 0.0800119
410 0.157227
415 0.160624
420 0.174593
425 0.163004
430 0.132103
435 0.137947
440 0.107484
445 0.174982
450 0.190859
455 0.193076
460 0.17892
465 0.203479
470 0.196214
475 0.246101
480 0.289867
485 0.225504
490 0.251388
495 0.237085
500 0.385939
505 0.470601
510 0.312792
515 0.636918
520 1.15699
525 36.6219
530 696.391
535 1159.33
540 310.083
545 37.0685
550 5.08867
555 1.26897
560 0.807133
565 0.545685
570 0.400066
575 0.472792
580 0.496443
585 0.414651
590 0.561133
595 0.452855
600 1.38084
Ex : 543
200 0.205913
205 0.113445
210 0.100295
215 0.0818275
220 0.0976352
225 0.181752
230 0.157086
235 0.0809151
240 0.156674
245 0.202139
250 0.0800162
255 0.118819
260 0.176623
265 0.145972
270 0.136967
275 0.24153
280 0.124842
285 0.142415
290 0.116614
295 0.106487
300 0.117215
305 0.106623
310 0.131807
315 0.175805
320 0.127733
325 0.221596
330 0.119612
335 0.173606
340 0.129866
345 0.162793
350 0.171351
355 0.195107
360 0.116997
365 0.100915
370 0.203854
375 0.215401
380 0.198686
385 0.239103
390 0.135127
395 0.203552
400 0.25708
405 0.144034
410 0.238825
415 0.165673
420 0.148298
425 0.140975
430 0.155322
435 0.133916
440 0.154138
445 0.182771
450 0.169287
455 0.163867
460 0.162888
465 0.121895
470 0.207728
475 0.194108
480 0.236965
485 0.191267
490 0.2076
495 0.174671
500 0.261665
505 0.278678
510 0.36033
515 0.56329
520 0.701425
525 1.07382
530 33.5548
535 669.158
540 1159.65
545 320.402
550 38.4658
555 5.15182
560 1.19182
565 0.819867
570 0.506962
575 0.381163
580 0.422688
585 0.410627
590 0.359887
595 0.388243
600 1.86017
Ex : 548
200 0.125051
205 0.241979
210 0.0902893
215 0.0985648
220 0.120992
225 0.107327
230 0.103488
235 0.108122
240 0.131802
245 0.108034
250 0.114399
255 0.170628
260 0.0900703
265 0.119473
270 0.202353
275 0.175625
280 0.180528
285 0.0883397
290 0.0904729
295 0.12186
300 0.121023
305 0.0964826
310 0.149688
315 0.0979206
320 0.160692
325 0.138043
330 0.103225
335 0.108452
340 0.22991
345 0.257726
350 0.208682
355 0.148018
360 0.0929222
365 0.181391
370 0.119068
375 0.0903045
380 0.161112
385 0.175215
390 0.202214
395 0.117866
400 0.117693
405 0.1638
410 0.122735
415 0.153785
420 0.207583
425 0.124562
430 0.159124
435 0.182997
440 0.150801
445 0.228629
450 0.213457
455 0.139295
460 0.140917
465 0.214378
470 0.184582
475 0.136134
480 0.184772
485 0.151871
490 0.229325
495 0.21388
500 0.19433
505 0.258468
510 0.2649
515 0.367389
520 0.539455
525 0.650142
530 0.892074
535 36.7091
540 673.827
545 1118.19
550 310.304
555 36.8402
560 4.86485
565 1.1491
570 0.651561
575 0.509326
580 0.394739
585 0.372353
590 0.351723
595 0.319987
600 0.506026
Ex : 553
200 0.169239
205 0.0814004
210 0.150608
215 0.180268
220 0.125374
225 0.158122
230 0.10022
235 0.123701
240 0.204462
245 0.125488
250 0.203949
255 0.138609
260 0.205656
265 0.121925
270 0.168051
275 0.234063
280 0.194387
285 0.188674
290 0.186765
295 0.0962175
300 0.138705
305 0.147101
310 0.108131
315 0.115236
320 0.148615
325 0.11188
330 0.0872332
335 0.158526
340 0.118716
345 0.0868678
350 0.0708694
355 0.224124
360 0.214363
365 0.106849
370 0.131629
375 0.142202
380 0.141856
385 0.198076
390 0.133629
395 0.171876
400 0.163146
405 0.306566
410 0.148782
415 0.175123
420 0.207359
425 0.191267
430 0.153665
435 0.147037
440 0.229175
445 0.24037
450 0.168491
455 0.192174
460 0.184327
465 0.174328
470 0.175541
475 0.244145
480 0.185632
485 0.189687
490 0.232569
495 0.193508
500 0.22861
505 0.245972
510 0.291609
515 0.25926
520 0.268635
525 0.409587
530 0.629417
535 0.825705
540 31.4518
545 644.061
550 1113.26
555 311.593
560 37.1632
565 4.8969
570 1.05239
575 0.50527
580 0.364818
585 0.36385
590 0.521463
595 0.392182
600 0.267475
Ex : 558
200 0.0852814
205 0.173812
210 0.115408
215 0.114738
220 0.115366
225 0.173357
230 0.15404
235 0.16949
240 0.232525
245 0.127429
250 0.148755
255 0.098761
260 0.147041
265 0.117267
270 0.154446
275 0.149174
280 0.126136
285 0.141269
290 0.0936976
295 0.145326
300 0.107672
305 0.108107
310 0.105165
315 0.0933153
320 0.105321
325 0.196546
330 0.191483
335 0.144594
340 0.143924
345 0.104085
350 0.0856735
355 0.143924
360 0.219932
365 0.128392
370 0.177427
375 0.133029
380 0.152124
385 0.0711888
390 0.130492
395 0.131761
400 0.131412
405 0.157878
410 0.173228
415 0.196358
420 0.228043
425 0.188175
430 0.207825
435 0.178211
440 0.175745
445 0.139061
450 0.245873
455 0.115479
460 0.291181
465 0.154469
470 0.167173
475 0.148756
480 0.161239
485 0.131173
490 0.167645
495 0.196934
500 0.164265
505 0.256471
510 0.208931
515 0.294391
520 0.318241
525 0.433789
530 0.351773
535 0.66311
540 0.919654
545 29.3386
550 607.671
555 1097
560 312.98
565 37.2578
570 4.92236
575 1.18082
580 0.626122
585 0.470177
590 0.31347
595 0.364597
600 0.181985
Ex : 563
200 0.185313
205 0.183836
210 0.235641
215 0.248831
220 0.124915
225 0.0986596
230 0.155839
235 0.182033
240 0.148735
245 0.140476
250 0.317845
255 0.125415
260 0.102466
265 0.122652
270 0.172972
275 0.184253
280 0.10651
285 0.137565
290 0.119273
295 0.10529
300 0.108042
305 0.173834
310 0.156861
315 0.159425
320 0.0980326
325 0.143947
330 0.163435
335 0.102112
340 0.137591
345 0.126682
350 0.183911
355 0.189096
360 0.136288
365 0.213064
370 0.185677
375 0.196801
380 0.163409
385 0.151865
390 0.133877
395 0.207467
400 0.159163
405 0.14494
410 0.106012
415 0.0939326
420 0.216696
425 0.224082
430 0.246281
435 0.19442
440 0.148097
445 0.153151
450 0.124984
455 0.251542
460 0.215076
465 0.161554
470 0.187065
475 0.163987
480 0.194673
485 0.233331
490 0.249504
495 0.191728
500 0.20392
505 0.259544
510 0.146721
515 0.191463
520 0.224945
525 0.315142
530 0.349824
535 0.416286
540 0.597878
545 1.018
550 29.6559
555 594.414
560 1053.08
565 303.03
570 36.0172
575 4.74935
580 0.980497
585 0.462546
590 0.586327
595 0.360929
600 0.0410724
Ex : 568
200 0.122436
205 0.164922
210 0.160637
215 0.123494
220 0.107251
225 0.126214
230 0.150341
235 0.130425
240 0.129222
245 0.0577483
250 0.230176
255 0.199929
260 0.190142
265 0.214255
270 0.142707
275 0.140588
280 0.231174
285 0.15082
290 0.173996
295 0.0840615
300 0.215138
305 0.107862
310 0.133883
315 0.193976
320 0.104908
325 0.199987
330 0.214575
335 0.12789
340 0.135312
345 0.183346
350 0.135578
355 0.181634
360 0.132913
365 0.134575
370 0.084874
375 0.189309
380 0.149044
385 0.126624
390 0.185769
395 0.197615
400 0.180441
405 0.165013
410 0.154304
415 0.156067
420 0.167096
425 0.15774
430 0.169804
435 0.188436
440 0.107042
445 0.119475
450 0.172159
455 0.169944
460 0.199644
465 0.25904
470 0.305603
475 0.158812
480 0.135227
485 0.278587
490 0.449955
495 0.214924
500 0.195756
505 0.214326
510 0.235985
515 0.223849
520 0.252607
525 0.193162
530 0.351265
535 0.34126
540 0.447208
545 0.63275
550 0.85577
555 21.1356
560 536.174
565 1024.25
570 307.633
575 36.8589
580 4.80724
585 0.917872
590 0.41806
595 0.481123
600 0.05475
Ex : 573
200 0.161541
205 0.239266
210 0.124309
215 0.108996
220 0.120187
225 0.0839341
230 0.126688
235 0.137732
240 0.168355
245 0.18962
250 0.0890794
255 0.177805
260 0.098845
265 0.151725
270 0.165507
275 0.121409
280 0.166059
285 0.102969
290 0.0801681
295 0.223649
300 0.100148
305 0.124415
310 0.211341
315 0.220344
320 0.137595
325 0.14127
330 0.25688
335 0.167732
340 0.113541
345 0.171629
350 0.147287
355 0.187802
360 0.176047
365 0.271672
370 0.246098
375 0.110232
380 0.130855
385 0.254112
390 0.130423
395 0.232239
400 0.231328
405 0.272555
410 0.191556
415 0.146035
420 0.197336
425 0.197095
430 0.169587
435 0.181079
440 0.273988
445 0.218577
450 0.288906
455 0.169313
460 0.222441
465 0.136844
470 0.16808
475 0.169808
480 0.160388
485 0.189219
490 0.223965
495 0.254585
500 0.172748
505 0.201219
510 0.200759
515 0.226193
520 0.188896
525 0.262087
530 0.257902
535 0.281359
540 0.331715
545 0.341227
550 0.430471
555 0.709505
560 19.44
565 469.813
570 956.491
575 297.803
580 35.6012
585 4.53817
590 0.909591
595 0.532926
600 0.242581
Ex : 578
200 0.186542
205 0.197861
210 0.108922
215 0.109609
220 0.143424
225 0.196202
230 0.128909
235 0.110471
240 0.23709
245 0.146863
250 0.177231
255 0.0889067
260 0.107005
265 0.0785368
270 0.186727
275 0.18326
280 0.12728
285 0.172067
290 0.137159
295 0.16343
300 0.140618
305 0.0932397
310 0.116672
315 0.0811767
320 0.164484
325 0.173212
330 0.0928983
335 0.19763
340 0.174555
345 0.124157
350 0.146587
355 0.0978788
360 0.178658
365 0.208971
370 0.127605
375 0.130189
380 0.109142
385 0.118561
390 0.117332
395 0.106461
400 0.11628
405 0.200626
410 0.138214
415 0.155724
420 0.197566
425 0.237399
430 0.147769
435 0.195277
440 0.128078
445 0.210685
450 0.192934
455 0.361303
460 0.156047
465 0.217784
470 0.190856
475 0.152427
480 0.2487
485 0.153076
490 0.198076
495 0.188233
500 0.141846
505 0.145265
510 0.18827
515 0.24166
520 0.174183
525 0.210166
530 0.205405
535 0.243798
540 0.269343
545 0.34048
550 0.423172
555 0.401159
560 0.735825
565 16.8968
570 428.967
575 835.005
580 253.962
585 30.2524
590 3.94152
595 0.899403
600 0.870995
Ex : 583
200 0.267355
205 0.120655
210 0.223993
215 0.199813
220 0.14819
225 0.252848
230 0.133262
235 0.102065
240 0.10305
245 0.0943162
250 0.197106
255 0.194768
260 0.113655
265 0.19286
270 0.141809
275 0.220095
280 0.161396
285 0.100496
290 0.183629
295 0.0690369
300 0.110785
305 0.127389
310 0.123008
315 0.129317
320 0.193122
325 0.14131
330 0.131386
335 0.06793
340 0.236519
345 0.162449
350 0.159629
355 0.104617
360 0.158937
365 0.221849
370 0.19389
375 0.15368
380 0.224765
385 0.285963
390 0.191042
395 0.144683
400 0.142596
405 0.146937
410 0.0910418
415 0.232993
420 0.10747
425 0.104121
430 0.152053
435 0.177651
440 0.192901
445 0.16818
450 0.16296
455 0.140697
460 0.109937
465 0.110169
470 0.332244
475 0.312219
480 0.14833
485 0.266979
490 0.232028
495 0.15704
500 0.0864971
505 0.221169
510 0.211714
515 0.372987
520 0.203844
525 0.276931
530 0.273097
535 0.231918
540 0.36174
545 0.299479
550 0.308139
555 0.421675
560 0.445357
565 0.612377
570 13.1931
575 375.2
580 726.697
585 212.29
590 25.469
595 3.46631
600 0.611223
Ex : 588
200 0.119616
205 0.231359
210 0.134877
215 0.187816
220 0.122848
225 0.186725
230 0.174818
235 0.108266
240 0.0824338
245 0.129955
250 0.126602
255 0.126708
260 0.139781
265 0.139785
270 0.121018
275 0.140284
280 0.228567
285 0.228941
290 0.0835585
295 0.157871
300 0.152551
305 0.134467
310 0.148534
315 0.182124
320 0.18373
325 0.121683
330 0.174777
335 0.11957
340 0.114056
345 0.267239
350 0.326948
355 0.258564
360 0.196086
365 0.125782
370 0.125551
375 0.156451
380 0.10359
385 0.190656
390 0.174399
395 0.207309
400 0.167511
405 0.270341
410 0.165324
415 0.24048
420 0.238851
425 0.24115
430 0.236502
435 0.200046
440 0.188146
445 0.216754
450 0.0965534
455 0.187024
460 0.201585
465 0.255026
470 0.254466
475 0.152513
480 0.143012
485 0.130329
490 0.150041
495 0.188074
500 0.134904
505 0.237868
510 0.199635
515 0.257528
520 0.288433
525 0.16776
530 0.131917
535 0.144478
540 0.198981
545 0.264701
550 0.29038
555 0.381574
560 0.378846
565 0.448198
570 0.645814
575 11.7557
580 315.541
585 615.792
590 186.66
595 22.2354
600 2.88608
Ex : 593
200 0.211181
205 0.16522
210 0.152783
215 0.089838
220 0.171686
225 0.185429
230 0.130924
235 0.187554
240 0.219744
245 0.197842
250 0.0893879
255 0.144377
260 0.175054
265 0.111847
270 0.127529
275 0.151025
280 0.115995
285 0.131017
290 0.15378
295 0.053941
300 0.126509
305 0.127793
310 0.185573
315 0.149367
320 0.153275
325 0.149136
330 0.128093
335 0.128283
340 0.130114
345 0.222257
350 0.182904
355 0.137923
360 0.153974
365 0.0649337
370 0.144259
375 0.199286
380 0.13233
385 0.198915
390 0.244509
395 0.208591
400 0.145395
405 0.24626
410 0.149184
415 0.308366
420 0.277441
425 0.174648
430 0.123877
435 0.268747
440 0.206509
445 0.110045
450 0.230986
455 0.159432
460 0.244831
465 0.17945
470 0.188931
475 0.184005
480 0.16762
485 0.236206
490 0.276867
495 0.138605
500 0.172948
505 0.135476
510 0.209941
515 0.296086
520 0.187078
525 0.205266
530 0.374377
535 0.224194
540 0.169688
545 0.203622
550 0.392035
555 0.322399
560 0.336281
565 0.428475
570 0.395632
575 0.525865
580 10.8192
585 277.721
590 518.611
595 158.725
600 24.494
Ex : 598
200 0.247136
205 0.130896
210 0.15411
215 0.113169
220 0.224786
225 0.107399
230 0.178797
235 0.181444
240 0.172144
245 0.0841506
250 0.146639
255 0.138283
260 0.129845
265 0.154277
270 0.199303
275 0.163778
280 0.156584
285 0.130024
290 0.205697
295 0.129387
300 0.116615
305 0.154975
310 0.195788
315 0.142926
320 0.139235
325 0.126683
330 0.156086
335 0.21539
340 0.163778
345 0.151627
350 0.121009
355 0.160401
360 0.215037
365 0.254184
370 0.216791
375 0.197691
380 0.163231
385 0.2858
390 0.122086
395 0.162378
400 0.123818
405 0.2156
410 0.26044
415 0.150368
420 0.150311
425 0.168131
430 0.127983
435 0.176028
440 0.129079
445 0.165658
450 0.184244
455 0.241386
460 0.187578
465 0.0827458
470 0.183884
475 0.29817
480 0.235599
485 0.302379
490 0.238711
495 0.128651
500 0.135915
505 0.23263
510 0.298774
515 0.231454
520 0.221417
525 0.238529
530 0.179128
535 0.344293
540 0.182933
545 0.237758
550 0.256794
555 0.28165
560 0.277729
565 0.357269
570 0.363081
575 0.384234
580 0.373204
585 10.844
590 254.501
595 465.014
600 299.06
Ex : 603
200 0.109728
205 0.117808
210 0.273732
215 0.17194
220 0.123176
225 0.0853609
230 0.187729
235 0.126006
240 0.137852
245 0.265566
250 0.137995
255 0.223591
260 0.141532
265 0.173177
270 0.186932
275 0.23487
280 0.203334
285 0.280514
290 0.238187
295 0.18335
300 0.147115
305 0.173934
310 0.139855
315 0.132289
320 0.160333
325 0.212393
330 0.320458
335 0.215672
340 0.232597
345 0.233285
350 0.242191
355 0.196001
360 0.271543
365 0.287245
370 0.224868
375 0.265668
380 0.23229
385 0.127418
390 0.171432
395 0.221953
400 0.13773
405 0.277041
410 0.197602
415 0.259182
420 0.291554
425 0.161761
430 0.117271
435 0.21292
440 0.305791
445 0.135882
450 0.17992
455 0.183769
460 0.287883
465 0.249489
470 0.214319
475 0.16609
480 0.199583
485 0.218762
490 0.142726
495 0.191799
500 0.151725
505 0.206311
510 0.155067
515 0.216336
520 0.216055
525 0.183558
530 0.162041
535 0.225625
540 0.275139
545 0.161298
550 0.29774
555 0.256181
560 0.158064
565 0.248232
570 0.202915
575 0.329
580 0.329981
585 0.412921
590 8.91564
595 213.703
600 439.393
