File format V 1.0
ven. 6. janv. 12:56:10 2017
Operator : 
Comments : 

=============================================
SpectroFluorometer parameters
Mode : 3D measurement
Data : Fluorescence
Phospho. : Ordinary
Spectrum : Fluorescence

Scan speed : 2400 nm/mn
Response : 100 ms
PM Voltage : 700 V
Shutter : On

Lambda Ex. Start : 203
Lambda Ex. End : 603
Lambda Ex. Step : 5
Ex. Slit : 5 nm

Lambda Em. Start : 200
Lambda Em. End : 600
Lambda Em. Step : 5
Em. Slit : 5 nm

Repetition : 1
Decal lambda em : 10
=============================================
DATA
Ex : 203
200 11.3206
205 9.74937
210 7.32559
215 8.59292
220 11.4251
225 7.72714
230 6.38354
235 8.23261
240 11.4215
245 10.5387
250 9.36973
255 8.98504
260 9.78694
265 11.0803
270 8.80176
275 13.3169
280 11.2596
285 6.73009
290 12.0356
295 9.34114
300 10.0769
305 10.8334
310 9.75663
315 8.78349
320 9.40042
325 8.54039
330 9.65491
335 10.9801
340 10.4931
345 11.7805
350 12.4269
355 9.5845
360 11.0552
365 8.18099
370 9.7972
375 9.54234
380 11.4865
385 10.8966
390 13.0162
395 10.1756
400 9.64252
405 9.57384
410 13.471
415 10.8463
420 10.7196
425 13.1056
430 11.5309
435 11.6526
440 10.3282
445 10.311
450 10.7887
455 11.6596
460 8.97964
465 10.343
470 9.57084
475 10.3014
480 11.7656
485 12.6635
490 11.4543
495 9.45477
500 11.3775
505 8.25657
510 12.3076
515 10.9262
520 11.81
525 8.82881
530 11.1445
535 11.5703
540 10.5491
545 8.64617
550 9.64111
555 10.6991
560 11.1304
565 10.9705
570 9.85434
575 12.8136
580 10.046
585 10.1748
590 10.2404
595 11.0573
600 11.1838
Ex : 208
200 13.8702
205 9.18955
210 11.0035
215 9.24084
220 9.51403
225 11.9271
230 11.8502
235 10.1684
240 10.1078
245 11.0681
250 11.0839
255 8.99238
260 8.84028
265 11.2519
270 10.3205
275 10.4366
280 10.6689
285 9.72523
290 7.46776
295 10.5054
300 8.24208
305 11.2296
310 10.651
315 9.7621
320 9.41153
325 7.84293
330 12.8281
335 13.9059
340 9.31935
345 9.59448
350 11.4993
355 11.1378
360 11.4077
365 12.2925
370 11.5644
375 11.0642
380 14.1175
385 11.1583
390 10.2926
395 13.0431
400 14.6542
405 9.56321
410 9.46351
415 11.2863
420 11.3779
425 13.5381
430 8.7024
435 12.7903
440 11.1695
445 11.6493
450 13.3562
455 11.6025
460 11.0129
465 9.89806
470 10.0122
475 11.2091
480 10.9985
485 10.9362
490 9.11226
495 9.27393
500 11.5684
505 12.8967
510 10.7687
515 11.3584
520 14.2846
525 12.2163
530 9.72798
535 12.5751
540 12.003
545 13.6371
550 9.94295
555 13.9627
560 11.7643
565 10.3556
570 8.97532
575 8.44331
580 9.6295
585 11.3333
590 12.0946
595 11.193
600 15.3422
Ex : 213
200 11.3934
205 7.18027
210 12.3254
215 8.5717
220 9.95451
225 9.52542
230 8.53925
235 8.93951
240 11.1073
245 10.0724
250 9.36776
255 12.8316
260 10.8033
265 7.89498
270 12.3597
275 9.88813
280 12.4071
285 8.9849
290 9.85136
295 11.6111
300 9.27361
305 11.9364
310 8.71625
315 10.9063
320 8.2313
325 9.19738
330 10.564
335 8.22025
340 10.0982
345 9.93622
350 9.72038
355 10.0829
360 11.9185
365 11.4889
370 16.8524
375 12.5735
380 8.90816
385 10.0384
390 10.9029
395 9.19959
400 10.1715
405 9.7065
410 11.8379
415 10.4568
420 9.81856
425 10.0519
430 8.41879
435 11.4931
440 10.4707
445 10.0822
450 11.2383
455 18.5491
460 12.0573
465 13.517
470 11.4206
475 8.33465
480 12.7562
485 10.7877
490 14.2588
495 10.1326
500 10.3053
505 11.2031
510 11.2805
515 9.58789
520 10.0311
525 12.6832
530 10.5967
535 10.4264
540 13.5131
545 11.2391
550 10.7172
555 9.97857
560 7.98188
565 11.8192
570 8.84791
575 11.2603
580 11.4443
585 11.6179
590 10.3503
595 7.90303
600 2.31726
Ex : 218
200 9.41364
205 10.161
210 11.8438
215 10.7248
220 10.3561
225 10.0976
230 10.5444
235 8.20339
240 10.7397
245 9.34104
250 12.9766
255 10.6599
260 7.96654
265 10.8954
270 8.98291
275 10.9577
280 12.5167
285 9.03264
290 9.33226
295 7.68583
300 8.96017
305 9.86975
310 8.04761
315 9.96377
320 8.91227
325 9.21846
330 10.0854
335 9.33373
340 9.17189
345 12.2229
350 11.2434
355 9.15769
360 10.4157
365 16.0444
370 11.9149
375 10.7833
380 11.834
385 12.4013
390 10.5741
395 11.7625
400 9.88102
405 11.9204
410 13.6037
415 10.8101
420 12.1043
425 13.4109
430 10.8573
435 9.17477
440 7.99075
445 10.9487
450 11.5633
455 8.84665
460 10.473
465 9.10096
470 10.4041
475 13.0014
480 13.536
485 12.6887
490 13.883
495 9.16004
500 13.4091
505 9.37225
510 8.78298
515 8.66393
520 8.21251
525 8.80959
530 9.88468
535 10.8342
540 8.44516
545 11.7012
550 9.29535
555 10.2711
560 11.8899
565 11.9914
570 9.16151
575 10.166
580 13.1404
585 10.3822
590 8.4108
595 10.0589
600 8.05705
Ex : 223
200 10.3363
205 7.0592
210 8.41751
215 12.4344
220 8.66755
225 9.33491
230 13.0681
235 10.6197
240 10.3873
245 10.3341
250 9.42205
255 11.6502
260 6.99127
265 8.00518
270 9.48419
275 9.20032
280 10.1366
285 8.28306
290 8.98594
295 7.77832
300 11.2146
305 10.8351
310 10.9571
315 10.2758
320 9.7373
325 9.24286
330 10.7747
335 9.89481
340 9.01479
345 13.0498
350 7.13033
355 14.8398
360 11.6217
365 11.2409
370 11.7659
375 8.30858
380 9.44762
385 10.3783
390 9.15285
395 7.57584
400 9.55627
405 8.87311
410 13.2504
415 7.62965
420 13.2396
425 11.5069
430 12.7922
435 11.6781
440 11.022
445 9.40734
450 10.5991
455 11.7749
460 11.2076
465 13.056
470 13.5805
475 9.88139
480 7.40443
485 10.4919
490 9.1126
495 12.861
500 12.0861
505 10.7507
510 10.6887
515 11.689
520 7.89647
525 7.20136
530 12.0614
535 14.1517
540 12.2896
545 12.053
550 13.2748
555 8.60026
560 12.0249
565 11.6795
570 8.85981
575 11.4346
580 9.75019
585 13.9434
590 10.514
595 6.93784
600 1.8234
Ex : 228
200 8.25862
205 8.40696
210 7.7394
215 9.07711
220 11.6263
225 10.6523
230 10.5047
235 9.06608
240 6.79201
245 8.92892
250 9.17472
255 7.1064
260 9.72443
265 8.14767
270 9.1458
275 7.00048
280 10.0847
285 8.52464
290 12.7423
295 8.68671
300 8.96041
305 8.48909
310 11.9445
315 8.4213
320 10.2088
325 8.46029
330 8.95373
335 11.5566
340 9.97895
345 12.4539
350 9.08628
355 8.73569
360 11.4099
365 10.5777
370 10.7194
375 12.4125
380 11.6456
385 10.7392
390 12.1974
395 8.33929
400 11.8687
405 9.30292
410 11.8794
415 9.40993
420 7.39114
425 12.7509
430 13.8535
435 15.3208
440 12.1031
445 11.1255
450 8.30074
455 9.37137
460 8.96383
465 9.27962
470 8.19943
475 12.4882
480 8.62252
485 7.3258
490 9.44248
495 12.8177
500 9.54844
505 12.3448
510 8.87475
515 11.5808
520 9.94436
525 12.8427
530 10.8501
535 10.8463
540 9.24687
545 8.71531
550 7.54818
555 5.24116
560 8.62392
565 7.90775
570 9.20803
575 9.45727
580 8.66623
585 9.09688
590 10.615
595 9.27477
600 1.05543
Ex : 233
200 7.948
205 7.98657
210 9.29599
215 6.53208
220 7.82232
225 11.7318
230 13.7013
235 14.9006
240 11.7144
245 9.4148
250 7.58225
255 8.56195
260 10.5073
265 9.66059
270 8.3437
275 8.7047
280 7.1584
285 7.73422
290 11.6714
295 7.01852
300 8.51929
305 7.1586
310 6.58924
315 10.6692
320 6.71227
325 7.07709
330 9.00916
335 11.4729
340 8.99589
345 11.2858
350 10.7793
355 9.73789
360 9.36228
365 7.16876
370 8.97247
375 7.97883
380 7.93479
385 9.83768
390 7.86527
395 7.60382
400 9.80594
405 8.66137
410 8.70314
415 9.11853
420 8.21236
425 9.58473
430 9.73119
435 7.60142
440 11.6366
445 12.1266
450 9.779
455 7.52154
460 8.78291
465 9.22373
470 12.1837
475 12.8739
480 11.5633
485 11.9957
490 10.899
495 9.80923
500 10.144
505 8.49113
510 8.38201
515 9.06803
520 7.13107
525 6.20165
530 10.0295
535 8.12669
540 10.0592
545 8.68663
550 11.5245
555 9.53285
560 8.56054
565 9.48686
570 7.82118
575 8.12856
580 8.77983
585 9.54083
590 8.07687
595 8.22422
600 12.3299
Ex : 238
200 7.06738
205 7.93477
210 6.69127
215 7.47653
220 7.76319
225 8.14755
230 8.64979
235 9.40158
240 8.48432
245 7.75748
250 8.66455
255 9.32693
260 6.2579
265 9.44804
270 8.05606
275 8.58856
280 9.44551
285 7.26078
290 6.5175
295 7.15119
300 9.4812
305 8.51786
310 6.72296
315 10.2634
320 10.7708
325 10.9126
330 9.77194
335 12.0935
340 9.36541
345 11.4795
350 8.52207
355 10.5408
360 9.67708
365 11.7943
370 11.3086
375 9.95804
380 8.36889
385 9.20411
390 9.7136
395 7.8015
400 8.78895
405 10.1026
410 9.06726
415 10.3353
420 8.48399
425 6.72234
430 9.75115
435 7.84057
440 9.83013
445 9.17003
450 8.7386
455 10.2144
460 10.0546
465 11.97
470 9.29784
475 10.5493
480 12.4479
485 9.96579
490 9.90593
495 7.98422
500 8.17414
505 9.39276
510 9.97737
515 6.34226
520 8.32659
525 8.77126
530 7.65938
535 8.86361
540 11.3224
545 10.4689
550 8.7009
555 8.61489
560 6.56409
565 9.37452
570 8.18093
575 7.36376
580 9.92741
585 8.21254
590 10.7234
595 9.4778
600 3.35735
Ex : 243
200 8.17966
205 5.36472
210 6.01197
215 7.56419
220 5.41924
225 9.07702
230 5.97204
235 6.8567
240 8.68322
245 6.22263
250 8.45717
255 4.92808
260 6.60972
265 6.43412
270 7.02243
275 5.88062
280 7.11038
285 6.93897
290 6.0926
295 6.66259
300 5.6235
305 6.34579
310 7.17704
315 7.17388
320 7.11167
325 6.27802
330 6.89444
335 10.5976
340 8.68683
345 7.55948
350 6.98907
355 7.48918
360 8.56498
365 9.61734
370 9.92969
375 7.9139
380 7.16009
385 9.60866
390 8.66114
395 11.1708
400 7.71275
405 9.21499
410 8.43656
415 8.61471
420 8.44725
425 8.38139
430 9.59725
435 6.90267
440 8.53002
445 6.96844
450 7.46711
455 7.88218
460 9.26033
465 6.90448
470 7.80199
475 7.81037
480 8.18293
485 10.3181
490 11.3578
495 6.66973
500 9.79707
505 7.75988
510 6.947
515 8.26419
520 6.14083
525 7.19069
530 8.60337
535 7.89915
540 11.0557
545 5.9704
550 6.06435
555 6.84546
560 7.97521
565 5.17044
570 6.53695
575 6.18604
580 7.62304
585 7.3663
590 5.6794
595 6.93243
600 0.788884
Ex : 248
200 4.59504
205 7.27728
210 4.97916
215 5.51695
220 7.79728
225 8.06861
230 6.82875
235 8.31897
240 9.01927
245 6.42368
250 6.23866
255 5.2144
260 5.94023
265 4.81835
270 7.1021
275 6.5737
280 8.09204
285 6.53874
290 6.2107
295 4.58584
300 6.081
305 5.65163
310 6.21281
315 5.04486
320 6.48037
325 6.36245
330 7.0909
335 5.20228
340 5.40134
345 6.44547
350 6.5899
355 5.83063
360 7.84175
365 6.95215
370 9.05736
375 6.96025
380 6.73853
385 7.67869
390 8.45577
395 7.61775
400 9.27794
405 6.97482
410 6.47569
415 7.92206
420 6.80866
425 6.96303
430 8.29992
435 8.05237
440 7.75711
445 8.06768
450 5.50344
455 8.59462
460 8.05174
465 8.10093
470 6.29625
475 5.76478
480 6.60697
485 7.80759
490 7.39809
495 9.26466
500 6.74872
505 8.38827
510 7.16055
515 6.97037
520 4.90603
525 6.85059
530 6.50947
535 7.30484
540 6.71195
545 6.17089
550 7.19161
555 7.5716
560 8.01362
565 8.34359
570 6.68043
575 5.59128
580 8.63482
585 5.13637
590 5.56647
595 6.51888
600 16.9467
Ex : 253
200 4.45894
205 5.61416
210 7.34478
215 6.91135
220 5.98699
225 6.89569
230 6.49458
235 5.62853
240 4.94868
245 5.17183
250 4.40419
255 6.62238
260 5.64632
265 5.14381
270 5.0398
275 5.09598
280 5.17225
285 4.42063
290 5.26803
295 4.71209
300 5.22417
305 4.43252
310 5.30175
315 6.33873
320 6.23902
325 6.59344
330 6.49185
335 7.57066
340 5.17926
345 6.00259
350 6.33209
355 4.4848
360 5.72088
365 8.36763
370 6.8617
375 7.45472
380 4.57475
385 6.08595
390 6.18569
395 7.95846
400 4.62989
405 6.59462
410 5.06634
415 4.59687
420 5.82308
425 6.96773
430 8.00408
435 7.53155
440 6.43249
445 5.93817
450 5.53126
455 5.85372
460 4.72023
465 6.8861
470 6.75258
475 7.81942
480 6.57576
485 7.3959
490 5.42432
495 5.88045
500 5.29931
505 5.73313
510 5.18026
515 6.47977
520 4.08982
525 4.32195
530 5.29835
535 6.98704
540 6.66537
545 4.83459
550 4.50897
555 6.12001
560 5.57929
565 5.57992
570 6.62074
575 5.69715
580 5.46291
585 5.94774
590 5.78347
595 5.10885
600 0.581368
Ex : 258
200 4.45597
205 5.08317
210 5.22927
215 3.41091
220 3.88363
225 3.9673
230 4.02949
235 3.80861
240 4.44436
245 3.66572
250 4.43413
255 3.92533
260 6.8065
265 5.00189
270 4.88762
275 4.18256
280 3.5608
285 3.74261
290 4.6435
295 3.87629
300 5.44668
305 3.63645
310 3.6747
315 3.77932
320 4.08393
325 5.5664
330 4.68993
335 6.36275
340 5.25413
345 5.09832
350 4.24019
355 4.7542
360 4.58387
365 4.50865
370 5.01239
375 6.80591
380 5.79163
385 4.31444
390 6.18545
395 5.05613
400 4.98898
405 4.74504
410 6.22365
415 4.64396
420 4.36927
425 5.66849
430 5.11913
435 5.02056
440 4.38147
445 5.57902
450 5.81408
455 5.84414
460 5.06232
465 5.61492
470 6.27205
475 5.49888
480 4.73338
485 6.1441
490 4.38127
495 4.31257
500 4.95907
505 5.18892
510 4.01978
515 4.99261
520 4.62395
525 5.25202
530 4.03676
535 4.83037
540 6.06599
545 4.83179
550 3.66045
555 3.87588
560 3.53739
565 4.10364
570 5.35366
575 4.90803
580 5.06167
585 5.15501
590 4.68332
595 6.08385
600 16.9167
Ex : 263
200 3.3791
205 3.68357
210 2.84562
215 3.84041
220 3.04758
225 4.24945
230 2.96892
235 3.13334
240 2.442
245 2.98518
250 3.45198
255 4.46541
260 3.85099
265 3.68858
270 3.36331
275 2.82899
280 3.99855
285 3.54189
290 2.81503
295 3.04679
300 3.591
305 3.35506
310 2.81672
315 2.14734
320 5.16926
325 3.81715
330 4.26475
335 4.7499
340 4.83036
345 4.44084
350 3.58872
355 3.94023
360 4.91249
365 4.43201
370 3.62446
375 3.15188
380 4.0162
385 3.79896
390 3.65655
395 3.9106
400 5.53645
405 3.75009
410 4.4891
415 3.36956
420 4.25446
425 4.4276
430 3.76435
435 3.66148
440 3.64386
445 3.67724
450 4.02424
455 4.84254
460 3.92829
465 4.14404
470 4.18159
475 3.30751
480 3.65662
485 4.41561
490 4.32991
495 4.38921
500 4.68011
505 4.78098
510 5.36589
515 4.33267
520 4.48873
525 4.47249
530 2.94637
535 2.733
540 3.03112
545 4.27719
550 3.86759
555 4.2794
560 3.44525
565 3.72355
570 2.85315
575 2.52024
580 3.23367
585 4.41838
590 3.23269
595 5.20425
600 6.35255
Ex : 268
200 2.24173
205 2.24313
210 3.77832
215 2.73656
220 2.58752
225 3.02899
230 2.67533
235 2.5261
240 3.21462
245 2.20144
250 4.01325
255 2.78116
260 1.98651
265 2.88691
270 3.46809
275 2.60507
280 3.497
285 2.33645
290 2.88738
295 2.99948
300 2.95574
305 2.96448
310 2.51428
315 3.48586
320 2.45507
325 2.9967
330 2.99962
335 3.04393
340 3.22098
345 3.23471
350 3.31581
355 3.73593
360 4.04571
365 3.9456
370 4.53664
375 3.5753
380 3.35591
385 3.17949
390 3.50442
395 3.62041
400 2.5916
405 2.51156
410 3.70497
415 3.78394
420 4.542
425 4.21614
430 3.06133
435 2.81118
440 3.98939
445 3.09504
450 3.44093
455 3.2579
460 3.25906
465 4.06932
470 3.43629
475 4.37395
480 3.73125
485 3.76249
490 2.53233
495 2.65322
500 3.53056
505 2.87007
510 3.91025
515 3.06127
520 3.24427
525 2.88964
530 3.79569
535 3.14367
540 2.48351
545 2.86992
550 3.08379
555 2.91767
560 1.76988
565 2.89376
570 2.04105
575 2.24781
580 2.71294
585 2.89395
590 2.8228
595 2.39229
600 0.272234
Ex : 273
200 1.9683
205 1.60263
210 1.63036
215 2.4289
220 2.5573
225 2.45255
230 2.19369
235 3.23566
240 2.23078
245 2.13243
250 2.45142
255 2.4954
260 1.8626
265 1.91774
270 2.43235
275 2.78848
280 2.44312
285 1.9604
290 2.17935
295 2.17653
300 1.84966
305 2.31264
310 2.52217
315 2.46816
320 2.14261
325 2.31315
330 2.34444
335 2.77254
340 2.55756
345 2.60435
350 2.47779
355 2.69888
360 3.3956
365 2.97224
370 2.53862
375 2.61893
380 3.00192
385 3.40959
390 3.34385
395 2.76426
400 3.97608
405 2.84984
410 2.91158
415 3.04418
420 2.78302
425 2.5131
430 2.78214
435 3.27305
440 2.39088
445 2.56702
450 2.8192
455 2.27498
460 3.41003
465 2.64617
470 2.02795
475 2.48599
480 2.21255
485 2.2432
490 2.5836
495 3.01218
500 2.90676
505 2.44787
510 2.1907
515 2.01619
520 2.56496
525 2.93027
530 2.49993
535 2.82329
540 3.03443
545 3.68908
550 2.89093
555 1.57924
560 1.9412
565 2.34253
570 2.45686
575 1.96228
580 1.82699
585 2.55759
590 2.26059
595 3.10339
600 0.584338
Ex : 278
200 1.69159
205 2.0988
210 1.52349
215 1.9314
220 1.51634
225 1.4974
230 1.59746
235 1.32943
240 1.45595
245 1.55118
250 1.94968
255 1.567
260 1.95977
265 1.42561
270 2.35731
275 2.15342
280 1.97515
285 1.78667
290 2.00304
295 1.97349
300 1.42512
305 1.73404
310 1.91992
315 1.59735
320 1.96541
325 1.97561
330 2.20736
335 1.94832
340 2.1853
345 2.04713
350 2.66493
355 2.71103
360 2.3533
365 2.43655
370 2.0527
375 2.4359
380 1.97821
385 2.02678
390 2.48023
395 2.77758
400 2.98379
405 2.5667
410 2.13682
415 2.0831
420 2.75621
425 2.42521
430 2.3081
435 2.0403
440 1.71879
445 2.25224
450 1.61464
455 2.02837
460 2.61936
465 2.52376
470 2.53885
475 2.50255
480 2.33224
485 2.55274
490 2.92204
495 2.04963
500 2.28212
505 2.16633
510 1.43705
515 1.72861
520 2.17351
525 2.60904
530 2.34606
535 1.88067
540 2.63882
545 2.0682
550 2.34383
555 2.04359
560 2.37774
565 2.29244
570 1.51707
575 1.94202
580 2.0801
585 2.04872
590 2.11463
595 1.76282
600 2.30916
Ex : 283
200 1.25387
205 1.49422
210 1.46778
215 1.52504
220 1.37822
225 1.74187
230 1.09205
235 1.92105
240 1.51626
245 1.41757
250 1.90511
255 1.54735
260 2.13632
265 1.02606
270 1.01682
275 1.89737
280 1.9061
285 1.51022
290 1.98734
295 1.25094
300 1.73076
305 1.53599
310 1.84246
315 1.81116
320 1.62742
325 1.8559
330 1.77758
335 1.73208
340 2.1608
345 2.43841
350 2.03557
355 1.233
360 2.15311
365 2.53924
370 1.67098
375 2.12487
380 1.43896
385 2.16709
390 2.17691
395 2.90065
400 1.79446
405 2.13943
410 2.14318
415 1.92455
420 1.5402
425 1.77534
430 2.2692
435 1.91572
440 1.96043
445 1.69212
450 1.83659
455 1.58094
460 2.38981
465 2.341
470 2.06208
475 1.69447
480 2.20664
485 1.67715
490 1.68909
495 1.58419
500 2.17392
505 1.22858
510 1.53036
515 1.39095
520 1.8116
525 1.33982
530 1.62343
535 1.45299
540 1.84144
545 2.11213
550 1.93635
555 1.78428
560 1.79508
565 1.69152
570 1.36519
575 1.40183
580 1.66846
585 1.98926
590 1.78082
595 1.57013
600 1.89895
Ex : 288
200 1.20255
205 1.2734
210 1.34791
215 1.34303
220 1.1196
225 1.18729
230 1.64014
235 1.20005
240 1.34037
245 1.59746
250 1.32171
255 0.975961
260 1.75056
265 1.27442
270 1.79917
275 0.88063
280 1.04098
285 1.15123
290 1.24201
295 0.978944
300 1.32665
305 1.42016
310 1.23968
315 1.19008
320 1.44262
325 1.5546
330 1.62183
335 1.63871
340 1.94128
345 1.57483
350 1.88103
355 1.40126
360 1.66642
365 1.73892
370 1.26362
375 1.7757
380 1.7307
385 1.73664
390 2.13177
395 1.59805
400 2.04533
405 1.75632
410 1.86031
415 1.67105
420 1.72087
425 1.99422
430 2.00972
435 1.50069
440 1.56698
445 1.32635
450 1.48548
455 1.6392
460 1.77259
465 1.79803
470 1.53262
475 1.83976
480 1.65828
485 1.19587
490 1.2809
495 1.41437
500 1.30989
505 1.36021
510 1.59331
515 1.56776
520 1.13298
525 1.29656
530 1.68136
535 1.28493
540 1.48046
545 1.0151
550 1.50968
555 1.15514
560 1.2454
565 1.49119
570 1.68599
575 2.12903
580 1.37349
585 1.32905
590 1.44473
595 1.06509
600 0.659255
Ex : 293
200 1.10589
205 1.45692
210 1.11042
215 1.06711
220 0.985683
225 1.13943
230 1.16484
235 1.06198
240 1.20895
245 1.09981
250 0.933543
255 1.00496
260 1.01357
265 0.750766
270 0.910921
275 0.728382
280 0.959772
285 1.14439
290 1.40891
295 1.44109
300 1.26315
305 0.968459
310 0.792142
315 1.01431
320 1.02218
325 1.11118
330 1.33621
335 1.0627
340 1.16585
345 1.32356
350 1.30366
355 1.08708
360 1.47257
365 1.56196
370 1.40072
375 2.16184
380 1.57374
385 1.40159
390 1.48747
395 1.55296
400 1.3744
405 1.79523
410 1.87803
415 1.43034
420 1.29079
425 1.37773
430 1.75186
435 1.52446
440 1.45691
445 1.55334
450 1.41021
455 1.36732
460 1.59371
465 1.52358
470 1.40616
475 1.60404
480 1.32684
485 1.61038
490 1.31605
495 1.62781
500 1.5279
505 1.70289
510 1.6311
515 1.39701
520 0.999709
525 1.43079
530 1.53877
535 1.45281
540 1.0578
545 1.14572
550 1.42952
555 1.44417
560 1.05456
565 0.99858
570 1.42439
575 1.31902
580 1.40699
585 1.3874
590 1.30794
595 1.0676
600 2.20135
Ex : 298
200 1.06174
205 1.2224
210 1.27714
215 1.00823
220 1.14805
225 1.025
230 1.05018
235 0.819698
240 1.18467
245 0.924183
250 0.788712
255 1.02678
260 1.15294
265 1.01048
270 1.2314
275 1.07252
280 0.804368
285 1.03669
290 0.911013
295 0.973277
300 0.965517
305 0.717222
310 1.14522
315 0.889814
320 1.08103
325 1.16088
330 1.11392
335 1.46631
340 1.39918
345 1.35404
350 1.2603
355 1.31349
360 1.11652
365 1.35348
370 1.49463
375 1.30927
380 1.65731
385 1.71917
390 1.68962
395 1.57822
400 1.51725
405 1.44071
410 1.5004
415 1.25927
420 1.34117
425 1.62254
430 1.55252
435 1.36729
440 1.65008
445 1.42312
450 1.33063
455 1.63838
460 1.08582
465 1.78476
470 1.09709
475 1.32255
480 1.26663
485 1.26692
490 1.03888
495 1.10914
500 1.03385
505 1.07253
510 0.98813
515 1.26094
520 0.974745
525 1.03377
530 1.06603
535 0.895573
540 1.19807
545 1.29771
550 1.5906
555 0.820093
560 0.954741
565 0.973952
570 1.0573
575 0.928075
580 0.955628
585 1.3452
590 1.88875
595 1.28781
600 0.146548
Ex : 303
200 1.02155
205 1.0554
210 0.682524
215 0.971263
220 0.873485
225 0.738795
230 0.926931
235 0.662302
240 0.847569
245 0.738617
250 0.767471
255 0.64278
260 0.709843
265 0.840188
270 1.10394
275 0.941366
280 0.461538
285 0.975706
290 0.824646
295 0.91689
300 1.29636
305 0.795625
310 0.909014
315 1.11369
320 0.838546
325 1.01181
330 1.22145
335 1.32443
340 1.37157
345 1.10037
350 0.964351
355 1.24172
360 1.29455
365 1.35725
370 1.77037
375 1.58903
380 1.36728
385 1.41054
390 1.47383
395 1.51502
400 1.21591
405 1.3282
410 1.54755
415 1.4845
420 1.10754
425 1.29582
430 1.43354
435 1.39592
440 1.47478
445 1.53849
450 1.3469
455 1.0886
460 1.48103
465 1.24531
470 1.2895
475 1.23262
480 0.942151
485 1.06913
490 1.00347
495 1.02809
500 1.31509
505 1.14934
510 0.916753
515 1.03485
520 0.919775
525 0.994583
530 1.12952
535 1.18548
540 1.04471
545 0.868178
550 1.02254
555 0.934422
560 1.19355
565 1.13967
570 0.802598
575 0.742324
580 0.983443
585 0.636755
590 0.927219
595 1.17217
600 1.0053
Ex : 308
200 0.679339
205 0.520853
210 0.750971
215 0.906399
220 0.727583
225 0.879284
230 0.822983
235 0.759199
240 0.824848
245 0.765025
250 0.69922
255 0.894888
260 0.761508
265 0.598383
270 0.697602
275 0.924714
280 1.05347
285 0.876491
290 0.748016
295 0.837221
300 0.929068
305 0.927041
310 0.546666
315 0.979309
320 0.794712
325 1.26384
330 1.1114
335 1.05332
340 1.23022
345 1.17793
350 1.0084
355 1.23916
360 1.44531
365 1.24245
370 1.23507
375 1.18909
380 1.11167
385 1.59827
390 1.49785
395 1.2782
400 1.16585
405 1.15328
410 1.32122
415 1.07311
420 1.30451
425 1.23493
430 1.4615
435 1.21016
440 1.14652
445 1.16516
450 1.0019
455 1.06366
460 0.976901
465 1.01485
470 1.05558
475 0.876261
480 0.988895
485 1.08753
490 0.896109
495 0.894519
500 0.891881
505 0.855063
510 0.973693
515 0.914863
520 0.839254
525 1.15065
530 0.785335
535 0.775433
540 0.830712
545 0.981624
550 0.895666
555 0.862791
560 1.21166
565 0.684954
570 0.564541
575 0.659665
580 0.749392
585 0.69987
590 0.898382
595 0.766368
600 0.382611
Ex : 313
200 0.660699
205 0.623874
210 0.510316
215 0.633254
220 0.714227
225 0.700084
230 0.700634
235 0.560179
240 0.729693
245 0.654494
250 0.536141
255 0.63465
260 0.684006
265 0.678808
270 0.620905
275 0.740688
280 0.60467
285 0.602102
290 0.612383
295 0.51448
300 0.625374
305 0.780128
310 0.876512
315 0.516184
320 0.768851
325 0.942688
330 0.935468
335 1.14549
340 1.12003
345 1.09306
350 1.25833
355 1.35407
360 1.17979
365 1.16497
370 1.46174
375 1.19186
380 1.6364
385 1.76967
390 1.73639
395 1.93033
400 2.02007
405 1.92798
410 1.715
415 1.81882
420 1.7135
425 1.78038
430 1.95262
435 1.82188
440 1.69356
445 1.73593
450 1.5589
455 1.53554
460 1.39691
465 1.17296
470 1.52483
475 1.26581
480 1.33215
485 1.34002
490 1.16604
495 1.09844
500 1.0302
505 0.926624
510 1.0978
515 1.24174
520 0.962183
525 0.892462
530 0.728646
535 0.784948
540 0.888381
545 0.838646
550 0.846301
555 0.75136
560 0.701295
565 0.717569
570 0.735075
575 0.613036
580 0.771792
585 0.590207
590 0.490367
595 0.487742
600 0.345533
Ex : 318
200 0.548194
205 0.568256
210 0.737773
215 0.549643
220 0.60137
225 0.657297
230 0.603451
235 0.599283
240 0.497723
245 0.818333
250 0.62221
255 0.562214
260 0.592939
265 0.397478
270 0.518793
275 0.552891
280 0.657801
285 0.58484
290 0.548969
295 0.648176
300 0.517682
305 0.706174
310 0.969345
315 2.61178
320 1.87781
325 1.36117
330 1.77941
335 1.87271
340 2.42385
345 2.60804
350 3.36001
355 4.04542
360 5.07173
365 5.43284
370 6.85996
375 8.00473
380 8.53689
385 9.71757
390 9.7444
395 11.2337
400 10.765
405 10.9168
410 10.9183
415 10.3806
420 11.022
425 10.0044
430 9.76703
435 9.81068
440 9.39619
445 8.64766
450 7.91743
455 7.65129
460 7.73404
465 7.01256
470 6.62521
475 5.92067
480 5.71688
485 4.87691
490 4.32157
495 4.27926
500 3.68496
505 3.08189
510 2.61353
515 2.89763
520 2.39855
525 2.2736
530 1.85146
535 1.89898
540 1.67498
545 1.36183
550 1.36689
555 1.40723
560 0.896791
565 1.16174
570 0.91538
575 0.793127
580 0.588298
585 0.740517
590 0.627695
595 0.705589
600 2.03193
Ex : 323
200 0.384331
205 0.581476
210 0.527111
215 0.555541
220 0.421708
225 0.52004
230 0.527209
235 0.582053
240 0.52418
245 0.567173
250 0.396972
255 0.550634
260 0.456712
265 0.499203
270 0.448072
275 0.59716
280 0.488072
285 0.396547
290 0.567822
295 0.527242
300 0.551965
305 0.659382
310 0.894003
315 17.7076
320 73.2017
325 31.3622
330 6.91692
335 4.43613
340 5.22253
345 6.60186
350 9.34365
355 13.0673
360 15.8541
365 17.7388
370 21.6631
375 24.6967
380 27.6088
385 31.0998
390 32.9214
395 34.7438
400 35.5716
405 37.1129
410 37.2765
415 36.9779
420 35.262
425 34.5279
430 33.9822
435 31.5808
440 30.3135
445 29.4132
450 26.8119
455 26.3633
460 24.5296
465 22.3804
470 20.5859
475 19.2505
480 17.4585
485 16.3773
490 14.0697
495 12.961
500 11.2691
505 9.75089
510 8.8531
515 7.78956
520 6.94652
525 6.02533
530 5.4406
535 4.61927
540 4.29593
545 3.64815
550 3.04629
555 2.87702
560 2.63393
565 2.26286
570 1.85764
575 1.35327
580 1.26942
585 1.31101
590 0.929377
595 0.823983
600 0.238626
Ex : 328
200 0.382939
205 0.543477
210 0.379884
215 0.443975
220 0.369362
225 0.556008
230 0.469637
235 0.57398
240 0.472885
245 0.518728
250 0.508575
255 0.540174
260 0.660636
265 0.563349
270 0.456539
275 0.829546
280 0.533776
285 0.589384
290 0.621111
295 0.661607
300 0.604065
305 0.63474
310 0.756821
315 4.77198
320 165.58
325 377.717
330 112.279
335 17.8632
340 7.98617
345 8.29918
350 10.0313
355 14.1061
360 18.0296
365 20.1211
370 22.2831
375 25.0857
380 28.1344
385 32.1298
390 34.4944
395 36.6379
400 38.2441
405 38.8004
410 38.8514
415 39.0631
420 37.2218
425 36.2033
430 34.288
435 33.6517
440 32.0143
445 30.0565
450 28.1151
455 25.8874
460 24.8927
465 22.6509
470 21.4742
475 20.0106
480 18.274
485 16.6043
490 14.8698
495 12.7368
500 11.4194
505 10.6393
510 8.88096
515 8.47023
520 7.28717
525 6.80514
530 5.5927
535 4.81981
540 4.36091
545 3.93963
550 3.34621
555 3.11775
560 2.82513
565 2.36548
570 2.09998
575 1.74318
580 1.41344
585 1.12671
590 1.15089
595 0.896553
600 0.778338
Ex : 333
200 0.52698
205 0.559952
210 0.478812
215 0.399216
220 0.533805
225 0.538743
230 0.425384
235 0.473683
240 0.670224
245 0.521686
250 0.593498
255 0.532599
260 0.558197
265 0.652856
270 0.588407
275 0.508353
280 0.486706
285 0.532767
290 0.665464
295 0.55426
300 0.538459
305 0.583178
310 0.829709
315 0.873438
320 21.6522
325 427.499
330 716.469
335 181.665
340 26.1078
345 8.72702
350 6.99631
355 7.45931
360 10.5807
365 15.3503
370 15.5767
375 15.5463
380 16.8107
385 18.9642
390 22.2226
395 22.6451
400 22.8352
405 23.1111
410 24.0893
415 24.5143
420 23.5848
425 21.9352
430 20.3262
435 19.8942
440 18.841
445 17.985
450 17.2712
455 16.2764
460 14.724
465 13.9612
470 12.2453
475 11.6093
480 10.4151
485 9.63887
490 8.78276
495 7.82823
500 7.49589
505 6.60496
510 5.90651
515 5.53557
520 4.97742
525 4.18462
530 3.51402
535 3.45751
540 3.21527
545 2.70845
550 2.43228
555 2.60476
560 2.28652
565 1.785
570 1.64263
575 1.55852
580 1.24625
585 0.97665
590 1.01831
595 1.11566
600 0.484298
Ex : 338
200 0.350103
205 0.521422
210 0.399324
215 0.581598
220 0.433477
225 0.424201
230 0.472841
235 0.440807
240 0.459881
245 0.497361
250 0.40576
255 0.494074
260 0.488669
265 0.417972
270 0.427762
275 0.444434
280 0.604917
285 0.500597
290 0.581583
295 0.604707
300 0.545105
305 0.756007
310 0.587892
315 0.779946
320 1.05323
325 38.1413
330 625.667
335 929.895
340 226.321
345 30.8063
350 8.02091
355 5.5065
360 5.21262
365 6.83621
370 10.5093
375 11.5885
380 10.6672
385 11.2169
390 13.2592
395 14.2577
400 14.1207
405 14.6799
410 15.2015
415 16.3837
420 15.4996
425 14.1468
430 12.8994
435 12.8149
440 12.0163
445 11.4337
450 10.9915
455 9.81641
460 9.52113
465 8.68325
470 8.23985
475 7.64676
480 6.97087
485 6.42303
490 6.18468
495 5.77612
500 4.66255
505 4.31696
510 4.14702
515 3.81824
520 3.22591
525 3.0592
530 2.70939
535 2.55133
540 2.3058
545 2.32254
550 1.96996
555 1.9799
560 1.77531
565 1.38311
570 1.30978
575 1.33711
580 1.33748
585 1.07067
590 1.04197
595 0.955174
600 0.780652
Ex : 343
200 0.303275
205 0.337107
210 0.358095
215 0.480524
220 0.466008
225 0.482976
230 0.394148
235 0.380754
240 0.462847
245 0.649255
250 0.454332
255 0.309893
260 0.459349
265 0.364332
270 0.526363
275 0.481481
280 0.480894
285 0.514846
290 0.454623
295 0.543801
300 0.539875
305 0.534813
310 0.638509
315 0.607083
320 0.889805
325 1.38164
330 44.8082
335 705.836
340 1042.58
345 247.903
350 32.4039
355 7.65301
360 4.53133
365 3.50038
370 4.54288
375 8.54748
380 10.3194
385 10.6999
390 11.3472
395 11.5594
400 11.322
405 11.8562
410 13.1894
415 14.067
420 13.384
425 11.9926
430 11.987
435 11.6096
440 11.2155
445 10.9776
450 9.95957
455 9.04978
460 8.24489
465 8.00058
470 7.47503
475 6.74767
480 6.45167
485 5.84615
490 5.24501
495 5.07214
500 4.31303
505 4.32548
510 3.9275
515 3.27724
520 3.1714
525 3.05265
530 2.7252
535 2.30531
540 2.19679
545 2.09037
550 1.8997
555 1.70271
560 1.52878
565 1.41762
570 1.44223
575 1.29387
580 1.06598
585 1.02286
590 0.947115
595 1.0092
600 0.754553
Ex : 348
200 0.328576
205 0.388751
210 0.29955
215 0.465476
220 0.424021
225 0.349296
230 0.345064
235 0.467566
240 0.386435
245 0.400581
250 0.491305
255 0.388968
260 0.484683
265 0.568807
270 0.596476
275 0.584505
280 0.518256
285 0.481629
290 0.486889
295 0.568259
300 0.657126
305 0.486221
310 0.507156
315 0.591529
320 0.722328
325 1.07051
330 1.59008
335 45.2925
340 713.383
345 1082.89
350 274.825
355 35.4033
360 7.61803
365 4.04536
370 3.02545
375 3.64745
380 7.80779
385 13.1015
390 14.4754
395 14.2592
400 12.365
405 13.2618
410 14.941
415 16.3013
420 15.9511
425 14.6091
430 12.8066
435 12.9249
440 12.7555
445 12.1311
450 11.2786
455 10.0666
460 9.04433
465 8.62485
470 8.0893
475 7.74907
480 6.96474
485 6.23217
490 5.825
495 5.63758
500 4.8693
505 4.43972
510 3.96955
515 3.69891
520 3.30301
525 3.0069
530 2.62641
535 2.55355
540 2.41922
545 2.15077
550 2.20974
555 1.69818
560 1.56582
565 1.6096
570 1.36001
575 1.37231
580 1.15379
585 0.939992
590 0.723149
595 0.904533
600 0.79341
Ex : 353
200 0.356738
205 0.37961
210 0.428272
215 0.52766
220 0.395409
225 0.36561
230 0.362152
235 0.366254
240 0.428476
245 0.405853
250 0.428329
255 0.360818
260 0.31957
265 0.38221
270 0.385309
275 0.377113
280 0.410128
285 0.386931
290 0.405262
295 0.410031
300 0.423931
305 0.495814
310 0.554048
315 0.498072
320 0.6118
325 0.716313
330 1.06004
335 2.00515
340 48.1144
345 735.521
350 1077.99
355 264.596
360 33.9706
365 6.86151
370 3.77291
375 2.92346
380 4.21964
385 9.64019
390 16.5843
395 17.347
400 14.9887
405 14.5629
410 15.7971
415 18.6579
420 17.7374
425 15.6053
430 13.9949
435 14.0003
440 14.0069
445 13.8683
450 12.3734
455 11.0169
460 9.96045
465 9.5049
470 9.09916
475 8.37264
480 7.74315
485 6.72488
490 6.47906
495 5.92618
500 5.33855
505 4.88503
510 4.53246
515 4.08992
520 3.63443
525 3.21802
530 2.79139
535 2.51863
540 2.54752
545 2.13071
550 2.17951
555 1.69454
560 1.67514
565 1.46059
570 1.3977
575 1.28363
580 1.12545
585 0.838635
590 0.898915
595 0.789747
600 0.730741
Ex : 358
200 0.367438
205 0.298615
210 0.327617
215 0.233364
220 0.351129
225 0.411394
230 0.373419
235 0.460133
240 0.39126
245 0.427698
250 0.422183
255 0.343218
260 0.354202
265 0.32339
270 0.5376
275 0.463387
280 0.356273
285 0.353889
290 0.367889
295 0.383589
300 0.443806
305 0.44456
310 0.494534
315 0.568328
320 0.499308
325 0.592706
330 0.93512
335 1.09433
340 1.94762
345 44.649
350 714.398
355 1095.89
360 272.327
365 34.4086
370 6.89437
375 3.78873
380 4.09868
385 6.96722
390 12.1081
395 16.7255
400 16.0138
405 14.2111
410 15.4097
415 17.3739
420 17.0388
425 14.5994
430 13.2209
435 13.897
440 13.6021
445 13.1848
450 12.1923
455 11.0996
460 10.136
465 9.51083
470 8.95422
475 8.39711
480 7.91054
485 7.2988
490 6.55387
495 5.9606
500 5.50129
505 4.95436
510 4.07716
515 3.87201
520 3.58489
525 3.38362
530 3.22814
535 2.72396
540 2.52735
545 2.3969
550 2.18894
555 1.82846
560 1.70895
565 1.69701
570 1.48234
575 1.19445
580 1.03862
585 0.822621
590 0.789503
595 0.83054
600 0.724183
Ex : 363
200 0.307196
205 0.287601
210 0.29787
215 0.37915
220 0.310184
225 0.392524
230 0.292864
235 0.403854
240 0.361101
245 0.365777
250 0.358253
255 0.343077
260 0.368752
265 0.400998
270 0.352464
275 0.323225
280 0.296965
285 0.347324
290 0.407201
295 0.414448
300 0.38178
305 0.465361
310 0.389595
315 0.352085
320 0.407848
325 0.602054
330 0.65839
335 0.835357
340 0.974017
345 1.80282
350 41.0008
355 689.583
360 1096
365 282.277
370 35.4584
375 7.01311
380 5.69698
385 8.78068
390 12.0249
395 13.7874
400 15.8489
405 18.3436
410 18.7689
415 19.831
420 17.9468
425 15.7935
430 14.8162
435 14.7084
440 14.8665
445 14.6209
450 12.8983
455 11.8075
460 10.9299
465 10.38
470 9.6508
475 9.14316
480 8.29243
485 7.64982
490 7.18475
495 6.78558
500 5.91275
505 5.21588
510 4.74229
515 4.40512
520 4.09088
525 3.40845
530 3.15363
535 2.99664
540 2.41067
545 2.2442
550 2.28426
555 2.13188
560 1.84272
565 1.64843
570 1.44994
575 1.07671
580 1.01326
585 0.982451
590 0.821393
595 0.787446
600 0.192034
Ex : 368
200 0.349255
205 0.33665
210 0.307394
215 0.3342
220 0.267677
225 0.299207
230 0.272394
235 0.322492
240 0.258619
245 0.287123
250 0.262149
255 0.366428
260 0.326542
265 0.292501
270 0.33515
275 0.340634
280 0.394958
285 0.326685
290 0.317649
295 0.363846
300 0.385501
305 0.353649
310 0.362956
315 0.372369
320 0.388393
325 0.455132
330 0.551119
335 0.74011
340 0.841921
345 1.18574
350 1.869
355 33.508
360 662.878
365 1107.51
370 295.608
375 37.6381
380 9.4819
385 10.7026
390 15.1364
395 16.8046
400 15.9329
405 18.9094
410 24.8927
415 25.7383
420 24.8801
425 19.8092
430 18.1339
435 17.7977
440 17.9943
445 17.7474
450 15.644
455 14.3501
460 12.9098
465 11.9869
470 11.365
475 10.25
480 9.56003
485 8.99113
490 7.92179
495 7.03677
500 6.57024
505 5.69676
510 5.45225
515 5.02972
520 4.33125
525 3.81353
530 3.45904
535 2.84426
540 2.81502
545 2.63101
550 2.31238
555 2.18576
560 1.89613
565 1.62819
570 1.43194
575 1.22019
580 0.99443
585 0.840357
590 0.814524
595 0.810446
600 0.210658
Ex : 373
200 0.222651
205 0.343856
210 0.332107
215 0.322394
220 0.282489
225 0.26843
230 0.260888
235 0.270729
240 0.267907
245 0.258005
250 0.31093
255 0.313455
260 0.339096
265 0.268658
270 0.274767
275 0.344226
280 0.307961
285 0.355711
290 0.292685
295 0.328241
300 0.440758
305 0.330064
310 0.461111
315 0.444362
320 0.438734
325 0.488556
330 0.613785
335 0.6117
340 0.636951
345 0.775527
350 1.15627
355 1.5916
360 39.8593
365 681.26
370 1121.5
375 298.147
380 38.6944
385 12.298
390 14.8197
395 18.009
400 16.1484
405 15.7844
410 20.4434
415 26.5195
420 25.7693
425 21.5268
430 17.9745
435 16.9169
440 17.7988
445 17.1702
450 16.2127
455 13.5097
460 11.9905
465 11.7045
470 11.1096
475 10.6115
480 9.48836
485 8.3537
490 7.81633
495 7.41334
500 6.69934
505 5.87306
510 5.2979
515 4.97051
520 4.30911
525 3.94664
530 3.70127
535 3.24812
540 2.87418
545 2.57553
550 2.34824
555 2.14919
560 1.90891
565 1.64993
570 1.45027
575 1.29145
580 1.05461
585 0.888779
590 0.732071
595 0.704441
600 0.83866
Ex : 378
200 0.266878
205 0.262443
210 0.304851
215 0.252057
220 0.229071
225 0.251629
230 0.25652
235 0.232824
240 0.335814
245 0.298114
250 0.283834
255 0.332061
260 0.227032
265 0.211361
270 0.348075
275 0.335542
280 0.259535
285 0.217097
290 0.281078
295 0.228881
300 0.362552
305 0.309543
310 0.286279
315 0.314708
320 0.362035
325 0.344049
330 0.397244
335 0.647023
340 0.601242
345 0.581521
350 0.847267
355 1.01073
360 1.68376
365 37.183
370 673.547
375 1105.58
380 296.252
385 40.8347
390 14.8468
395 13.7633
400 12.5604
405 11.9077
410 14.1301
415 18.3533
420 20.5091
425 18.2152
430 15.0317
435 14.2103
440 14.5599
445 14.0299
450 12.4941
455 11.53
460 10.4234
465 9.57205
470 9.31919
475 8.85672
480 8.4933
485 7.86536
490 7.34502
495 6.99349
500 6.14006
505 5.73228
510 5.35796
515 4.85562
520 4.17783
525 3.65951
530 3.34686
535 3.23501
540 2.70918
545 2.53842
550 2.2868
555 2.10488
560 1.76273
565 1.57396
570 1.39696
575 1.29428
580 1.04264
585 0.817274
590 0.845763
595 0.712117
600 0.791464
Ex : 383
200 0.258159
205 0.260466
210 0.324929
215 0.25821
220 0.252156
225 0.358201
230 0.305076
235 0.2854
240 0.27788
245 0.272984
250 0.285682
255 0.296137
260 0.279834
265 0.319991
270 0.297534
275 0.233032
280 0.294927
285 0.278752
290 0.324197
295 0.311904
300 0.258178
305 0.3349
310 0.308979
315 0.310716
320 0.336914
325 0.295598
330 0.335163
335 0.499991
340 0.527566
345 0.45691
350 0.592324
355 0.73888
360 1.01851
365 1.7809
370 35.116
375 663.806
380 1153.72
385 317.357
390 47.4612
395 16.1169
400 12.0584
405 12.6589
410 15.3841
415 17.0071
420 17.3258
425 17.7993
430 16.9005
435 16.0653
440 15.3149
445 14.4963
450 13.1434
455 12.1073
460 10.9146
465 10.2412
470 9.76536
475 9.13846
480 8.66935
485 7.73009
490 7.04759
495 6.78484
500 6.25996
505 5.79345
510 5.00427
515 4.75181
520 4.2343
525 3.82551
530 3.37087
535 3.24101
540 2.83175
545 2.35697
550 2.25322
555 2.22848
560 1.79007
565 1.64168
570 1.46221
575 1.10351
580 1.04942
585 0.924968
590 0.702458
595 0.737438
600 0.730987
Ex : 388
200 0.212203
205 0.248142
210 0.223375
215 0.219061
220 0.269267
225 0.237087
230 0.331264
235 0.247224
240 0.257805
245 0.241538
250 0.237475
255 0.244522
260 0.220366
265 0.373778
270 0.316083
275 0.319172
280 0.304332
285 0.270224
290 0.22192
295 0.304793
300 0.281142
305 0.252995
310 0.230992
315 0.293397
320 0.303962
325 0.283452
330 0.383035
335 0.471315
340 0.465444
345 0.545138
350 0.589103
355 0.584322
360 0.81729
365 0.911845
370 1.63399
375 37.4747
380 685.417
385 1161.39
390 317.401
395 49.9136
400 18.0947
405 15.5232
410 18.8936
415 21.2707
420 20.5981
425 18.0695
430 18.4786
435 19.837
440 18.6656
445 17.7494
450 15.4948
455 13.3808
460 12.0653
465 11.8211
470 11.0607
475 10.508
480 9.85282
485 8.79015
490 8.13399
495 7.48201
500 6.44954
505 6.02605
510 5.39918
515 5.06614
520 4.34052
525 4.02617
530 3.64551
535 3.2795
540 3.06495
545 2.68892
550 2.3127
555 2.0981
560 1.82675
565 1.53896
570 1.47255
575 1.1787
580 0.952497
585 0.794902
590 0.632868
595 0.616829
600 0.747578
Ex : 393
200 0.24368
205 0.21325
210 0.294115
215 0.249168
220 0.215769
225 0.301454
230 0.203664
235 0.273271
240 0.226575
245 0.259687
250 0.24917
255 0.332912
260 0.238731
265 0.245417
270 0.266136
275 0.200898
280 0.244393
285 0.252155
290 0.351748
295 0.334197
300 0.253902
305 0.298479
310 0.275896
315 0.297642
320 0.21105
325 0.318184
330 0.407551
335 0.342936
340 0.371361
345 0.39934
350 0.477542
355 0.512501
360 0.602766
365 0.662274
370 1.03566
375 1.6199
380 33.5168
385 674.658
390 1154.51
395 323.394
400 50.9381
405 18.334
410 17.5592
415 21.4045
420 21.3854
425 18.6967
430 15.5264
435 16.9807
440 19.3931
445 18.2654
450 15.6637
455 13.3418
460 11.7091
465 10.6313
470 10.1441
475 10.1859
480 9.47875
485 8.43752
490 7.59426
495 6.99213
500 6.54675
505 5.96873
510 5.53742
515 4.95785
520 4.15082
525 3.98814
530 3.5983
535 3.03064
540 2.7331
545 2.64259
550 2.24857
555 2.04722
560 1.83403
565 1.56359
570 1.38218
575 1.24744
580 1.07123
585 0.982936
590 0.808422
595 0.642502
600 0.911155
Ex : 398
200 0.205787
205 0.175669
210 0.234332
215 0.288602
220 0.21953
225 0.255946
230 0.27924
235 0.20615
240 0.240935
245 0.235051
250 0.261514
255 0.216996
260 0.18948
265 0.313364
270 0.248756
275 0.224258
280 0.216386
285 0.23045
290 0.226505
295 0.295873
300 0.25319
305 0.310111
310 0.294932
315 0.238397
320 0.260302
325 0.273316
330 0.329627
335 0.348751
340 0.3825
345 0.362308
350 0.420405
355 0.455118
360 0.486125
365 0.653238
370 0.730996
375 0.981372
380 1.72922
385 35.2983
390 687.907
395 1179.19
400 319.367
405 45.3897
410 14.7772
415 14.5967
420 14.3364
425 12.4148
430 10.9324
435 10.5549
440 11.9171
445 14.1189
450 13.0841
455 10.764
460 9.87888
465 8.63824
470 8.32142
475 8.01312
480 7.51754
485 6.90159
490 6.42653
495 5.9441
500 5.5645
505 5.11238
510 4.65543
515 4.43021
520 3.83183
525 3.54024
530 3.24313
535 3.05595
540 2.7007
545 2.50093
550 2.47596
555 1.96627
560 1.83938
565 1.57355
570 1.41096
575 1.03535
580 0.828202
585 0.802508
590 0.665374
595 0.623662
600 0.158984
Ex : 403
200 0.192295
205 0.215307
210 0.195489
215 0.18846
220 0.263468
225 0.189971
230 0.227681
235 0.233738
240 0.2545
245 0.278011
250 0.241739
255 0.247456
260 0.274442
265 0.2943
270 0.259636
275 0.281803
280 0.271984
285 0.245169
290 0.189759
295 0.212877
300 0.254557
305 0.237737
310 0.240539
315 0.2648
320 0.303048
325 0.300361
330 0.348546
335 0.406094
340 0.412339
345 0.325791
350 0.369868
355 0.387784
360 0.433027
365 0.507782
370 0.570822
375 0.70828
380 1.0939
385 1.98963
390 38.7065
395 695.523
400 1151.26
405 315.488
410 42.6498
415 12.3436
420 9.16846
425 8.18062
430 7.37299
435 7.34382
440 7.92886
445 8.62284
450 10.5344
455 10.1761
460 8.69464
465 7.85953
470 7.47487
475 6.96686
480 6.84121
485 6.33947
490 5.80432
495 5.60919
500 5.31141
505 4.78356
510 4.48492
515 4.08975
520 3.82836
525 3.54857
530 3.30552
535 2.9599
540 2.59574
545 2.38947
550 2.17678
555 2.00315
560 1.76931
565 1.5907
570 1.42205
575 1.23619
580 0.929618
585 0.869786
590 0.714145
595 0.602347
600 0.597805
Ex : 408
200 0.168826
205 0.203166
210 0.199541
215 0.235571
220 0.235235
225 0.245355
230 0.200557
235 0.218885
240 0.244911
245 0.221843
250 0.239045
255 0.189795
260 0.245345
265 0.19477
270 0.28074
275 0.222156
280 0.20521
285 0.181694
290 0.201814
295 0.266862
300 0.266806
305 0.281202
310 0.252287
315 0.208301
320 0.320397
325 0.317161
330 0.283238
335 0.306201
340 0.319133
345 0.324174
350 0.352784
355 0.360294
360 0.375729
365 0.434909
370 0.49021
375 0.593463
380 0.858657
385 1.1787
390 1.82841
395 35.6803
400 701.621
405 1176.26
410 312.431
415 43.2066
420 12.3219
425 8.68634
430 7.64175
435 7.82272
440 8.39016
445 8.68827
450 8.45053
455 9.44907
460 9.95232
465 8.83284
470 8.30906
475 7.77886
480 7.06644
485 6.72831
490 6.27642
495 5.64895
500 5.20248
505 4.8844
510 4.58099
515 4.28629
520 4.21775
525 3.75037
530 3.24277
535 2.89429
540 2.63245
545 2.39176
550 2.251
555 2.12846
560 1.75863
565 1.66953
570 1.46253
575 1.17771
580 0.950246
585 0.891965
590 0.773515
595 0.580504
600 0.139148
Ex : 413
200 0.237533
205 0.179152
210 0.24308
215 0.215224
220 0.173609
225 0.23909
230 0.2866
235 0.233962
240 0.271317
245 0.245617
250 0.215345
255 0.223324
260 0.258904
265 0.237092
270 0.256289
275 0.278336
280 0.217413
285 0.236538
290 0.24002
295 0.188071
300 0.186529
305 0.241054
310 0.229266
315 0.243654
320 0.288952
325 0.254864
330 0.279937
335 0.260032
340 0.279058
345 0.343546
350 0.364577
355 0.34805
360 0.452725
365 0.406778
370 0.452616
375 0.432415
380 0.524365
385 0.749236
390 1.0615
395 1.82163
400 39.2249
405 728.679
410 1180.84
415 307.169
420 42.4322
425 11.3008
430 7.33235
435 7.79698
440 7.87166
445 8.01449
450 7.47928
455 7.20802
460 7.89953
465 9.55879
470 8.4686
475 7.73941
480 7.28167
485 6.28316
490 5.74564
495 5.36616
500 5.05405
505 4.64297
510 4.47749
515 4.07843
520 3.64983
525 3.62302
530 3.07335
535 2.69743
540 2.58331
545 2.36952
550 2.13502
555 1.96797
560 1.72872
565 1.55082
570 1.3293
575 1.12756
580 0.935487
585 0.796367
590 0.636911
595 0.552416
600 0.54652
Ex : 418
200 0.187446
205 0.23422
210 0.218855
215 0.17967
220 0.216006
225 0.248431
230 0.191962
235 0.228623
240 0.152234
245 0.205112
250 0.261744
255 0.196639
260 0.184231
265 0.218127
270 0.217558
275 0.224069
280 0.224443
285 0.255634
290 0.239705
295 0.24302
300 0.207826
305 0.207456
310 0.271361
315 0.25474
320 0.266505
325 0.279983
330 0.314285
335 0.295195
340 0.31931
345 0.33733
350 0.323253
355 0.322298
360 0.390028
365 0.383425
370 0.432302
375 0.470314
380 0.456084
385 0.601968
390 0.750131
395 1.07253
400 1.87237
405 38.2434
410 706.793
415 1172.88
420 311.857
425 40.5532
430 8.7213
435 5.3377
440 5.3872
445 5.4178
450 4.84511
455 4.60522
460 4.38236
465 5.32682
470 6.99994
475 6.84831
480 5.91636
485 5.45221
490 4.947
495 4.56306
500 4.21011
505 3.92664
510 3.68255
515 3.57656
520 3.46678
525 3.01259
530 2.77254
535 2.42723
540 2.27402
545 2.24522
550 2.06059
555 1.89964
560 1.75565
565 1.56583
570 1.29185
575 1.04148
580 0.947848
585 0.814491
590 0.738656
595 0.610253
600 0.844139
Ex : 423
200 0.223766
205 0.215374
210 0.18409
215 0.236347
220 0.213742
225 0.227873
230 0.165373
235 0.215535
240 0.239807
245 0.284513
250 0.254821
255 0.24451
260 0.26595
265 0.294327
270 0.230497
275 0.24198
280 0.289629
285 0.217457
290 0.211853
295 0.259922
300 0.233058
305 0.260727
310 0.195789
315 0.327877
320 0.252838
325 0.276195
330 0.310997
335 0.292802
340 0.246883
345 0.278983
350 0.320846
355 0.361644
360 0.349023
365 0.354597
370 0.41889
375 0.416147
380 0.447162
385 0.460037
390 0.506309
395 0.672405
400 1.03038
405 1.71732
410 38.7494
415 729.878
420 1157.02
425 292.533
430 36.931
435 7.18325
440 3.4567
445 3.34949
450 3.18627
455 3.02625
460 2.86649
465 3.05917
470 3.53756
475 5.2257
480 5.88843
485 4.85575
490 4.35566
495 4.14114
500 3.67953
505 3.44211
510 3.21341
515 3.1697
520 3.0367
525 2.58549
530 2.51341
535 2.35849
540 2.26585
545 1.96904
550 1.95584
555 1.70096
560 1.46292
565 1.38806
570 1.19815
575 1.1329
580 0.960423
585 0.721936
590 0.583352
595 0.554317
600 0.98438
Ex : 428
200 0.20393
205 0.216252
210 0.281188
215 0.240584
220 0.162573
225 0.254133
230 0.23047
235 0.194238
240 0.208283
245 0.224914
250 0.304876
255 0.294602
260 0.238863
265 0.228391
270 0.204274
275 0.202662
280 0.207449
285 0.230259
290 0.284483
295 0.260935
300 0.158414
305 0.171731
310 0.216421
315 0.242429
320 0.252059
325 0.269758
330 0.357719
335 0.252431
340 0.292456
345 0.298087
350 0.335802
355 0.297133
360 0.368531
365 0.359597
370 0.290257
375 0.41137
380 0.387174
385 0.466343
390 0.514189
395 0.57018
400 0.794745
405 1.12658
410 1.81105
415 42.0475
420 730.24
425 1155.33
430 301.058
435 37.3114
440 6.46947
445 2.73791
450 2.54858
455 2.38823
460 2.28106
465 2.4521
470 2.45088
475 2.8285
480 3.9965
485 5.48252
490 4.50445
495 4.07422
500 3.56813
505 3.20203
510 3.07338
515 2.88976
520 2.5154
525 2.52456
530 2.35711
535 2.26566
540 2.14152
545 1.99773
550 1.76011
555 1.61237
560 1.44536
565 1.41696
570 1.31337
575 1.02966
580 0.938885
585 0.794454
590 0.615248
595 0.545928
600 0.680965
Ex : 433
200 0.2902
205 0.200327
210 0.230523
215 0.219887
220 0.24571
225 0.227582
230 0.215024
235 0.224039
240 0.240387
245 0.175405
250 0.273522
255 0.267154
260 0.214292
265 0.212005
270 0.25903
275 0.230098
280 0.252891
285 0.311225
290 0.263266
295 0.223056
300 0.264961
305 0.217734
310 0.312831
315 0.224703
320 0.257963
325 0.267976
330 0.225004
335 0.272408
340 0.269131
345 0.252941
350 0.313892
355 0.316592
360 0.321658
365 0.34266
370 0.384292
375 0.389995
380 0.442102
385 0.393585
390 0.474507
395 0.54885
400 0.575173
405 0.815173
410 1.14876
415 1.74854
420 44.9398
425 778.92
430 1179.99
435 293.093
440 36.2866
445 6.19541
450 2.51404
455 2.32148
460 2.42161
465 2.34092
470 2.2358
475 2.37455
480 2.48458
485 3.49244
490 4.94331
495 4.59793
500 3.66881
505 3.28773
510 2.97238
515 2.60016
520 2.47011
525 2.53798
530 2.24509
535 2.17521
540 1.89488
545 1.78659
550 1.78982
555 1.58739
560 1.41808
565 1.1929
570 1.24103
575 1.04938
580 0.940669
585 0.738077
590 0.65745
595 0.513197
600 0.570831
Ex : 438
200 0.155586
205 0.184352
210 0.197505
215 0.224848
220 0.214292
225 0.215633
230 0.231061
235 0.236847
240 0.196993
245 0.268529
250 0.277559
255 0.240856
260 0.234892
265 0.267019
270 0.207113
275 0.227857
280 0.219201
285 0.232887
290 0.198473
295 0.230652
300 0.212805
305 0.224729
310 0.195203
315 0.209326
320 0.317014
325 0.269549
330 0.2316
335 0.279059
340 0.235618
345 0.261574
350 0.302801
355 0.407151
360 0.36418
365 0.276476
370 0.310853
375 0.298051
380 0.347122
385 0.345782
390 0.396316
395 0.482083
400 0.532298
405 0.724568
410 0.845313
415 1.13338
420 1.74457
425 42.979
430 772.359
435 1234.42
440 309.352
445 38.1494
450 6.51847
455 2.53477
460 2.31728
465 2.43612
470 2.38242
475 2.2197
480 2.27695
485 2.22335
490 2.87874
495 4.25122
500 5.05517
505 3.5781
510 3.19293
515 2.93086
520 2.5113
525 2.19131
530 2.11763
535 1.93461
540 1.80491
545 1.78662
550 1.55713
555 1.5153
560 1.30213
565 1.25983
570 1.10053
575 0.958254
580 0.901241
585 0.63418
590 0.68287
595 0.604101
600 0.335942
Ex : 443
200 0.231172
205 0.237418
210 0.188913
215 0.223882
220 0.170604
225 0.181462
230 0.184573
235 0.238168
240 0.219264
245 0.273175
250 0.310052
255 0.181725
260 0.267634
265 0.22047
270 0.198981
275 0.203055
280 0.192453
285 0.246761
290 0.268836
295 0.277099
300 0.280974
305 0.261776
310 0.215331
315 0.194464
320 0.228185
325 0.315147
330 0.235768
335 0.248417
340 0.325927
345 0.26084
350 0.27441
355 0.316782
360 0.326939
365 0.347419
370 0.283194
375 0.362911
380 0.341849
385 0.342161
390 0.345547
395 0.438081
400 0.450582
405 0.518967
410 0.662754
415 0.845085
420 1.10495
425 1.6452
430 49.8509
435 830.853
440 1250.7
445 313.733
450 38.483
455 6.6102
460 2.77597
465 2.45133
470 2.53645
475 2.198
480 2.04765
485 2.11361
490 2.12449
495 2.40175
500 3.63281
505 4.45845
510 3.61271
515 2.93762
520 2.70669
525 2.41019
530 2.08805
535 1.91732
540 1.68935
545 1.64758
550 1.73723
555 1.48908
560 1.35156
565 1.36503
570 1.1106
575 0.950823
580 0.903507
585 0.803887
590 0.692942
595 0.628189
600 0.505606
Ex : 448
200 0.271511
205 0.209476
210 0.269463
215 0.242233
220 0.258581
225 0.251588
230 0.206935
235 0.324493
240 0.280359
245 0.274784
250 0.335633
255 0.207948
260 0.233418
265 0.195699
270 0.220608
275 0.255106
280 0.29961
285 0.246637
290 0.253759
295 0.237983
300 0.278423
305 0.234788
310 0.210407
315 0.261577
320 0.249311
325 0.259705
330 0.310078
335 0.292436
340 0.267095
345 0.298943
350 0.284831
355 0.292109
360 0.305643
365 0.329943
370 0.349821
375 0.281847
380 0.307789
385 0.355664
390 0.372477
395 0.375119
400 0.389067
405 0.449386
410 0.547732
415 0.628206
420 0.759594
425 1.01217
430 1.74733
435 49.7687
440 862.038
445 1314.79
450 329.126
455 40.4841
460 6.87041
465 2.76394
470 2.40882
475 2.40979
480 2.27598
485 2.09312
490 2.0402
495 2.10226
500 2.03938
505 3.02244
510 4.01421
515 3.63632
520 2.84313
525 2.5118
530 2.26282
535 2.04975
540 1.65312
545 1.66343
550 1.61917
555 1.44984
560 1.26369
565 1.2105
570 1.12662
575 0.898116
580 0.77798
585 0.712512
590 0.635066
595 0.52362
600 0.782462
Ex : 453
200 0.231394
205 0.156714
210 0.250025
215 0.241755
220 0.210984
225 0.1706
230 0.269356
235 0.258467
240 0.251968
245 0.225283
250 0.277886
255 0.244675
260 0.213214
265 0.239294
270 0.192486
275 0.225601
280 0.229446
285 0.220147
290 0.234059
295 0.232585
300 0.241391
305 0.176026
310 0.20115
315 0.202293
320 0.253023
325 0.210934
330 0.2348
335 0.274594
340 0.257132
345 0.291178
350 0.287903
355 0.260374
360 0.280777
365 0.249964
370 0.248048
375 0.300263
380 0.300145
385 0.34667
390 0.36546
395 0.393532
400 0.36111
405 0.37766
410 0.40463
415 0.510389
420 0.648702
425 0.793729
430 1.21602
435 1.5844
440 52.9295
445 930.745
450 1359.56
455 320.721
460 39.3655
465 6.72929
470 2.52721
475 2.24085
480 2.3373
485 2.15843
490 2.08851
495 1.82085
500 1.89969
505 1.96437
510 2.26756
515 3.82491
520 3.75685
525 2.89105
530 2.45568
535 2.29235
540 1.83585
545 1.73141
550 1.58855
555 1.36301
560 1.33757
565 1.1362
570 1.11296
575 0.956296
580 0.784955
585 0.78153
590 0.60315
595 0.646713
600 0.452991
Ex : 458
200 0.21708
205 0.215218
210 0.255772
215 0.260685
220 0.288076
225 0.28079
230 0.193216
235 0.196532
240 0.270327
245 0.263605
250 0.17799
255 0.2225
260 0.209846
265 0.195333
270 0.225678
275 0.234336
280 0.188512
285 0.225398
290 0.258809
295 0.19725
300 0.188426
305 0.217497
310 0.232706
315 0.239729
320 0.26743
325 0.256632
330 0.218488
335 0.267111
340 0.208935
345 0.29402
350 0.285577
355 0.295141
360 0.30294
365 0.260143
370 0.319333
375 0.306651
380 0.315211
385 0.333535
390 0.435072
395 0.353068
400 0.373611
405 0.406368
410 0.457782
415 0.575926
420 0.558248
425 0.611199
430 0.836227
435 1.08956
440 1.81702
445 57.6033
450 947.349
455 1433
460 344.072
465 42.4419
470 7.21448
475 2.64945
480 2.09682
485 2.31671
490 2.16957
495 1.97543
500 1.81669
505 1.69852
510 1.81665
515 2.14819
520 2.89582
525 3.52772
530 2.74189
535 2.22078
540 2.11766
545 1.87048
550 1.60634
555 1.4874
560 1.35816
565 1.23472
570 1.00175
575 0.939079
580 0.761701
585 0.711352
590 0.660984
595 0.634947
600 0.506611
Ex : 463
200 0.22408
205 0.159467
210 0.231897
215 0.18092
220 0.198762
225 0.187894
230 0.202834
235 0.281829
240 0.241124
245 0.250057
250 0.249171
255 0.215637
260 0.21902
265 0.270165
270 0.295012
275 0.267038
280 0.196322
285 0.210625
290 0.183499
295 0.236682
300 0.227458
305 0.196724
310 0.229551
315 0.198087
320 0.197739
325 0.198066
330 0.253328
335 0.291558
340 0.296212
345 0.223306
350 0.306602
355 0.312937
360 0.329039
365 0.252004
370 0.300698
375 0.332502
380 0.275031
385 0.291158
390 0.355544
395 0.350938
400 0.330772
405 0.381697
410 0.361157
415 0.391242
420 0.475417
425 0.454246
430 0.654604
435 0.799645
440 1.00967
445 1.91161
450 56.9099
455 995.493
460 1537.9
465 372.426
470 45.5047
475 7.46043
480 2.70853
485 2.0454
490 2.32932
495 2.04722
500 1.85209
505 1.73766
510 1.72119
515 1.66818
520 1.79007
525 2.44722
530 3.46135
535 2.91483
540 2.13533
545 1.88892
550 1.74202
555 1.62132
560 1.32111
565 1.33334
570 1.14821
575 1.04237
580 0.828567
585 0.820563
590 0.735147
595 0.601319
600 0.460772
Ex : 468
200 0.158718
205 0.186504
210 0.186081
215 0.193534
220 0.184598
225 0.240385
230 0.216449
235 0.24602
240 0.269881
245 0.189343
250 0.209728
255 0.220111
260 0.243549
265 0.153562
270 0.199269
275 0.220322
280 0.22579
285 0.198979
290 0.230004
295 0.206
300 0.210333
305 0.24224
310 0.152116
315 0.229483
320 0.210987
325 0.197392
330 0.213999
335 0.230178
340 0.253559
345 0.233619
350 0.263984
355 0.26989
360 0.309835
365 0.254428
370 0.298527
375 0.251084
380 0.285899
385 0.328014
390 0.330088
395 0.317519
400 0.304795
405 0.324528
410 0.388589
415 0.361859
420 0.400892
425 0.445181
430 0.516233
435 0.605702
440 0.707948
445 1.02494
450 1.72351
455 62.0539
460 1018.66
465 1598.6
470 384.929
475 46.5388
480 7.52868
485 2.47761
490 1.96473
495 1.97216
500 1.98543
505 1.74614
510 1.57838
515 1.52686
520 1.67983
525 1.54454
530 2.07006
535 3.06064
540 3.17235
545 2.07793
550 1.86674
555 1.85621
560 1.48946
565 1.22606
570 1.07285
575 0.972034
580 0.865393
585 0.72213
590 0.652058
595 0.511731
600 0.816073
Ex : 473
200 0.166004
205 0.197296
210 0.230816
215 0.177806
220 0.241098
225 0.210164
230 0.207544
235 0.207908
240 0.236278
245 0.23439
250 0.228311
255 0.204911
260 0.148437
265 0.208317
270 0.253075
275 0.199304
280 0.200382
285 0.19387
290 0.236014
295 0.311225
300 0.256873
305 0.212079
310 0.166421
315 0.223967
320 0.295681
325 0.213386
330 0.27734
335 0.293106
340 0.24516
345 0.21493
350 0.263339
355 0.266678
360 0.294105
365 0.267696
370 0.278383
375 0.302902
380 0.272518
385 0.277779
390 0.278857
395 0.269915
400 0.34293
405 0.364198
410 0.41693
415 0.463897
420 0.338038
425 0.427454
430 0.529545
435 0.47562
440 0.671144
445 0.768113
450 1.15789
455 1.93092
460 73.1627
465 1127.58
470 1584.07
475 365.209
480 44.2834
485 6.98203
490 2.59588
495 1.78769
500 1.89344
505 1.89193
510 1.78767
515 1.61994
520 1.5346
525 1.61471
530 1.59841
535 1.88466
540 2.68397
545 3.09517
550 2.25285
555 1.8247
560 1.81698
565 1.47787
570 1.17744
575 0.986933
580 0.886046
585 0.7169
590 0.695701
595 0.631016
600 0.325382
Ex : 478
200 0.241485
205 0.261295
210 0.288671
215 0.255326
220 0.220004
225 0.209223
230 0.230475
235 0.244393
240 0.257159
245 0.279548
250 0.283925
255 0.246879
260 0.217368
265 0.212198
270 0.237533
275 0.338371
280 0.234004
285 0.30499
290 0.26241
295 0.285105
300 0.266316
305 0.259895
310 0.248799
315 0.294446
320 0.201583
325 0.220421
330 0.246235
335 0.280834
340 0.234417
345 0.259422
350 0.282582
355 0.265877
360 0.28922
365 0.282446
370 0.322409
375 0.353692
380 0.314555
385 0.348993
390 0.404711
395 0.36653
400 0.309009
405 0.288344
410 0.353938
415 0.42658
420 0.4856
425 0.480129
430 0.510887
435 0.512688
440 0.584818
445 0.763845
450 0.828876
455 1.31127
460 2.28724
465 79.4198
470 1166.91
475 1622.32
480 390.466
485 47.455
490 7.41908
495 2.62415
500 1.74274
505 1.86222
510 2.08297
515 1.6932
520 1.63182
525 1.6346
530 1.63511
535 1.6373
540 1.66117
545 2.22175
550 2.80483
555 2.49422
560 1.82413
565 1.5156
570 1.37672
575 1.16762
580 0.911301
585 0.710979
590 0.682609
595 0.681359
600 0.806612
Ex : 483
200 0.25367
205 0.224552
210 0.286672
215 0.287219
220 0.254273
225 0.281483
230 0.215556
235 0.237308
240 0.22334
245 0.230641
250 0.256236
255 0.262252
260 0.279946
265 0.234715
270 0.287296
275 0.239796
280 0.251864
285 0.248339
290 0.297643
295 0.252365
300 0.261225
305 0.253766
310 0.3454
315 0.328861
320 0.293615
325 0.241267
330 0.307694
335 0.268309
340 0.254139
345 0.278353
350 0.31638
355 0.31488
360 0.304818
365 0.27793
370 0.271269
375 0.34699
380 0.298127
385 0.411198
390 0.349783
395 0.444151
400 0.363047
405 0.367644
410 0.427897
415 0.434391
420 0.405409
425 0.473985
430 0.413657
435 0.461904
440 0.527763
445 0.57073
450 0.757697
455 0.920881
460 1.43948
465 2.31715
470 64.148
475 1167.93
480 1776.91
485 427.384
490 51.8413
495 7.93657
500 2.53058
505 1.83477
510 1.75519
515 1.84614
520 1.80857
525 1.59791
530 1.50619
535 1.51418
540 1.57141
545 1.48981
550 1.62689
555 2.35926
560 2.42969
565 1.72346
570 1.52103
575 1.2708
580 1.06106
585 0.904514
590 0.627404
595 0.66028
600 0.893172
Ex : 488
200 0.235598
205 0.295739
210 0.210182
215 0.296507
220 0.299001
225 0.261356
230 0.32933
235 0.274907
240 0.193035
245 0.267872
250 0.22595
255 0.266406
260 0.245109
265 0.349195
270 0.298313
275 0.271141
280 0.273035
285 0.281332
290 0.271091
295 0.268567
300 0.29512
305 0.288642
310 0.299648
315 0.321774
320 0.260257
325 0.24019
330 0.300778
335 0.341644
340 0.290903
345 0.233284
350 0.279217
355 0.355814
360 0.287152
365 0.307745
370 0.327667
375 0.455044
380 0.317404
385 0.348336
390 0.381744
395 0.340602
400 0.344985
405 0.400748
410 0.381218
415 0.392599
420 0.474583
425 0.449011
430 0.46983
435 0.48659
440 0.596108
445 0.606002
450 0.712145
455 0.860852
460 1.20334
465 1.78375
470 2.38354
475 78.995
480 1270.67
485 1754.57
490 412.323
495 49.8717
500 7.78111
505 2.64525
510 1.67007
515 1.75687
520 1.99116
525 1.79767
530 1.75684
535 1.58469
540 1.6392
545 1.51233
550 1.54119
555 1.5232
560 1.9706
565 2.43039
570 1.7154
575 1.28777
580 1.12897
585 1.11626
590 0.837483
595 0.634978
600 1.21508
Ex : 493
200 0.24743
205 0.262551
210 0.221271
215 0.286471
220 0.28919
225 0.282839
230 0.315849
235 0.311196
240 0.32797
245 0.307496
250 0.252962
255 0.365118
260 0.364465
265 0.36547
270 0.29285
275 0.211607
280 0.266031
285 0.233511
290 0.247981
295 0.28595
300 0.248616
305 0.298094
310 0.341926
315 0.258404
320 0.24752
325 0.338367
330 0.362947
335 0.333478
340 0.235408
345 0.317797
350 0.305712
355 0.295911
360 0.286318
365 0.298663
370 0.312266
375 0.26926
380 0.315006
385 0.350393
390 0.390335
395 0.450145
400 0.359285
405 0.334877
410 0.386855
415 0.426048
420 0.443226
425 0.495564
430 0.433046
435 0.468267
440 0.524281
445 0.542264
450 0.617
455 0.751032
460 0.927663
465 1.17981
470 1.53053
475 2.35577
480 73.2972
485 1261.17
490 1851.49
495 425.324
500 51.2601
505 7.91642
510 2.72579
515 1.86681
520 1.81965
525 1.87826
530 1.80744
535 1.66382
540 1.645
545 1.50028
550 1.45028
555 1.54963
560 1.4546
565 1.7144
570 2.1149
575 1.85382
580 1.1409
585 0.99587
590 0.935024
595 0.87468
600 0.72599
Ex : 498
200 0.330397
205 0.334701
210 0.253208
215 0.338199
220 0.2396
225 0.288917
230 0.299156
235 0.286435
240 0.33581
245 0.365128
250 0.415478
255 0.263624
260 0.298199
265 0.272185
270 0.260448
275 0.320273
280 0.402395
285 0.299351
290 0.298161
295 0.312263
300 0.268049
305 0.242209
310 0.333595
315 0.295426
320 0.320498
325 0.275543
330 0.35283
335 0.29789
340 0.409763
345 0.336184
350 0.300759
355 0.372199
360 0.329007
365 0.350292
370 0.372741
375 0.329068
380 0.327102
385 0.435245
390 0.407501
395 0.401878
400 0.388295
405 0.451014
410 0.41721
415 0.365907
420 0.385756
425 0.423046
430 0.44593
435 0.453729
440 0.503953
445 0.538982
450 0.632545
455 0.647198
460 0.843374
465 1.0307
470 1.118
475 1.52292
480 2.51523
485 88.0988
490 1337.66
495 1818.7
500 425.276
505 51.4895
510 8.06734
515 2.65951
520 1.88716
525 1.84073
530 2.03534
535 1.6976
540 1.75269
545 1.40788
550 1.43993
555 1.29242
560 1.21172
565 1.34086
570 1.38858
575 1.74674
580 1.87401
585 1.25497
590 1.00923
595 0.882351
600 0.601469
Ex : 503
200 0.409691
205 0.330066
210 0.275325
215 0.259848
220 0.313906
225 0.292808
230 0.397582
235 0.320384
240 0.31465
245 0.270615
250 0.385715
255 0.382423
260 0.24551
265 0.362769
270 0.265033
275 0.300601
280 0.205309
285 0.33975
290 0.329861
295 0.285663
300 0.413757
305 0.284093
310 0.319936
315 0.348467
320 0.305267
325 0.30578
330 0.340582
335 0.339726
340 0.312293
345 0.410539
350 0.328964
355 0.331055
360 0.375969
365 0.39983
370 0.35976
375 0.381911
380 0.337814
385 0.358521
390 0.362751
395 0.364002
400 0.448338
405 0.402348
410 0.396587
415 0.407239
420 0.394734
425 0.469517
430 0.503212
435 0.468193
440 0.462435
445 0.506407
450 0.662183
455 0.597225
460 0.616845
465 0.905668
470 0.981641
475 1.10348
480 1.64986
485 2.7082
490 81.7043
495 1349.84
500 1901.67
505 439.023
510 53.2603
515 8.20131
520 2.80061
525 1.86205
530 1.80872
535 1.88251
540 1.73585
545 1.69545
550 1.34749
555 1.40391
560 1.25727
565 1.16668
570 1.20593
575 1.20876
580 1.31118
585 1.72643
590 1.14369
595 0.896966
600 0.796134
Ex : 508
200 0.27853
205 0.323943
210 0.337206
215 0.290475
220 0.266189
225 0.296514
230 0.315967
235 0.295698
240 0.330928
245 0.310261
250 0.317847
255 0.301373
260 0.420394
265 0.449271
270 0.344231
275 0.334737
280 0.247194
285 0.274888
290 0.285423
295 0.32922
300 0.455226
305 0.448545
310 0.452045
315 0.340774
320 0.308693
325 0.329347
330 0.319272
335 0.381409
340 0.339822
345 0.315291
350 0.371014
355 0.312925
360 0.472325
365 0.322194
370 0.375339
375 0.321762
380 0.43837
385 0.438616
390 0.554543
395 0.414544
400 0.373706
405 0.428946
410 0.472593
415 0.384138
420 0.409614
425 0.517531
430 0.4741
435 0.46425
440 0.547842
445 0.563317
450 0.57784
455 0.538785
460 0.732864
465 0.797466
470 0.880982
475 0.953802
480 1.12601
485 1.67592
490 2.56085
495 87.9911
500 1378.17
505 1911.99
510 458.593
515 55.6852
520 8.54384
525 2.87195
530 1.90884
535 1.79632
540 1.76635
545 1.76312
550 1.57227
555 1.39736
560 1.23089
565 1.29544
570 1.19729
575 0.953276
580 0.919341
585 0.972263
590 1.30166
595 1.25822
600 0.518898
Ex : 513
200 0.28371
205 0.309249
210 0.372989
215 0.334875
220 0.365243
225 0.451085
230 0.345582
235 0.316113
240 0.344178
245 0.351205
250 0.326821
255 0.402051
260 0.303099
265 0.22521
270 0.285765
275 0.338995
280 0.370221
285 0.325537
290 0.342083
295 0.335343
300 0.279496
305 0.273434
310 0.405826
315 0.447887
320 0.292752
325 0.256678
330 0.37676
335 0.358826
340 0.416011
345 0.397342
350 0.300358
355 0.398254
360 0.470564
365 0.565006
370 0.506637
375 0.403922
380 0.390966
385 0.411307
390 0.447757
395 0.343957
400 0.310692
405 0.496279
410 0.394148
415 0.456925
420 0.407571
425 0.477176
430 0.474472
435 0.464744
440 0.457734
445 0.551661
450 0.55251
455 0.418641
460 0.624511
465 0.627202
470 0.758103
475 0.815965
480 1.01541
485 1.1707
490 1.7995
495 2.46285
500 81.2169
505 1345.45
510 1957.78
515 481.272
520 58.2678
525 8.73095
530 2.799
535 1.95514
540 1.56133
545 1.60234
550 1.67924
555 1.56974
560 1.51035
565 1.15789
570 1.11423
575 1.10512
580 0.858537
585 0.825229
590 0.817443
595 1.08711
600 0.791573
Ex : 518
200 0.325782
205 0.239085
210 0.305264
215 0.396301
220 0.327355
225 0.451283
230 0.450495
235 0.385157
240 0.328532
245 0.361167
250 0.33591
255 0.333904
260 0.345462
265 0.333671
270 0.332539
275 0.305062
280 0.269826
285 0.35316
290 0.446786
295 0.346209
300 0.288988
305 0.39312
310 0.313402
315 0.31543
320 0.329076
325 0.283731
330 0.369686
335 0.302711
340 0.413399
345 0.374533
350 0.445516
355 0.403431
360 0.472045
365 0.393676
370 0.329557
375 0.328603
380 0.36413
385 0.409885
390 0.422917
395 0.405926
400 0.30799
405 0.501072
410 0.438143
415 0.4583
420 0.485271
425 0.391666
430 0.453916
435 0.541549
440 0.566722
445 0.5194
450 0.523099
455 0.543356
460 0.639406
465 0.701684
470 0.718379
475 0.774629
480 0.784163
485 0.936573
490 1.30012
495 1.56429
500 2.67537
505 85.2442
510 1332.2
515 1953.41
520 481.502
525 58.1582
530 8.74602
535 2.86279
540 1.96481
545 1.7024
550 1.50458
555 1.50338
560 1.52806
565 1.43553
570 1.12717
575 1.04457
580 0.937294
585 0.870854
590 0.944008
595 0.711475
600 0.534979
Ex : 523
200 0.343888
205 0.313675
210 0.340023
215 0.385803
220 0.366227
225 0.281903
230 0.423045
235 0.306321
240 0.327855
245 0.322756
250 0.35914
255 0.371797
260 0.315882
265 0.309949
270 0.415332
275 0.406715
280 0.445764
285 0.383699
290 0.339279
295 0.407744
300 0.398051
305 0.338195
310 0.317123
315 0.344747
320 0.293455
325 0.372224
330 0.390325
335 0.390497
340 0.421684
345 0.399303
350 0.5138
355 0.316618
360 0.5162
365 0.475981
370 0.428082
375 0.475862
380 0.386638
385 0.479644
390 0.384557
395 0.386794
400 0.563289
405 0.416991
410 0.442844
415 0.44484
420 0.500756
425 0.416262
430 0.465071
435 0.558438
440 0.490111
445 0.547652
450 0.61216
455 0.60329
460 0.64796
465 0.655098
470 0.760658
475 0.673416
480 0.792772
485 0.975025
490 1.06166
495 1.22456
500 1.56454
505 2.50021
510 78.5402
515 1282.4
520 1967.89
525 507.448
530 60.8823
535 9.10937
540 2.81653
545 1.9389
550 1.54217
555 1.48377
560 1.38173
565 1.33238
570 1.05413
575 1.03518
580 1.0554
585 0.868987
590 0.822203
595 0.858115
600 0.431681
Ex : 528
200 0.330062
205 0.338034
210 0.349235
215 0.345891
220 0.345399
225 0.365293
230 0.335736
235 0.368144
240 0.375896
245 0.321468
250 0.356178
255 0.395857
260 0.358511
265 0.298
270 0.33956
275 0.412408
280 0.302952
285 0.289438
290 0.429014
295 0.342927
300 0.379497
305 0.386876
310 0.411581
315 0.338014
320 0.403007
325 0.370942
330 0.45073
335 0.425555
340 0.3794
345 0.4132
350 0.418794
355 0.42486
360 0.389971
365 0.351429
370 0.409464
375 0.476536
380 0.430776
385 0.312005
390 0.339823
395 0.479607
400 0.467126
405 0.435337
410 0.44446
415 0.459126
420 0.454545
425 0.466558
430 0.482376
435 0.354592
440 0.477408
445 0.467675
450 0.550638
455 0.57679
460 0.604188
465 0.679849
470 0.604191
475 0.725906
480 0.781602
485 0.715156
490 0.94637
495 1.01024
500 1.30326
505 1.69747
510 2.56279
515 73.1134
520 1268.18
525 1933.9
530 483.468
535 58.3836
540 8.66679
545 2.8348
550 1.76299
555 1.45878
560 1.32413
565 1.27573
570 1.11466
575 1.09229
580 0.864356
585 0.879027
590 0.779235
595 0.661067
600 0.550638
Ex : 533
200 0.413294
205 0.52405
210 0.338555
215 0.428662
220 0.401612
225 0.432128
230 0.419781
235 0.308088
240 0.324203
245 0.371871
250 0.433651
255 0.334572
260 0.339357
265 0.366909
270 0.338296
275 0.363629
280 0.295433
285 0.274572
290 0.352317
295 0.320858
300 0.368511
305 0.42208
310 0.388158
315 0.339838
320 0.440452
325 0.433027
330 0.346677
335 0.360107
340 0.379933
345 0.345145
350 0.361003
355 0.397542
360 0.42427
365 0.330322
370 0.405854
375 0.460685
380 0.389223
385 0.418345
390 0.458317
395 0.456647
400 0.367533
405 0.473917
410 0.412
415 0.479836
420 0.541437
425 0.455875
430 0.547024
435 0.416525
440 0.413718
445 0.560549
450 0.514
455 0.536874
460 0.591539
465 0.602803
470 0.59268
475 0.617081
480 0.69061
485 0.693103
490 0.868864
495 0.897369
500 0.927846
505 1.33285
510 1.54585
515 2.64898
520 75.1895
525 1238.13
530 1930.48
535 500.964
540 60.0736
545 8.71473
550 2.73493
555 1.77203
560 1.35263
565 1.22538
570 1.19004
575 1.21133
580 1.08665
585 0.907879
590 0.945367
595 0.833959
600 0.952518
Ex : 538
200 0.308091
205 0.372037
210 0.411215
215 0.460554
220 0.342532
225 0.359878
230 0.310921
235 0.374287
240 0.420856
245 0.358954
250 0.359023
255 0.37716
260 0.38504
265 0.409784
270 0.400313
275 0.315417
280 0.335209
285 0.474296
290 0.374281
295 0.411006
300 0.338606
305 0.407685
310 0.429607
315 0.382823
320 0.432915
325 0.493843
330 0.456464
335 0.374713
340 0.371829
345 0.390807
350 0.503452
355 0.478335
360 0.385118
365 0.45237
370 0.449938
375 0.38425
380 0.427289
385 0.521297
390 0.379451
395 0.39707
400 0.529783
405 0.506926
410 0.588091
415 0.455573
420 0.489276
425 0.459122
430 0.383605
435 0.432766
440 0.558672
445 0.45462
450 0.484989
455 0.724646
460 0.525682
465 0.549935
470 0.567361
475 0.649952
480 0.620519
485 0.769339
490 0.692777
495 0.681973
500 0.838049
505 0.941567
510 1.22589
515 1.60312
520 2.41242
525 61.9806
530 1172.61
535 1918.15
540 515.353
545 62.3258
550 9.03936
555 2.63103
560 1.60482
565 1.23634
570 1.03079
575 1.0569
580 0.864486
585 0.993155
590 0.959897
595 0.752109
600 0.308376
Ex : 543
200 0.355274
205 0.399194
210 0.339299
215 0.442151
220 0.481686
225 0.423602
230 0.318735
235 0.427613
240 0.324682
245 0.307554
250 0.434801
255 0.412044
260 0.43925
265 0.367521
270 0.405027
275 0.324774
280 0.418104
285 0.364002
290 0.32523
295 0.378174
300 0.404619
305 0.404045
310 0.406059
315 0.343624
320 0.460435
325 0.499958
330 0.414171
335 0.437466
340 0.469347
345 0.423136
350 0.485928
355 0.487937
360 0.453096
365 0.549914
370 0.452982
375 0.452006
380 0.399416
385 0.495339
390 0.504589
395 0.595231
400 0.5261
405 0.499947
410 0.503374
415 0.51467
420 0.539432
425 0.457931
430 0.693407
435 0.508673
440 0.546438
445 0.603118
450 0.500067
455 0.624477
460 0.43714
465 0.614663
470 0.664575
475 0.580786
480 0.636407
485 0.527866
490 0.615798
495 0.777782
500 0.78843
505 0.944611
510 1.02688
515 1.21121
520 1.53693
525 2.22317
530 56.0683
535 1121.83
540 1909.4
545 520.994
550 62.816
555 9.21571
560 2.43967
565 1.49953
570 1.17111
575 0.989539
580 1.0114
585 0.951172
590 0.865809
595 0.936673
600 0.806489
Ex : 548
200 0.472137
205 0.392742
210 0.531172
215 0.389763
220 0.382226
225 0.42008
230 0.338223
235 0.434664
240 0.355857
245 0.369485
250 0.378473
255 0.329632
260 0.450274
265 0.359408
270 0.40949
275 0.35029
280 0.412321
285 0.473269
290 0.350092
295 0.380333
300 0.315462
305 0.414528
310 0.301333
315 0.417012
320 0.483726
325 0.415807
330 0.371575
335 0.493474
340 0.414979
345 0.54737
350 0.390821
355 0.373933
360 0.386602
365 0.409195
370 0.371427
375 0.521609
380 0.456322
385 0.430506
390 0.408528
395 0.392489
400 0.523498
405 0.488016
410 0.412127
415 0.54367
420 0.583516
425 0.544069
430 0.510565
435 0.501513
440 0.583646
445 0.532502
450 0.739861
455 0.70736
460 0.715971
465 0.617194
470 0.549961
475 0.571243
480 0.621704
485 0.619993
490 0.643877
495 0.632617
500 0.664491
505 0.771902
510 0.871584
515 0.966003
520 1.23517
525 1.51369
530 2.32816
535 64.9018
540 1152.47
545 1894.44
550 521.314
555 62.5579
560 8.97305
565 2.52346
570 1.48767
575 1.19433
580 0.927869
585 0.96684
590 0.926426
595 1.02547
600 0.582848
Ex : 553
200 0.412564
205 0.366742
210 0.313273
215 0.404933
220 0.524788
225 0.439356
230 0.330863
235 0.320913
240 0.488374
245 0.411229
250 0.457897
255 0.36224
260 0.352878
265 0.405656
270 0.414904
275 0.515434
280 0.385648
285 0.385167
290 0.396602
295 0.436404
300 0.503677
305 0.405578
310 0.393877
315 0.333212
320 0.449247
325 0.34443
330 0.46778
335 0.373608
340 0.405239
345 0.475026
350 0.451828
355 0.468004
360 0.431427
365 0.491172
370 0.495116
375 0.413808
380 0.607332
385 0.4106
390 0.427059
395 0.374574
400 0.473641
405 0.581657
410 0.506593
415 0.564271
420 0.545301
425 0.508424
430 0.61183
435 0.486233
440 0.574144
445 0.595039
450 0.456359
455 0.457507
460 0.733297
465 0.567724
470 0.649617
475 0.584925
480 0.546525
485 0.615063
490 0.66557
495 0.589296
500 0.696333
505 0.829771
510 0.762354
515 0.906611
520 1.12055
525 1.23412
530 1.63433
535 2.27742
540 54.847
545 1076.89
550 1851.64
555 525.254
560 63.151
565 8.86974
570 2.25553
575 1.41234
580 1.09329
585 0.89845
590 0.69061
595 0.891316
600 1.0118
Ex : 558
200 0.422318
205 0.331021
210 0.47663
215 0.474124
220 0.352617
225 0.455278
230 0.429898
235 0.387431
240 0.462111
245 0.443749
250 0.448991
255 0.437333
260 0.517009
265 0.488225
270 0.454613
275 0.401203
280 0.415556
285 0.40177
290 0.47372
295 0.36497
300 0.488194
305 0.45321
310 0.487159
315 0.473145
320 0.427495
325 0.452788
330 0.386768
335 0.385372
340 0.417382
345 0.331382
350 0.387084
355 0.393988
360 0.566497
365 0.424206
370 0.455064
375 0.442726
380 0.676569
385 0.582752
390 0.579158
395 0.528313
400 0.555394
405 0.436445
410 0.524097
415 0.49632
420 0.503002
425 0.405127
430 0.665902
435 0.527938
440 0.502322
445 0.55657
450 0.567214
455 0.504416
460 0.493336
465 0.653646
470 0.647902
475 0.653589
480 0.543931
485 0.607487
490 0.501559
495 0.513987
500 0.610666
505 0.650657
510 0.837019
515 0.740156
520 0.835462
525 0.955331
530 1.10137
535 1.42517
540 2.28721
545 51.1006
550 1024.46
555 1816.02
560 514.759
565 61.9368
570 8.60629
575 2.21778
580 1.18978
585 1.01248
590 0.796555
595 0.929503
600 0.89228
Ex : 563
200 0.474198
205 0.417792
210 0.371718
215 0.312775
220 0.376126
225 0.479916
230 0.424289
235 0.389099
240 0.436858
245 0.392904
250 0.482828
255 0.338573
260 0.335329
265 0.439988
270 0.417735
275 0.542314
280 0.418507
285 0.445689
290 0.480942
295 0.440201
300 0.518738
305 0.558814
310 0.431544
315 0.40889
320 0.430584
325 0.466671
330 0.430902
335 0.44904
340 0.433692
345 0.514038
350 0.497641
355 0.417429
360 0.435182
365 0.446955
370 0.423907
375 0.460152
380 0.493555
385 0.520956
390 0.474229
395 0.533423
400 0.388632
405 0.581066
410 0.49395
415 0.419088
420 0.457128
425 0.509011
430 0.454085
435 0.48791
440 0.553279
445 0.644174
450 0.516952
455 0.522439
460 0.48186
465 0.601571
470 0.531192
475 0.519253
480 0.502191
485 0.520378
490 0.696767
495 0.723155
500 0.752715
505 0.727807
510 0.670226
515 0.724985
520 0.857043
525 0.79661
530 1.08335
535 1.14341
540 1.6115
545 2.3503
550 48.9328
555 994.201
560 1734.19
565 505.347
570 60.6062
575 8.63833
580 2.05371
585 1.21836
590 1.06265
595 0.879498
600 0.832906
Ex : 568
200 0.506963
205 0.564193
210 0.421131
215 0.533865
220 0.345978
225 0.383555
230 0.493895
235 0.584569
240 0.495542
245 0.612457
250 0.528327
255 0.479387
260 0.468929
265 0.426936
270 0.399044
275 0.46391
280 0.428144
285 0.563744
290 0.459453
295 0.396303
300 0.430428
305 0.48183
310 0.340192
315 0.44989
320 0.652398
325 0.55466
330 0.50015
335 0.580232
340 0.456036
345 0.438681
350 0.490222
355 0.529707
360 0.555219
365 0.587823
370 0.46605
375 0.497681
380 0.493444
385 0.498835
390 0.438675
395 0.525802
400 0.628544
405 0.614543
410 0.588118
415 0.490895
420 0.502324
425 0.392445
430 0.524309
435 0.571264
440 0.57129
445 0.565536
450 0.531721
455 0.600617
460 0.469521
465 0.591587
470 0.578187
475 0.621942
480 0.592854
485 0.665328
490 0.529365
495 0.523543
500 0.686428
505 0.615219
510 0.766631
515 0.632207
520 0.671039
525 0.960745
530 0.940862
535 0.955652
540 1.24352
545 1.52484
550 2.19249
555 37.6382
560 900.323
565 1673.91
570 503.15
575 60.9901
580 8.37928
585 1.99653
590 1.19259
595 1.10528
600 1.23353
Ex : 573
200 0.5291
205 0.490375
210 0.467574
215 0.394134
220 0.455823
225 0.505154
230 0.417101
235 0.459014
240 0.448207
245 0.5071
250 0.465894
255 0.524198
260 0.458227
265 0.433228
270 0.535868
275 0.392297
280 0.434531
285 0.562567
290 0.60913
295 0.443696
300 0.399387
305 0.363185
310 0.603091
315 0.528368
320 0.454506
325 0.494463
330 0.389288
335 0.45253
340 0.456064
345 0.41983
350 0.573891
355 0.546107
360 0.378749
365 0.415456
370 0.454717
375 0.598338
380 0.467834
385 0.435292
390 0.41619
395 0.454036
400 0.476953
405 0.673796
410 0.47461
415 0.424019
420 0.490054
425 0.435732
430 0.577514
435 0.506732
440 0.605042
445 0.561107
450 0.64898
455 0.642874
460 0.607065
465 0.604728
470 0.620129
475 0.579443
480 0.574357
485 0.554567
490 0.662526
495 0.651772
500 0.581498
505 0.681283
510 0.698563
515 0.662454
520 0.868236
525 0.712839
530 0.769388
535 0.794852
540 0.996956
545 1.1657
550 1.35704
555 2.10004
560 32.7237
565 784.97
570 1572
575 485.071
580 58.9772
585 7.96487
590 1.99557
595 1.1777
600 1.5206
Ex : 578
200 0.386364
205 0.474649
210 0.396693
215 0.362271
220 0.449797
225 0.420882
230 0.397136
235 0.381994
240 0.407086
245 0.460521
250 0.367299
255 0.465324
260 0.577062
265 0.481737
270 0.3754
275 0.371698
280 0.546964
285 0.367397
290 0.52046
295 0.473411
300 0.534895
305 0.421915
310 0.435494
315 0.48165
320 0.483743
325 0.389909
330 0.3956
335 0.502231
340 0.645582
345 0.558428
350 0.500725
355 0.532998
360 0.491755
365 0.57709
370 0.524621
375 0.590362
380 0.479846
385 0.396252
390 0.514931
395 0.542841
400 0.477879
405 0.442364
410 0.545273
415 0.478044
420 0.536562
425 0.544429
430 0.498638
435 0.588198
440 0.471797
445 0.523786
450 0.598821
455 0.497471
460 0.557418
465 0.570659
470 0.511158
475 0.494807
480 0.550174
485 0.727817
490 0.580878
495 0.4774
500 0.595961
505 0.636239
510 0.55511
515 0.500205
520 0.617774
525 0.810043
530 0.859546
535 0.679102
540 0.8164
545 0.876449
550 1.05963
555 1.56525
560 1.90748
565 29.9187
570 713.396
575 1382.48
580 420.777
585 50.659
590 6.88595
595 1.79913
600 1.35742
Ex : 583
200 0.503825
205 0.545279
210 0.494208
215 0.452831
220 0.45352
225 0.449937
230 0.538621
235 0.430267
240 0.519106
245 0.39406
250 0.584397
255 0.333005
260 0.427971
265 0.44108
270 0.458812
275 0.367825
280 0.37228
285 0.43882
290 0.386565
295 0.502376
300 0.421466
305 0.435637
310 0.504972
315 0.46885
320 0.449517
325 0.344933
330 0.435679
335 0.446748
340 0.503631
345 0.485364
350 0.499475
355 0.468045
360 0.411313
365 0.413748
370 0.548172
375 0.455098
380 0.639792
385 0.6803
390 0.499148
395 0.462756
400 0.481434
405 0.455293
410 0.49734
415 0.513203
420 0.502114
425 0.673622
430 0.423838
435 0.497338
440 0.500688
445 0.540666
450 0.670488
455 0.531053
460 0.690331
465 0.636232
470 0.621963
475 0.49807
480 0.629944
485 0.577957
490 0.622912
495 0.760714
500 0.589707
505 0.575918
510 0.50278
515 0.591481
520 0.77335
525 0.655437
530 0.751667
535 0.676289
540 0.812281
545 0.799083
550 0.922789
555 1.21052
560 1.48542
565 1.83301
570 24.8711
575 632.902
580 1192.67
585 344.191
590 41.6989
595 5.94696
600 1.55652
Ex : 588
200 0.506599
205 0.478121
210 0.45501
215 0.447775
220 0.449173
225 0.37689
230 0.310608
235 0.362866
240 0.482351
245 0.416783
250 0.520722
255 0.488222
260 0.517857
265 0.465016
270 0.508391
275 0.439687
280 0.432245
285 0.447948
290 0.356671
295 0.553529
300 0.441141
305 0.424981
310 0.449267
315 0.498368
320 0.433235
325 0.4883
330 0.474453
335 0.533062
340 0.423449
345 0.431601
350 0.481475
355 0.458954
360 0.494705
365 0.540495
370 0.500024
375 0.483907
380 0.508305
385 0.387524
390 0.415926
395 0.486235
400 0.522866
405 0.566283
410 0.43107
415 0.449026
420 0.579791
425 0.440723
430 0.619651
435 0.407585
440 0.590867
445 0.539533
450 0.583241
455 0.649577
460 0.46596
465 0.656009
470 0.63778
475 0.504337
480 0.695245
485 0.521356
490 0.7453
495 0.661303
500 0.480389
505 0.68025
510 0.573721
515 0.663675
520 0.589972
525 0.573064
530 0.498873
535 0.528561
540 0.626085
545 0.728373
550 0.886399
555 0.939668
560 0.942248
565 1.12086
570 1.6762
575 22.0734
580 525.455
585 1016.49
590 305.503
595 37.1838
600 5.62305
Ex : 593
200 0.580236
205 0.61204
210 0.481942
215 0.404153
220 0.485737
225 0.444755
230 0.479949
235 0.415273
240 0.364671
245 0.437923
250 0.552246
255 0.52294
260 0.427833
265 0.493351
270 0.55295
275 0.474007
280 0.401821
285 0.497693
290 0.454473
295 0.512147
300 0.471382
305 0.55497
310 0.586429
315 0.422761
320 0.424153
325 0.627866
330 0.598524
335 0.495166
340 0.531944
345 0.442427
350 0.444944
355 0.486339
360 0.610766
365 0.511203
370 0.440589
375 0.528158
380 0.464192
385 0.658426
390 0.542362
395 0.528705
400 0.52939
405 0.693878
410 0.4053
415 0.469858
420 0.54918
425 0.359156
430 0.681257
435 0.536708
440 0.533553
445 0.491683
450 0.494308
455 0.519549
460 0.525978
465 0.531236
470 0.51957
475 0.766805
480 0.637074
485 0.674938
490 0.544812
495 0.531349
500 0.628785
505 0.542952
510 0.550974
515 0.511145
520 0.608996
525 0.60763
530 0.67014
535 0.745046
540 0.571427
545 0.737148
550 0.716676
555 0.766675
560 0.893273
565 0.744826
570 1.05769
575 1.42528
580 19.2303
585 466.367
590 881.357
595 263.13
600 39.9251
Ex : 598
200 0.527424
205 0.453542
210 0.54594
215 0.487456
220 0.507886
225 0.534409
230 0.457113
235 0.460705
240 0.535215
245 0.514752
250 0.458764
255 0.458988
260 0.451135
265 0.528524
270 0.518168
275 0.497521
280 0.515899
285 0.471684
290 0.441701
295 0.590464
300 0.464682
305 0.462901
310 0.457847
315 0.452306
320 0.540684
325 0.590386
330 0.629188
335 0.486594
340 0.498474
345 0.543047
350 0.508964
355 0.481118
360 0.417818
365 0.611729
370 0.532115
375 0.472688
380 0.629909
385 0.640991
390 0.497358
395 0.566846
400 0.505457
405 0.539949
410 0.521615
415 0.568615
420 0.489242
425 0.434493
430 0.507747
435 0.702432
440 0.472982
445 0.5389
450 0.495796
455 0.639507
460 0.510537
465 0.777514
470 0.567121
475 0.582162
480 0.613319
485 0.565065
490 0.542587
495 0.521174
500 0.512482
505 0.567868
510 0.599636
515 0.543504
520 0.633643
525 0.737969
530 0.690465
535 0.676017
540 0.705139
545 0.76032
550 0.68486
555 0.815175
560 0.629753
565 0.933308
570 0.782879
575 1.06536
580 1.47532
585 18.4982
590 419.925
595 765.649
600 486.715
Ex : 603
200 0.412517
205 0.500839
210 0.495814
215 0.50992
220 0.523132
225 0.443886
230 0.726041
235 0.46092
240 0.470279
245 0.478095
250 0.511911
255 0.582024
260 0.432636
265 0.423682
270 0.497787
275 0.389578
280 0.718105
285 0.595784
290 0.48836
295 0.441553
300 0.332895
305 0.458466
310 0.580917
315 0.579884
320 0.539445
325 0.601205
330 0.54055
335 0.447605
340 0.524066
345 0.493338
350 0.473661
355 0.463951
360 0.549594
365 0.539094
370 0.550695
375 0.542268
380 0.631525
385 0.551117
390 0.512452
395 0.587207
400 0.58234
405 0.559777
410 0.429718
415 0.666498
420 0.498679
425 0.419734
430 0.593716
435 0.493626
440 0.635315
445 0.576234
450 0.605235
455 0.655665
460 0.755989
465 0.511981
470 0.556594
475 0.691402
480 0.52429
485 0.703339
490 0.603826
495 0.673065
500 0.608742
505 0.686565
510 0.634883
515 0.542781
520 0.545069
525 0.448454
530 0.749676
535 0.632159
540 0.671986
545 0.621194
550 0.768802
555 0.691148
560 0.542895
565 0.82287
570 0.91814
575 0.93381
580 0.899898
585 1.25555
590 16.492
595 354.689
600 738.03
