File format V 1.0
jeu. 5. janv. 18:06:39 2017
Operator : 
Comments : 

=============================================
SpectroFluorometer parameters
Mode : 3D measurement
Data : Fluorescence
Phospho. : Ordinary
Spectrum : Fluorescence

Scan speed : 2400 nm/mn
Response : 100 ms
PM Voltage : 700 V
Shutter : On

Lambda Ex. Start : 203
Lambda Ex. End : 603
Lambda Ex. Step : 5
Ex. Slit : 5 nm

Lambda Em. Start : 200
Lambda Em. End : 600
Lambda Em. Step : 5
Em. Slit : 5 nm

Repetition : 1
Decal lambda em : 10
=============================================
DATA
Ex : 203
200 3.2659
205 4.93982
210 4.07674
215 3.28078
220 4.76519
225 4.78843
230 4.85407
235 4.46973
240 3.38165
245 2.36521
250 3.99811
255 3.96655
260 4.60115
265 5.18752
270 6.66441
275 4.68375
280 2.52969
285 4.75626
290 6.86317
295 5.30531
300 3.53252
305 6.20029
310 5.56387
315 5.37031
320 5.59602
325 5.64155
330 4.60829
335 5.39853
340 4.65338
345 6.62476
350 5.41584
355 4.87008
360 5.57602
365 9.05346
370 6.07089
375 6.21297
380 5.45266
385 7.22873
390 8.85681
395 6.26535
400 5.53786
405 5.54505
410 4.18718
415 4.17248
420 4.85749
425 4.79598
430 3.4081
435 6.42661
440 7.62286
445 5.22583
450 4.00316
455 2.99599
460 3.78259
465 7.32198
470 4.69774
475 6.00498
480 4.01612
485 4.98767
490 2.74281
495 3.57656
500 3.796
505 4.22036
510 4.95792
515 3.2017
520 5.79171
525 5.61301
530 6.43149
535 6.0491
540 6.63541
545 4.78462
550 3.66588
555 2.85155
560 6.69995
565 6.39243
570 6.54378
575 3.38655
580 4.12527
585 4.70293
590 8.05806
595 5.37361
600 0.611496
Ex : 208
200 5.33854
205 5.02231
210 5.24473
215 5.32996
220 3.86669
225 3.0297
230 7.10761
235 3.3711
240 4.44367
245 3.90529
250 4.22946
255 3.92598
260 4.35845
265 4.59594
270 5.60521
275 4.32955
280 4.14427
285 8.32158
290 4.34094
295 2.75754
300 6.41553
305 7.42934
310 2.7474
315 4.60732
320 3.77855
325 5.42445
330 5.85931
335 4.88679
340 4.25588
345 5.63298
350 5.28374
355 3.8524
360 4.56571
365 2.79627
370 3.43674
375 3.75485
380 4.50383
385 5.40265
390 4.91108
395 8.02048
400 8.78395
405 9.8354
410 7.87464
415 4.16787
420 3.16294
425 6.89705
430 5.05668
435 5.52253
440 5.88798
445 4.64529
450 3.60972
455 3.06938
460 6.06377
465 5.61857
470 5.50054
475 5.43976
480 6.50114
485 4.21158
490 5.06667
495 6.56591
500 4.74024
505 4.24122
510 5.70376
515 5.35072
520 5.26826
525 4.34287
530 3.52249
535 7.76197
540 4.38173
545 7.4662
550 4.56467
555 10.0118
560 4.77964
565 6.16869
570 4.34583
575 6.31745
580 5.19861
585 3.21327
590 6.05683
595 3.38746
600 0.38548
Ex : 213
200 6.1
205 4.75386
210 6.08107
215 5.59816
220 2.1655
225 4.85365
230 3.92934
235 3.75986
240 3.92861
245 5.50335
250 2.84692
255 3.34615
260 6.65091
265 6.53093
270 6.38553
275 3.72212
280 4.48997
285 6.82329
290 4.30659
295 3.49029
300 4.2374
305 5.60416
310 7.08822
315 3.12438
320 2.80852
325 2.70037
330 7.85566
335 6.49514
340 5.08644
345 6.07977
350 6.29784
355 5.28813
360 4.87981
365 4.24211
370 4.0424
375 4.49591
380 4.76746
385 3.59128
390 4.12567
395 5.74525
400 4.98742
405 5.98722
410 4.26575
415 5.80265
420 5.48028
425 5.65866
430 4.31535
435 5.00415
440 6.13917
445 5.02
450 4.88647
455 5.08778
460 3.99646
465 4.13924
470 4.19309
475 7.16307
480 7.3925
485 7.02452
490 4.74973
495 5.29431
500 5.37553
505 7.07464
510 6.81215
515 4.25342
520 5.26745
525 3.4147
530 4.63457
535 4.72432
540 3.20126
545 7.54445
550 5.72744
555 5.26104
560 2.61698
565 3.92484
570 3.8706
575 5.74767
580 4.91861
585 4.2199
590 5.02376
595 3.99565
600 5.18111
Ex : 218
200 6.11299
205 5.07802
210 3.25503
215 2.96928
220 3.45818
225 4.29492
230 5.62048
235 3.85946
240 4.28106
245 3.31289
250 5.12167
255 3.85418
260 5.04003
265 3.17612
270 3.096
275 4.75742
280 3.02275
285 3.2027
290 2.36209
295 5.48812
300 4.45956
305 4.55401
310 4.88304
315 6.45511
320 4.22271
325 4.69125
330 4.3973
335 2.37182
340 4.14096
345 5.5287
350 8.15157
355 4.89374
360 4.56942
365 6.81836
370 3.65363
375 5.82921
380 7.22023
385 4.23249
390 5.19995
395 2.74125
400 6.21138
405 4.19688
410 6.07175
415 3.8
420 5.03683
425 4.38283
430 6.50583
435 6.48097
440 3.29062
445 4.35478
450 4.15242
455 5.45618
460 6.15203
465 4.09485
470 4.17602
475 5.30691
480 2.94265
485 8.0866
490 4.41765
495 4.6848
500 8.87731
505 6.08443
510 4.4271
515 3.60297
520 5.48134
525 3.75024
530 7.29348
535 4.21463
540 6.14176
545 4.07539
550 5.9417
555 6.6496
560 3.8282
565 4.60839
570 4.99088
575 5.01812
580 3.70423
585 6.45179
590 3.85869
595 2.78553
600 42.8548
Ex : 223
200 5.60428
205 4.66159
210 5.74012
215 4.67002
220 4.02531
225 2.1772
230 3.20342
235 4.40169
240 5.15347
245 4.09809
250 4.77531
255 4.88143
260 3.08822
265 3.53414
270 2.57614
275 2.91238
280 3.62653
285 3.81137
290 3.44874
295 4.01639
300 2.82351
305 5.80686
310 4.69509
315 5.37609
320 4.28182
325 4.58533
330 7.42912
335 2.89767
340 4.55504
345 4.21563
350 3.79795
355 5.88985
360 3.18706
365 4.28113
370 6.3952
375 6.80253
380 4.61764
385 4.22696
390 5.3326
395 5.32995
400 5.99722
405 6.47392
410 5.89513
415 6.2302
420 5.61681
425 6.15909
430 7.37762
435 6.30091
440 3.75021
445 4.95029
450 6.20057
455 5.21368
460 4.76248
465 5.34808
470 6.56157
475 5.85539
480 3.41505
485 2.98749
490 2.75731
495 7.14365
500 4.12955
505 5.34881
510 4.69422
515 6.23051
520 4.76177
525 3.75262
530 4.13091
535 4.76066
540 4.03533
545 3.72899
550 5.30323
555 4.4437
560 4.93193
565 8.63989
570 4.58534
575 6.96644
580 4.12934
585 8.31146
590 4.71218
595 5.24328
600 3.25528
Ex : 228
200 6.18462
205 4.4773
210 3.46203
215 2.22574
220 7.64769
225 4.56279
230 2.15604
235 3.10036
240 4.37627
245 4.33492
250 2.81544
255 2.81993
260 3.96364
265 3.49288
270 5.66312
275 3.88022
280 5.06247
285 4.25876
290 3.54731
295 3.86453
300 2.94673
305 6.86309
310 3.75611
315 2.85646
320 3.23687
325 4.20379
330 3.03273
335 4.45901
340 4.01452
345 4.20895
350 3.37297
355 4.31934
360 3.05755
365 3.80314
370 4.09319
375 3.55017
380 4.76505
385 3.77056
390 3.76758
395 4.74541
400 6.20421
405 5.25488
410 5.93942
415 4.43034
420 4.84987
425 5.479
430 3.9303
435 4.62994
440 4.06679
445 3.93227
450 8.00131
455 4.45084
460 5.90767
465 4.63467
470 5.98605
475 4.1033
480 8.11556
485 4.64275
490 3.49317
495 3.90057
500 4.29793
505 7.46024
510 4.43364
515 5.37106
520 5.12799
525 3.29401
530 3.49247
535 5.29358
540 4.32162
545 3.92225
550 4.30832
555 4.30363
560 5.52227
565 5.44828
570 3.87573
575 3.76317
580 6.06485
585 4.46338
590 4.18614
595 8.74157
600 0.994758
Ex : 233
200 3.51174
205 3.59256
210 1.98478
215 5.50048
220 3.6704
225 3.1421
230 3.56392
235 2.7554
240 4.55137
245 4.26863
250 2.87503
255 4.94656
260 4.47235
265 2.90871
270 3.4218
275 5.81389
280 2.83604
285 3.00933
290 2.39606
295 4.38183
300 3.74661
305 3.60446
310 2.67681
315 2.41044
320 2.69042
325 3.1778
330 5.24877
335 4.07268
340 5.15672
345 7.27283
350 3.295
355 5.58358
360 2.77777
365 5.47667
370 2.82083
375 4.59275
380 5.40324
385 5.80127
390 4.47393
395 3.88351
400 3.84409
405 3.45476
410 4.60489
415 4.66845
420 6.01002
425 4.54046
430 3.64596
435 5.63552
440 5.70835
445 5.42524
450 4.82026
455 4.63439
460 4.26631
465 4.86777
470 5.2224
475 4.64934
480 9.30423
485 5.18216
490 4.96619
495 6.41502
500 4.7332
505 3.69515
510 4.83388
515 3.8701
520 6.31205
525 3.97204
530 5.2666
535 3.57413
540 1.87517
545 3.80719
550 3.0109
555 3.06974
560 2.82008
565 4.36807
570 3.64752
575 4.02071
580 4.15744
585 4.38785
590 4.51173
595 5.35043
600 0.608859
Ex : 238
200 2.79386
205 3.73287
210 5.08556
215 3.35168
220 3.19182
225 3.04679
230 3.24702
235 4.38158
240 4.32652
245 2.10324
250 3.88729
255 3.24293
260 3.64518
265 2.42928
270 3.3197
275 2.62282
280 1.84537
285 4.14868
290 3.06713
295 2.55469
300 3.55227
305 3.82022
310 4.05528
315 3.53712
320 4.54084
325 5.02973
330 3.948
335 3.59812
340 2.08295
345 3.20959
350 3.42243
355 4.27419
360 2.60136
365 5.16604
370 4.12093
375 4.56434
380 5.67166
385 5.21593
390 3.58449
395 3.81155
400 3.59588
405 3.73529
410 2.9347
415 3.65623
420 3.95279
425 3.08479
430 2.69885
435 5.3673
440 3.45514
445 3.42286
450 2.99575
455 3.9811
460 3.59004
465 5.22277
470 5.46641
475 5.07981
480 3.92507
485 3.14025
490 1.82376
495 4.26248
500 2.64832
505 3.93927
510 2.78391
515 3.74637
520 3.68432
525 4.77196
530 3.11086
535 3.15632
540 2.97195
545 5.04342
550 4.92652
555 3.88196
560 2.88081
565 3.63313
570 5.1802
575 3.48979
580 4.11918
585 3.69059
590 5.6351
595 5.62048
600 0.81683
Ex : 243
200 2.19466
205 2.64668
210 2.74963
215 2.71151
220 3.24139
225 2.25778
230 2.54659
235 2.444
240 2.19102
245 3.08589
250 2.82284
255 3.00775
260 3.03357
265 2.60132
270 2.61509
275 2.09451
280 2.69773
285 3.31083
290 1.73934
295 3.65309
300 3.31403
305 3.79737
310 3.552
315 2.61109
320 1.92998
325 1.89203
330 3.10462
335 3.04318
340 3.40321
345 4.10492
350 2.94495
355 3.07523
360 3.06741
365 3.37692
370 3.38848
375 3.70886
380 3.01737
385 3.8569
390 3.02075
395 2.87721
400 4.35892
405 2.78114
410 2.37006
415 5.0292
420 4.17452
425 4.5844
430 2.691
435 3.58833
440 6.47918
445 3.8136
450 3.6901
455 3.53075
460 2.75543
465 3.40446
470 4.70552
475 3.74497
480 3.12184
485 3.62871
490 1.77389
495 3.3956
500 2.5161
505 4.82201
510 3.20376
515 2.58009
520 2.46818
525 3.4665
530 4.46247
535 2.8823
540 4.76637
545 4.08023
550 3.10934
555 3.19235
560 2.73991
565 4.4576
570 3.57565
575 3.65177
580 4.9458
585 2.62711
590 2.85871
595 2.46491
600 0.280497
Ex : 248
200 2.80537
205 4.46667
210 2.18154
215 1.61097
220 3.54789
225 3.34569
230 4.0298
235 2.60443
240 2.39544
245 2.35198
250 3.52297
255 2.48573
260 3.81888
265 3.87425
270 1.64611
275 3.03845
280 1.52737
285 1.37369
290 1.85759
295 1.91563
300 3.15693
305 2.43291
310 1.99519
315 1.83309
320 4.91364
325 2.72872
330 2.23218
335 3.1596
340 3.67925
345 2.91297
350 2.11571
355 3.05046
360 2.51245
365 2.2333
370 2.73962
375 2.70451
380 1.79363
385 3.35728
390 3.21731
395 3.22746
400 3.839
405 2.80989
410 2.65922
415 6.56822
420 3.17207
425 4.53326
430 3.59912
435 5.12501
440 4.13107
445 3.50422
450 3.03326
455 3.30022
460 2.92265
465 2.64623
470 2.20494
475 2.85005
480 2.72371
485 3.52395
490 2.97567
495 2.99132
500 2.8783
505 3.82587
510 3.13052
515 3.2672
520 4.33469
525 2.67724
530 2.58059
535 2.85347
540 4.19045
545 2.88398
550 2.63797
555 1.89947
560 2.98062
565 2.67842
570 5.45949
575 3.37429
580 2.74615
585 2.50733
590 1.99464
595 4.76105
600 0.541789
Ex : 253
200 1.78947
205 3.55611
210 1.51663
215 2.8407
220 2.00555
225 1.68973
230 2.237
235 1.89466
240 2.79184
245 2.85798
250 2.80318
255 2.25926
260 1.95686
265 3.22052
270 1.15283
275 0.902209
280 1.33104
285 2.03903
290 1.76117
295 1.78484
300 1.74444
305 2.57526
310 2.35093
315 0.963123
320 1.64389
325 1.4369
330 1.8345
335 1.43102
340 2.48042
345 3.26268
350 3.48704
355 4.39083
360 2.24689
365 2.26842
370 2.38503
375 1.56492
380 2.15556
385 3.165
390 2.44578
395 1.5266
400 3.10332
405 2.48202
410 2.46405
415 3.14852
420 2.52509
425 3.18162
430 2.25313
435 2.16514
440 2.20249
445 1.68296
450 5.27898
455 4.93384
460 3.01345
465 3.00657
470 2.6022
475 1.10706
480 1.82012
485 1.5484
490 2.81975
495 2.96476
500 3.39014
505 2.80757
510 4.28703
515 2.31983
520 2.18491
525 1.89278
530 2.55108
535 2.68625
540 2.66493
545 1.88452
550 3.08883
555 2.62331
560 1.65506
565 1.97539
570 2.19918
575 1.98261
580 2.22909
585 2.98549
590 2.26315
595 2.4743
600 4.26948
Ex : 258
200 2.40393
205 1.33542
210 1.91074
215 1.94755
220 1.38006
225 1.73274
230 1.73669
235 1.85469
240 1.21923
245 1.90919
250 1.875
255 1.39234
260 2.39296
265 1.51884
270 1.79788
275 1.17942
280 2.55506
285 2.06316
290 1.47467
295 2.1792
300 1.25914
305 1.84903
310 2.13346
315 2.13871
320 1.5898
325 1.62871
330 1.70002
335 1.47331
340 1.40131
345 2.48219
350 1.40269
355 1.4918
360 2.20467
365 2.2699
370 2.64867
375 1.79815
380 1.9379
385 1.60122
390 2.82896
395 1.92854
400 3.10491
405 2.73971
410 1.46106
415 1.68877
420 1.39128
425 2.44359
430 2.70642
435 1.8965
440 1.71842
445 1.75751
450 3.43393
455 2.42648
460 2.29076
465 1.68978
470 1.43571
475 1.98138
480 3.58789
485 1.93795
490 2.18284
495 1.98194
500 1.60801
505 1.95943
510 2.80662
515 2.63903
520 1.69263
525 1.07101
530 1.12821
535 2.05324
540 1.68956
545 2.268
550 1.44286
555 1.1234
560 2.23357
565 2.01874
570 1.68451
575 2.26738
580 1.57335
585 1.45296
590 1.09174
595 1.22219
600 2.35459
Ex : 263
200 1.19377
205 2.14013
210 1.27197
215 1.49385
220 0.867709
225 1.36072
230 1.13194
235 1.03029
240 1.07447
245 1.52682
250 1.02169
255 2.93531
260 1.7669
265 1.30349
270 0.831321
275 1.02825
280 1.05034
285 1.00728
290 1.43923
295 1.99361
300 1.23029
305 1.36846
310 2.20882
315 2.36151
320 1.10977
325 1.44626
330 1.01582
335 1.26118
340 1.96714
345 2.99652
350 1.53713
355 1.89905
360 1.25132
365 1.34609
370 2.11375
375 1.73581
380 1.24094
385 1.35293
390 1.34527
395 1.63897
400 1.28123
405 2.06204
410 1.05538
415 2.07158
420 1.32265
425 0.932731
430 1.40938
435 1.52365
440 1.81124
445 3.18201
450 1.723
455 1.53143
460 2.13406
465 1.34605
470 1.58343
475 1.50087
480 2.17473
485 1.34971
490 2.07421
495 1.77733
500 1.62985
505 1.83369
510 1.73281
515 1.86561
520 2.29655
525 1.88528
530 2.8747
535 1.69442
540 1.22001
545 1.39557
550 1.59399
555 1.13623
560 0.98732
565 1.11844
570 1.43954
575 1.39158
580 1.23852
585 1.25737
590 1.59393
595 1.08134
600 0.123052
Ex : 268
200 1.26069
205 0.862735
210 0.777074
215 1.3269
220 0.850372
225 0.622196
230 0.910497
235 0.906465
240 0.512264
245 0.892009
250 0.650704
255 0.901331
260 1.19751
265 0.835334
270 0.837887
275 0.673944
280 1.05709
285 1.05884
290 0.879211
295 0.833881
300 0.728602
305 1.07199
310 0.757449
315 0.770153
320 1.14816
325 1.07946
330 1.42484
335 1.32436
340 1.61019
345 1.89393
350 1.2036
355 1.1044
360 1.37288
365 1.7584
370 1.64328
375 1.71249
380 1.8599
385 1.23995
390 1.66831
395 1.5705
400 1.24168
405 1.62739
410 1.27107
415 1.86151
420 1.27874
425 0.927533
430 1.94337
435 1.4856
440 1.94643
445 1.35507
450 1.46878
455 2.17289
460 1.31096
465 1.69349
470 1.42662
475 1.35606
480 1.78228
485 1.00722
490 0.97897
495 1.63167
500 1.13161
505 1.36897
510 1.04075
515 1.18886
520 1.73266
525 1.86603
530 2.09768
535 1.38095
540 1.0594
545 1.35885
550 2.06462
555 1.22423
560 1.85974
565 1.19589
570 1.16292
575 0.906712
580 0.83659
585 0.868793
590 1.05333
595 0.912078
600 0.103791
Ex : 273
200 0.70852
205 0.680291
210 0.964614
215 0.681738
220 0.715058
225 1.06452
230 1.08432
235 0.993927
240 0.995299
245 0.719238
250 0.893711
255 1.62937
260 0.815113
265 0.834952
270 0.584396
275 0.65461
280 1.22069
285 0.9641
290 0.88953
295 0.76713
300 0.922431
305 0.371422
310 1.00649
315 0.808859
320 0.686462
325 0.685968
330 0.725288
335 1.0716
340 0.805701
345 1.9483
350 1.39603
355 1.06886
360 0.866003
365 1.37516
370 1.30736
375 1.32709
380 1.24265
385 1.47617
390 1.14531
395 1.32046
400 1.28197
405 1.27869
410 1.72866
415 1.692
420 1.08671
425 1.61732
430 0.754315
435 2.03864
440 1.62545
445 1.43781
450 1.77472
455 1.74814
460 1.24564
465 0.983445
470 0.90499
475 1.04278
480 0.79769
485 0.809044
490 0.805814
495 1.24888
500 0.858474
505 0.892321
510 1.69968
515 1.08859
520 1.23962
525 0.576739
530 1.48274
535 1.34509
540 1.39778
545 1.4675
550 1.01701
555 0.589238
560 0.857424
565 1.10952
570 1.14965
575 0.767691
580 0.571014
585 0.954137
590 0.942477
595 0.546879
600 0.0622327
Ex : 278
200 0.509982
205 1.2391
210 0.68302
215 0.839381
220 0.722226
225 0.503842
230 0.731639
235 1.11919
240 0.78245
245 0.437162
250 0.796875
255 1.08005
260 1.06863
265 0.98989
270 0.735493
275 0.860342
280 0.677095
285 0.522985
290 1.01214
295 0.967614
300 0.768939
305 0.546357
310 0.607717
315 0.581455
320 1.03091
325 0.529856
330 0.973379
335 0.869679
340 0.687607
345 0.529894
350 1.12103
355 0.773036
360 0.965221
365 1.03813
370 0.846088
375 0.72471
380 0.95897
385 0.878532
390 1.0196
395 1.12077
400 1.02256
405 1.21824
410 0.866584
415 0.85156
420 1.26692
425 0.736048
430 1.25584
435 0.935871
440 0.889408
445 0.887334
450 1.26356
455 1.34398
460 1.1451
465 0.98816
470 0.867062
475 1.22523
480 0.61002
485 0.874169
490 0.824031
495 0.718051
500 0.579286
505 1.06757
510 1.13315
515 0.857223
520 0.923643
525 0.917528
530 0.581535
535 0.67615
540 0.936094
545 0.850447
550 1.36278
555 1.20584
560 0.752416
565 0.529138
570 0.726508
575 0.681637
580 0.490967
585 0.75165
590 0.92454
595 1.10086
600 9.05548
Ex : 283
200 0.593985
205 0.569443
210 1.03814
215 0.924269
220 0.280397
225 0.659213
230 0.537819
235 0.648866
240 0.515931
245 0.563485
250 0.533129
255 1.11504
260 0.696541
265 0.61734
270 0.773126
275 0.350086
280 0.443021
285 0.552997
290 0.983912
295 0.865374
300 0.831681
305 0.442435
310 0.5707
315 0.544943
320 0.6251
325 0.835266
330 0.666099
335 0.870189
340 0.838307
345 1.02952
350 0.76668
355 0.851191
360 0.805825
365 0.63613
370 0.966583
375 0.763021
380 0.714973
385 0.887861
390 0.932941
395 0.853396
400 1.15678
405 1.64958
410 0.937786
415 0.518026
420 0.724933
425 1.07402
430 1.19248
435 0.883351
440 0.708011
445 0.844399
450 1.10045
455 1.01277
460 1.00745
465 0.921866
470 0.71417
475 0.583679
480 0.655666
485 0.501253
490 0.610918
495 1.43021
500 0.715366
505 0.570185
510 0.78115
515 0.733833
520 0.415076
525 0.687308
530 0.74591
535 0.728126
540 0.410956
545 0.705357
550 0.732086
555 0.523401
560 0.53455
565 1.04179
570 0.704032
575 0.740753
580 0.541191
585 0.8002
590 0.395526
595 0.895151
600 0.515426
Ex : 288
200 0.374921
205 0.430906
210 0.855985
215 0.646224
220 0.552794
225 0.409804
230 0.483527
235 0.474038
240 0.346173
245 0.747792
250 0.613896
255 0.328706
260 0.445518
265 0.275203
270 0.42098
275 0.445999
280 0.483524
285 0.658588
290 0.383559
295 0.383846
300 0.506072
305 0.510178
310 0.410409
315 0.40919
320 0.48715
325 0.620251
330 0.661385
335 0.431427
340 0.774943
345 0.590349
350 0.726238
355 0.689168
360 0.838668
365 0.626369
370 1.02759
375 0.546104
380 0.461631
385 0.893618
390 0.834159
395 0.626985
400 0.971718
405 0.602227
410 0.830068
415 0.853981
420 0.496166
425 0.767558
430 1.02373
435 1.31796
440 0.677242
445 0.678721
450 0.591189
455 0.658642
460 0.732022
465 0.837719
470 0.690279
475 0.628783
480 0.996871
485 0.883929
490 0.527444
495 0.798524
500 0.646299
505 0.696561
510 0.409629
515 0.58865
520 0.4071
525 0.444978
530 0.393355
535 0.579765
540 0.624681
545 0.67292
550 0.461833
555 0.389257
560 0.477353
565 0.553888
570 0.71029
575 0.74296
580 0.4378
585 0.565368
590 0.536233
595 0.837356
600 0.0952879
Ex : 293
200 0.455656
205 0.364546
210 0.417608
215 0.345943
220 0.445444
225 0.369533
230 0.41876
235 0.404524
240 0.480992
245 0.30746
250 0.338748
255 0.570932
260 0.730098
265 0.428301
270 0.654009
275 0.372211
280 0.651325
285 0.463055
290 0.539089
295 0.258015
300 0.313062
305 0.248582
310 0.359659
315 0.572935
320 0.587977
325 0.66185
330 0.777718
335 0.674715
340 0.482065
345 0.550369
350 0.662036
355 0.463797
360 0.87882
365 0.692236
370 0.605325
375 0.616987
380 0.614717
385 0.826141
390 0.458159
395 0.883908
400 0.922285
405 0.445035
410 0.48868
415 0.621729
420 0.529148
425 0.554297
430 0.665486
435 0.546302
440 0.750476
445 0.544685
450 0.59695
455 0.627412
460 0.507375
465 0.550709
470 0.797465
475 0.486793
480 0.422857
485 0.341781
490 0.608732
495 0.671757
500 0.46622
505 0.353373
510 0.559959
515 0.549827
520 0.651308
525 0.559453
530 0.53049
535 0.532724
540 0.574212
545 0.401996
550 0.30355
555 0.354361
560 0.301337
565 0.224056
570 0.584024
575 0.675785
580 0.979817
585 0.622568
590 0.629164
595 0.765272
600 0.52034
Ex : 298
200 0.429363
205 0.290214
210 0.152074
215 0.295021
220 0.444012
225 0.407994
230 0.371106
235 0.331012
240 0.449606
245 0.347929
250 0.229701
255 0.444913
260 0.353195
265 0.283836
270 0.396701
275 0.373829
280 0.460398
285 0.39553
290 0.382865
295 0.364428
300 0.280433
305 0.352306
310 0.300401
315 0.423381
320 0.272519
325 0.597151
330 0.546487
335 0.73946
340 0.72645
345 0.643571
350 0.57417
355 0.555169
360 0.369559
365 0.417628
370 0.393169
375 0.71428
380 0.567145
385 0.607656
390 0.458616
395 0.511306
400 0.670976
405 0.91401
410 0.97794
415 0.640862
420 0.835302
425 0.781707
430 0.644137
435 0.713154
440 0.587144
445 0.604689
450 0.619482
455 0.587516
460 0.659032
465 0.842984
470 0.492669
475 0.660577
480 0.413339
485 0.576082
490 0.47486
495 0.550262
500 0.542904
505 0.444178
510 0.391267
515 0.416747
520 0.444434
525 0.380697
530 0.428154
535 0.343023
540 0.311999
545 0.383302
550 0.331282
555 0.326452
560 0.39861
565 0.40272
570 0.438272
575 0.307588
580 0.584041
585 0.506241
590 0.451568
595 0.613258
600 0.427676
Ex : 303
200 0.181854
205 0.294307
210 0.225335
215 0.212979
220 0.254936
225 0.227409
230 0.275889
235 0.22626
240 0.201068
245 0.271559
250 0.205571
255 0.391481
260 0.312977
265 0.410645
270 0.418606
275 0.162732
280 0.379112
285 0.384785
290 0.327014
295 0.322166
300 0.386366
305 0.21856
310 0.451178
315 0.313071
320 0.18005
325 0.286813
330 0.631024
335 0.54847
340 0.575404
345 0.321628
350 0.423554
355 0.370747
360 0.663101
365 0.513347
370 0.845875
375 0.536128
380 0.702608
385 0.800927
390 0.631694
395 0.812167
400 0.581754
405 0.487728
410 0.507159
415 0.639384
420 0.740099
425 0.719813
430 0.597072
435 0.71702
440 0.523806
445 0.583855
450 0.654258
455 0.403176
460 0.574623
465 0.565914
470 0.632341
475 0.551333
480 0.498735
485 0.384187
490 0.439009
495 0.701316
500 0.388798
505 0.549174
510 0.373661
515 0.425265
520 0.322116
525 0.504671
530 0.389441
535 0.477588
540 0.455702
545 0.349876
550 0.306033
555 0.568883
560 0.322678
565 0.296451
570 0.338323
575 0.27752
580 0.386062
585 0.271356
590 0.293287
595 0.404526
600 2.65958
Ex : 308
200 0.440678
205 0.39047
210 0.319311
215 0.265246
220 0.203937
225 0.57565
230 0.215817
235 0.214125
240 0.248821
245 0.229146
250 0.286906
255 0.267516
260 0.297958
265 0.284287
270 0.42325
275 0.20157
280 0.33843
285 0.158807
290 0.193631
295 0.240931
300 0.387349
305 0.381351
310 0.331405
315 0.317877
320 0.430667
325 0.352957
330 0.309388
335 0.318767
340 0.411917
345 0.333523
350 0.428889
355 0.349309
360 0.514358
365 0.596863
370 0.47411
375 0.47229
380 0.517384
385 0.630983
390 0.559853
395 0.56153
400 0.78202
405 0.606203
410 0.624765
415 0.400817
420 0.485735
425 0.587499
430 0.606229
435 0.463925
440 0.44847
445 0.521322
450 0.503211
455 0.521258
460 0.41623
465 0.373598
470 0.397058
475 0.353714
480 0.36066
485 0.31142
490 0.452035
495 0.436476
500 0.353502
505 0.35977
510 0.396174
515 0.325508
520 0.348704
525 0.448626
530 0.246903
535 0.288726
540 0.248175
545 0.251115
550 0.241686
555 0.194935
560 0.278699
565 0.342446
570 0.392148
575 0.272488
580 0.329427
585 0.274183
590 0.383686
595 0.441022
600 0.0501867
Ex : 313
200 0.210607
205 0.354729
210 0.262599
215 0.22739
220 0.198018
225 0.323395
230 0.276123
235 0.15607
240 0.271589
245 0.407142
250 0.283596
255 0.213063
260 0.328853
265 0.191449
270 0.255214
275 0.15079
280 0.330259
285 0.255165
290 0.26399
295 0.215691
300 0.234793
305 0.493113
310 0.373675
315 0.190907
320 0.370111
325 0.360179
330 0.334006
335 0.500939
340 0.470273
345 0.43117
350 0.440746
355 0.460263
360 0.431555
365 0.509048
370 0.505935
375 0.638284
380 0.678129
385 0.710171
390 0.715964
395 0.683315
400 0.901133
405 0.836183
410 0.605021
415 0.670968
420 0.774823
425 0.678246
430 1.03145
435 0.588059
440 0.705511
445 0.789411
450 0.761412
455 0.674102
460 0.505554
465 0.655615
470 0.55744
475 0.518742
480 0.51257
485 0.558379
490 0.473318
495 0.419428
500 0.386347
505 0.34174
510 0.369782
515 0.297826
520 0.452339
525 0.368619
530 0.207405
535 0.28185
540 0.210627
545 0.339927
550 0.271201
555 0.312972
560 0.276559
565 0.369321
570 0.228324
575 0.235369
580 0.308746
585 0.275811
590 0.238512
595 0.269799
600 0.295412
Ex : 318
200 0.264911
205 0.119805
210 0.248331
215 0.295047
220 0.245761
225 0.239188
230 0.166255
235 0.266714
240 0.224405
245 0.310051
250 0.164105
255 0.190269
260 0.130236
265 0.207165
270 0.199749
275 0.136861
280 0.193106
285 0.299971
290 0.256599
295 0.15038
300 0.266926
305 0.205828
310 0.381659
315 0.720917
320 0.606789
325 0.597957
330 0.499548
335 0.63999
340 1.01844
345 1.19288
350 1.62906
355 2.15387
360 2.97227
365 3.05888
370 3.60329
375 4.74464
380 5.4115
385 5.85586
390 6.81069
395 6.3333
400 7.00113
405 7.42704
410 7.38591
415 7.49173
420 6.88457
425 7.4313
430 6.4389
435 6.38368
440 5.70544
445 6.46529
450 5.21953
455 5.53486
460 4.82906
465 4.75731
470 4.04754
475 3.82329
480 3.45928
485 2.57691
490 2.31591
495 2.3596
500 2.24795
505 1.56237
510 1.57878
515 1.504
520 1.17298
525 0.850409
530 0.975419
535 0.849098
540 0.69652
545 0.603927
550 0.609075
555 0.464493
560 0.516084
565 0.309669
570 0.357122
575 0.257987
580 0.319964
585 0.222497
590 0.125492
595 0.284747
600 0.205569
Ex : 323
200 0.137434
205 0.191856
210 0.170682
215 0.247175
220 0.262597
225 0.134167
230 0.220009
235 0.128487
240 0.227931
245 0.212045
250 0.272001
255 0.170062
260 0.255043
265 0.209925
270 0.125132
275 0.16796
280 0.181443
285 0.145716
290 0.200097
295 0.234149
300 0.338813
305 0.380698
310 0.314718
315 8.19544
320 40.2806
325 17.4921
330 3.82262
335 3.17509
340 4.05114
345 5.53927
350 7.9862
355 10.8087
360 13.7933
365 15.4451
370 17.7771
375 21.6284
380 24.5923
385 26.9628
390 29.6935
395 31.4843
400 31.9925
405 32.7247
410 33.8508
415 32.9588
420 33.3481
425 31.5356
430 30.7826
435 28.8792
440 28.463
445 26.7858
450 25.1072
455 24.6758
460 22.7024
465 20.6665
470 18.1758
475 17.3059
480 15.2346
485 14.4171
490 12.4805
495 10.9173
500 9.79347
505 8.55917
510 7.59483
515 6.33449
520 5.89274
525 4.48007
530 3.86903
535 3.22981
540 2.85824
545 2.40884
550 2.21873
555 1.70322
560 1.44356
565 1.20446
570 1.10758
575 0.883023
580 0.483534
585 0.613227
590 0.424436
595 0.301469
600 0.0343061
Ex : 328
200 0.187095
205 0.176711
210 0.183459
215 0.16304
220 0.199849
225 0.195334
230 0.186723
235 0.168337
240 0.180845
245 0.252007
250 0.202218
255 0.19322
260 0.0982847
265 0.171381
270 0.215533
275 0.244324
280 0.207177
285 0.217929
290 0.207038
295 0.306267
300 0.185795
305 0.203072
310 0.224589
315 2.07458
320 99.2055
325 249.152
330 75.6169
335 12.4671
340 6.53677
345 6.80625
350 8.68177
355 13.0125
360 18.0552
365 21.2262
370 22.4052
375 24.576
380 28.0915
385 32.1071
390 34.8454
395 37.3653
400 36.7997
405 40.1852
410 40.0544
415 39.7845
420 38.0257
425 36.7253
430 35.5309
435 33.5415
440 32.8656
445 30.8725
450 28.675
455 27.2572
460 24.715
465 23.2021
470 21.3128
475 19.6957
480 18.1545
485 15.558
490 14.0727
495 12.9896
500 10.9114
505 9.81466
510 8.3334
515 7.59397
520 6.83272
525 5.63392
530 4.94859
535 4.00657
540 3.49731
545 3.29073
550 2.84655
555 2.36564
560 1.8992
565 1.58422
570 1.37176
575 1.0216
580 0.685377
585 0.620783
590 0.547652
595 0.4036
600 0.0540585
Ex : 333
200 0.24125
205 0.127531
210 0.194577
215 0.142829
220 0.160066
225 0.197917
230 0.214439
235 0.271683
240 0.274592
245 0.179006
250 0.142201
255 0.218668
260 0.186362
265 0.245007
270 0.217479
275 0.171338
280 0.26483
285 0.164447
290 0.216134
295 0.155663
300 0.183789
305 0.23628
310 0.297522
315 0.359487
320 13.5269
325 290.439
330 502.94
335 134.14
340 19.6473
345 6.86896
350 6.06026
355 7.02846
360 9.90986
365 14.5689
370 15.2976
375 14.8829
380 16.7589
385 19.2773
390 22.585
395 23.6091
400 24.5003
405 24.0559
410 24.9055
415 24.1443
420 23.3871
425 21.9521
430 21.7807
435 21.0937
440 19.7012
445 18.5087
450 17.1663
455 15.997
460 14.6396
465 13.4891
470 12.3108
475 11.6314
480 9.78024
485 9.04948
490 8.38036
495 7.1646
500 6.67521
505 5.92024
510 5.20264
515 4.59943
520 4.10574
525 3.31526
530 3.02463
535 2.43673
540 2.40187
545 1.80883
550 1.80544
555 1.5868
560 1.33086
565 1.121
570 0.928414
575 0.7856
580 0.709933
585 0.44762
590 0.498781
595 0.417228
600 0.121329
Ex : 338
200 0.237222
205 0.152431
210 0.208786
215 0.164326
220 0.178992
225 0.126758
230 0.171164
235 0.101519
240 0.209486
245 0.165695
250 0.195012
255 0.185477
260 0.185572
265 0.218227
270 0.200513
275 0.182379
280 0.209386
285 0.161522
290 0.21195
295 0.166402
300 0.225632
305 0.259593
310 0.223502
315 0.281072
320 0.361669
325 26.5193
330 444.657
335 673.52
340 167.389
345 22.5234
350 6.53672
355 4.69533
360 4.20221
365 6.42659
370 10.3223
375 10.6092
380 9.65946
385 10.912
390 12.8017
395 14.2145
400 13.7823
405 14.154
410 15.0139
415 15.2269
420 15.271
425 14.2734
430 13.092
435 13.1157
440 12.1265
445 11.6216
450 10.654
455 9.31011
460 8.38094
465 8.28279
470 7.63239
475 7.09928
480 5.87483
485 5.99051
490 5.30547
495 4.76939
500 4.18331
505 3.6481
510 3.21149
515 2.8304
520 2.41517
525 2.22651
530 1.79842
535 1.9629
540 1.5826
545 1.59541
550 1.02534
555 1.06782
560 0.961326
565 0.804479
570 0.705231
575 0.709259
580 0.518044
585 0.513325
590 0.369645
595 0.564657
600 0.0642558
Ex : 343
200 0.143134
205 0.142249
210 0.171418
215 0.112241
220 0.14425
225 0.168908
230 0.182085
235 0.163424
240 0.209946
245 0.188584
250 0.146017
255 0.130232
260 0.113802
265 0.175099
270 0.166757
275 0.175996
280 0.195413
285 0.181869
290 0.174447
295 0.235995
300 0.252816
305 0.256053
310 0.323815
315 0.2118
320 0.22094
325 0.688744
330 31.3362
335 514.223
340 768.176
345 186.241
350 24.3851
355 5.78904
360 3.45755
365 2.8463
370 3.96367
375 7.56081
380 9.68086
385 9.33779
390 10.514
395 11.0643
400 11.1916
405 11.61
410 12.4041
415 13.3678
420 12.9393
425 11.1758
430 10.8884
435 10.4616
440 10.3634
445 9.30391
450 8.96515
455 8.03775
460 7.1708
465 6.66984
470 6.37148
475 5.44589
480 5.6441
485 4.74506
490 4.12024
495 3.88663
500 3.19591
505 3.24551
510 2.74537
515 2.32095
520 2.41748
525 2.16912
530 1.59665
535 1.59997
540 1.53809
545 1.30379
550 1.13189
555 1.06918
560 0.899611
565 0.766087
570 0.645799
575 0.495731
580 0.455602
585 0.53788
590 0.424213
595 0.286085
600 0.207385
Ex : 348
200 0.0858242
205 0.175307
210 0.139259
215 0.160045
220 0.142734
225 0.102479
230 0.149521
235 0.156573
240 0.167181
245 0.136794
250 0.147487
255 0.14071
260 0.125715
265 0.147898
270 0.153241
275 0.130276
280 0.208735
285 0.19231
290 0.154333
295 0.171465
300 0.166442
305 0.188919
310 0.199666
315 0.233097
320 0.249265
325 0.373785
330 0.791202
335 32.9247
340 526.266
345 805.064
350 207.231
355 26.4177
360 5.65505
365 3.18141
370 2.26301
375 2.87698
380 7.4111
385 12.6613
390 13.8612
395 13.2745
400 12.2653
405 12.5838
410 14.46
415 15.8819
420 15.2569
425 13.1382
430 12.2078
435 12.073
440 11.8113
445 11.1908
450 10.4666
455 9.01578
460 8.1082
465 7.77432
470 7.13306
475 6.61293
480 5.7364
485 5.23141
490 4.73442
495 4.07258
500 3.72534
505 3.11903
510 2.84345
515 2.60616
520 2.29686
525 2.13916
530 1.72008
535 1.4494
540 1.5165
545 1.46556
550 1.17608
555 0.926193
560 0.910362
565 0.850297
570 0.674954
575 0.785903
580 0.577316
585 0.429372
590 0.471178
595 0.280018
600 0.102544
Ex : 353
200 0.165939
205 0.188386
210 0.117479
215 0.131438
220 0.163801
225 0.0874067
230 0.128123
235 0.206786
240 0.1379
245 0.182242
250 0.132022
255 0.15299
260 0.193913
265 0.165708
270 0.145952
275 0.112962
280 0.132476
285 0.120561
290 0.108591
295 0.142478
300 0.239492
305 0.198697
310 0.211825
315 0.114257
320 0.225715
325 0.317716
330 0.572894
335 0.895449
340 33.9819
345 555.037
350 820.412
355 201.676
360 25.6194
365 5.30863
370 3.05632
375 2.50871
380 3.67127
385 9.32876
390 16.3825
395 17.4088
400 14.6563
405 13.9335
410 15.2015
415 18.0335
420 17.6835
425 15.7983
430 13.7534
435 13.0499
440 12.9677
445 12.6138
450 11.442
455 10.0742
460 9.41682
465 7.96782
470 8.12311
475 7.3598
480 6.24817
485 5.85915
490 4.93788
495 4.60968
500 4.29206
505 3.73824
510 3.28908
515 2.81199
520 2.48915
525 2.33002
530 1.86956
535 1.88146
540 1.48918
545 1.37197
550 1.07634
555 1.17967
560 1.03453
565 0.891944
570 0.657552
575 0.637775
580 0.53036
585 0.474666
590 0.519208
595 0.266771
600 0.0609162
Ex : 358
200 0.158432
205 0.121533
210 0.133335
215 0.123113
220 0.151296
225 0.121611
230 0.129046
235 0.134173
240 0.120174
245 0.0962033
250 0.125388
255 0.140918
260 0.115177
265 0.127547
270 0.100452
275 0.167807
280 0.227875
285 0.121663
290 0.106991
295 0.169337
300 0.195415
305 0.17489
310 0.186921
315 0.208044
320 0.163578
325 0.247353
330 0.378854
335 0.481816
340 0.893157
345 33.0226
350 542.039
355 851.537
360 213.076
365 26.8526
370 5.35432
375 3.26575
380 3.84848
385 6.3833
390 11.3654
395 17.0927
400 16.0649
405 14.4477
410 15.4566
415 17.4446
420 15.9205
425 14.2862
430 13.3377
435 12.871
440 12.9474
445 12.2623
450 11.1552
455 10.0394
460 9.25107
465 8.27312
470 7.77238
475 7.44213
480 6.52475
485 6.1862
490 5.4815
495 4.61805
500 4.3868
505 3.96696
510 3.68521
515 2.9737
520 2.53788
525 2.55438
530 2.06798
535 1.93019
540 1.53473
545 1.29209
550 1.32605
555 1.2529
560 0.96621
565 0.854508
570 0.81983
575 0.689103
580 0.509337
585 0.531852
590 0.502092
595 0.393404
600 0.684541
Ex : 363
200 0.176485
205 0.143054
210 0.0645049
215 0.100458
220 0.0756846
225 0.167849
230 0.120568
235 0.101811
240 0.089727
245 0.0949493
250 0.158682
255 0.178016
260 0.193548
265 0.127591
270 0.111382
275 0.145097
280 0.123856
285 0.139643
290 0.0937165
295 0.112976
300 0.108158
305 0.192506
310 0.17373
315 0.148333
320 0.118514
325 0.203478
330 0.265294
335 0.349818
340 0.444653
345 0.88123
350 29.9941
355 527.38
360 844.481
365 220.176
370 27.7408
375 5.55007
380 5.23089
385 8.42742
390 11.8117
395 13.7415
400 16.0863
405 17.7974
410 18.5402
415 19.4764
420 17.9184
425 16.1322
430 14.6193
435 14.5971
440 14.5341
445 13.5571
450 12.6063
455 10.7153
460 9.83421
465 9.44958
470 8.89068
475 7.68367
480 6.9404
485 6.38308
490 5.97625
495 5.22358
500 4.72674
505 4.2611
510 3.67791
515 3.33446
520 2.89124
525 2.60915
530 2.27205
535 1.8685
540 1.87473
545 1.61645
550 1.4039
555 1.09211
560 1.105
565 0.88219
570 0.825842
575 0.560451
580 0.485774
585 0.420093
590 0.346076
595 0.370006
600 0.0597412
Ex : 368
200 0.0931416
205 0.100636
210 0.202506
215 0.147634
220 0.137894
225 0.128046
230 0.128341
235 0.0797726
240 0.115069
245 0.125715
250 0.129005
255 0.116057
260 0.177741
265 0.142994
270 0.11387
275 0.0824913
280 0.176644
285 0.119957
290 0.150233
295 0.124779
300 0.197419
305 0.131049
310 0.14319
315 0.114541
320 0.181022
325 0.164771
330 0.198793
335 0.334207
340 0.311357
345 0.487511
350 0.925755
355 25.9105
360 518.662
365 877.516
370 235.214
375 29.9241
380 7.65727
385 9.78662
390 14.8151
395 16.6117
400 15.895
405 19.6067
410 24.3923
415 25.187
420 23.9474
425 19.745
430 17.7385
435 17.4192
440 17.6063
445 16.8543
450 14.7955
455 13.4227
460 11.3073
465 10.8188
470 10.1336
475 9.19125
480 8.17308
485 7.09743
490 6.36611
495 5.5686
500 5.22747
505 4.87321
510 3.87559
515 3.62914
520 3.12128
525 2.71392
530 2.3686
535 2.08913
540 1.90992
545 1.52645
550 1.51586
555 1.23267
560 1.10652
565 0.9407
570 0.719564
575 0.604408
580 0.464424
585 0.328365
590 0.367013
595 0.397577
600 0.0660456
Ex : 373
200 0.131811
205 0.0926877
210 0.120914
215 0.128326
220 0.110607
225 0.0989381
230 0.0910293
235 0.102992
240 0.186521
245 0.134464
250 0.0970268
255 0.0992501
260 0.108888
265 0.13228
270 0.101528
275 0.0789262
280 0.110576
285 0.129539
290 0.0698126
295 0.147089
300 0.104741
305 0.14335
310 0.157823
315 0.148651
320 0.105387
325 0.195658
330 0.22139
335 0.289979
340 0.287056
345 0.370694
350 0.488313
355 0.954135
360 30.499
365 535.782
370 871.014
375 231.418
380 30.3093
385 10.2594
390 14.8438
395 17.5625
400 16.6058
405 16.1382
410 20.6222
415 27.2949
420 24.8262
425 20.7481
430 17.2035
435 16.1767
440 16.5446
445 16.5728
450 14.6924
455 12.9464
460 11.499
465 10.2016
470 9.95766
475 9.30158
480 8.02337
485 7.31143
490 6.34043
495 5.63996
500 5.00122
505 4.40505
510 3.95894
515 3.76715
520 3.14328
525 2.6161
530 2.2425
535 2.2053
540 2.05706
545 1.67573
550 1.51272
555 1.32199
560 1.04996
565 0.862455
570 0.880798
575 0.607421
580 0.42921
585 0.366233
590 0.343531
595 0.276757
600 0.449441
Ex : 378
200 0.110859
205 0.0615695
210 0.0785283
215 0.092871
220 0.0808809
225 0.0801286
230 0.14851
235 0.0815125
240 0.0517547
245 0.0908582
250 0.131948
255 0.10869
260 0.104407
265 0.0822218
270 0.120631
275 0.119487
280 0.142237
285 0.126423
290 0.0912362
295 0.122467
300 0.101742
305 0.115795
310 0.120705
315 0.117106
320 0.158595
325 0.138172
330 0.191945
335 0.238748
340 0.23241
345 0.315364
350 0.356498
355 0.525625
360 1.12637
365 28.6391
370 536.382
375 899.33
380 241.433
385 34.0932
390 14.0906
395 13.5359
400 12.5599
405 12.0059
410 13.9207
415 17.4773
420 20.5624
425 17.5354
430 14.6233
435 13.7217
440 13.2759
445 13.0296
450 11.857
455 10.5422
460 9.25582
465 8.6404
470 7.95983
475 7.68146
480 7.15829
485 6.31274
490 5.81318
495 5.08294
500 4.54509
505 4.14474
510 3.73968
515 3.32223
520 3.05863
525 2.53863
530 2.40582
535 2.01316
540 1.67035
545 1.59801
550 1.42223
555 1.25194
560 1.29683
565 0.807319
570 0.886834
575 0.609924
580 0.550094
585 0.413541
590 0.365525
595 0.278475
600 0.255998
Ex : 383
200 0.165702
205 0.0798667
210 0.0747457
215 0.116084
220 0.113831
225 0.099828
230 0.0750175
235 0.0921519
240 0.124345
245 0.106805
250 0.0925505
255 0.112912
260 0.0911352
265 0.0864369
270 0.0830803
275 0.0719989
280 0.101872
285 0.121667
290 0.127928
295 0.103523
300 0.114512
305 0.123744
310 0.0855847
315 0.114177
320 0.0766238
325 0.112699
330 0.171809
335 0.19654
340 0.177165
345 0.259252
350 0.25766
355 0.380761
360 0.536426
365 1.00259
370 27.3884
375 535.161
380 929.901
385 256.813
390 39.9261
395 15.2662
400 11.4881
405 12.3295
410 14.4207
415 15.7903
420 15.9024
425 16.5063
430 16.2963
435 14.6352
440 13.7635
445 13.0352
450 11.7724
455 10.4439
460 9.49079
465 8.77231
470 8.28112
475 7.68771
480 6.68318
485 6.19623
490 5.50561
495 5.19243
500 4.68646
505 4.0745
510 3.67013
515 3.32929
520 2.93466
525 2.54534
530 2.13951
535 2.09975
540 1.73586
545 1.51275
550 1.33006
555 1.26234
560 1.03547
565 0.891959
570 0.738395
575 0.64438
580 0.464813
585 0.428556
590 0.304544
595 0.238522
600 0.0796846
Ex : 388
200 0.142534
205 0.116376
210 0.0794236
215 0.102468
220 0.0649495
225 0.103626
230 0.0788745
235 0.0983257
240 0.157039
245 0.0836173
250 0.0812126
255 0.0593828
260 0.109205
265 0.0811232
270 0.101092
275 0.080466
280 0.0819258
285 0.089754
290 0.141055
295 0.169833
300 0.131213
305 0.104607
310 0.163887
315 0.0930892
320 0.108225
325 0.132823
330 0.128674
335 0.152359
340 0.21004
345 0.223994
350 0.223446
355 0.232053
360 0.341482
365 0.5477
370 1.07006
375 30.0866
380 549.113
385 933.332
390 259.652
395 43.2983
400 16.9034
405 14.8635
410 17.224
415 19.4779
420 18.2638
425 16.4572
430 16.6165
435 18.3717
440 17.0656
445 15.7813
450 13.5768
455 11.5087
460 10.7036
465 9.81293
470 9.20676
475 8.69477
480 7.42691
485 7.05901
490 6.26031
495 5.51686
500 4.93362
505 4.55492
510 4.03894
515 3.57096
520 3.09562
525 2.78917
530 2.47347
535 2.21964
540 1.8639
545 1.72122
550 1.5648
555 1.31244
560 1.09443
565 0.917414
570 0.822918
575 0.59969
580 0.430306
585 0.350038
590 0.367558
595 0.257773
600 0.356184
Ex : 393
200 0.123209
205 0.0890904
210 0.0899605
215 0.084113
220 0.0769538
225 0.0821419
230 0.0812309
235 0.0749872
240 0.0636257
245 0.0767331
250 0.128148
255 0.0919394
260 0.092149
265 0.0818312
270 0.0856523
275 0.0878917
280 0.0818685
285 0.106982
290 0.087986
295 0.0644252
300 0.0925874
305 0.0930679
310 0.0646538
315 0.0902761
320 0.105736
325 0.122484
330 0.0990804
335 0.116385
340 0.112246
345 0.17098
350 0.159526
355 0.215626
360 0.34275
365 0.346766
370 0.523613
375 1.04229
380 26.9071
385 552.042
390 957.571
395 272.427
400 45.0228
405 16.9267
410 16.6495
415 20.2654
420 20.5479
425 16.9428
430 14.0771
435 15.2867
440 18.1504
445 16.8921
450 14.3728
455 11.7292
460 10.0698
465 9.26862
470 8.7219
475 8.00713
480 7.46869
485 6.60097
490 5.50544
495 5.02191
500 4.7061
505 4.33138
510 3.85871
515 3.34913
520 2.92907
525 2.55886
530 2.19034
535 2.13504
540 1.76285
545 1.50791
550 1.38519
555 1.39773
560 1.09777
565 0.894269
570 0.762001
575 0.652939
580 0.497693
585 0.359212
590 0.298152
595 0.238414
600 0.043127
Ex : 398
200 0.0505623
205 0.088865
210 0.0763281
215 0.0587024
220 0.122652
225 0.0659169
230 0.0657076
235 0.12864
240 0.093939
245 0.121772
250 0.0511984
255 0.0757705
260 0.0655573
265 0.0933977
270 0.102399
275 0.0869415
280 0.0562727
285 0.094007
290 0.108456
295 0.0895378
300 0.100465
305 0.102167
310 0.111871
315 0.0875629
320 0.0999688
325 0.0908915
330 0.136504
335 0.139257
340 0.137363
345 0.121287
350 0.13395
355 0.158247
360 0.21924
365 0.234431
370 0.354571
375 0.492609
380 1.24545
385 28.5557
390 567.699
395 984.171
400 272.314
405 39.2487
410 13.6225
415 13.0253
420 13.224
425 11.6622
430 9.73194
435 9.24177
440 10.6179
445 12.5723
450 11.4931
455 9.31188
460 8.0243
465 6.98271
470 6.47012
475 6.22366
480 5.98638
485 5.4854
490 4.75631
495 4.09052
500 4.1495
505 3.73274
510 3.29538
515 2.87759
520 2.69693
525 2.42768
530 2.02369
535 1.99352
540 1.66411
545 1.49863
550 1.2936
555 1.20442
560 0.971583
565 0.898683
570 0.760076
575 0.560852
580 0.45994
585 0.383465
590 0.345093
595 0.258614
600 0.242719
Ex : 403
200 0.0988509
205 0.0902985
210 0.10784
215 0.0658572
220 0.0746387
225 0.0991719
230 0.101015
235 0.102914
240 0.0869276
245 0.0687931
250 0.0698969
255 0.0891767
260 0.0620333
265 0.114387
270 0.101601
275 0.0795577
280 0.0926808
285 0.100431
290 0.106551
295 0.089735
300 0.127794
305 0.108592
310 0.0832479
315 0.107338
320 0.0807036
325 0.0919339
330 0.126076
335 0.120508
340 0.180743
345 0.158772
350 0.143752
355 0.153984
360 0.197993
365 0.224805
370 0.306877
375 0.395629
380 0.563588
385 1.3667
390 32.2816
395 585.567
400 985.592
405 269.327
410 36.1937
415 9.76498
420 7.48981
425 6.77075
430 5.98398
435 5.58741
440 6.32229
445 6.90377
450 8.58264
455 8.58988
460 6.84672
465 6.11914
470 5.72062
475 5.03116
480 4.66578
485 4.31475
490 4.34437
495 3.89926
500 3.66106
505 3.12912
510 3.03954
515 2.67084
520 2.6893
525 2.31947
530 2.0351
535 1.75184
540 1.61623
545 1.47011
550 1.30094
555 1.08397
560 0.996605
565 0.946071
570 0.7761
575 0.605915
580 0.508747
585 0.346705
590 0.30812
595 0.257032
600 0.0292492
Ex : 408
200 0.0765697
205 0.0935657
210 0.0929854
215 0.0953192
220 0.0762724
225 0.0798646
230 0.0647221
235 0.0759646
240 0.0779017
245 0.100392
250 0.0604162
255 0.0586036
260 0.0687964
265 0.0798445
270 0.0988629
275 0.0969321
280 0.0876116
285 0.132207
290 0.0757436
295 0.102442
300 0.110454
305 0.0817484
310 0.0755724
315 0.0987811
320 0.0928649
325 0.0855803
330 0.108571
335 0.141037
340 0.132882
345 0.109163
350 0.0893829
355 0.100568
360 0.142275
365 0.222601
370 0.171068
375 0.294746
380 0.346179
385 0.67148
390 1.45209
395 30.1701
400 599.881
405 1014.62
410 271.734
415 36.8116
420 9.35503
425 6.00516
430 5.74112
435 5.75594
440 5.95245
445 6.11071
450 6.23847
455 7.66733
460 8.53226
465 7.35409
470 6.20507
475 5.65397
480 5.24688
485 4.32352
490 3.92287
495 3.87376
500 3.57704
505 3.28946
510 2.97683
515 2.87993
520 2.62854
525 2.38971
530 2.08971
535 1.77588
540 1.53387
545 1.45
550 1.20941
555 1.16287
560 1.00339
565 0.885238
570 0.739445
575 0.578315
580 0.417805
585 0.415545
590 0.27259
595 0.274913
600 0.357939
Ex : 413
200 0.129836
205 0.0981747
210 0.0809596
215 0.0764568
220 0.0542504
225 0.103055
230 0.0736906
235 0.107175
240 0.0938872
245 0.0887047
250 0.0840393
255 0.0879878
260 0.0833732
265 0.0849991
270 0.0649675
275 0.0846274
280 0.0840946
285 0.0700378
290 0.0634817
295 0.0994141
300 0.106685
305 0.0902932
310 0.0943171
315 0.0814358
320 0.102137
325 0.0668821
330 0.119985
335 0.093492
340 0.121699
345 0.113164
350 0.16253
355 0.153415
360 0.120272
365 0.162098
370 0.166644
375 0.250765
380 0.292142
385 0.501532
390 0.6328
395 1.31142
400 35.3426
405 629.489
410 1029.07
415 269.446
420 36.3161
425 8.39721
430 5.33163
435 5.40382
440 5.64096
445 5.58041
450 5.07491
455 5.01447
460 5.92582
465 7.57536
470 6.68462
475 5.63896
480 5.20412
485 4.12604
490 4.02294
495 3.53513
500 3.19304
505 3.10777
510 2.77364
515 2.68727
520 2.25124
525 2.16891
530 1.81287
535 1.64065
540 1.62563
545 1.30423
550 1.21145
555 1.02756
560 0.965371
565 0.795917
570 0.732582
575 0.562052
580 0.469156
585 0.281788
590 0.252892
595 0.267843
600 0.58509
Ex : 418
200 0.0886876
205 0.0754352
210 0.0842332
215 0.0566917
220 0.112012
225 0.111688
230 0.110404
235 0.103158
240 0.108833
245 0.0857015
250 0.099278
255 0.0738282
260 0.0919301
265 0.0727381
270 0.0785484
275 0.0856515
280 0.0947724
285 0.0714016
290 0.0839709
295 0.0965169
300 0.103075
305 0.0613547
310 0.072087
315 0.126838
320 0.100696
325 0.166543
330 0.105208
335 0.111441
340 0.0973237
345 0.101741
350 0.140709
355 0.121479
360 0.101749
365 0.156546
370 0.17391
375 0.131074
380 0.213054
385 0.295572
390 0.368265
395 0.655082
400 1.24432
405 33.6218
410 631.227
415 1047.06
420 280.954
425 35.8147
430 7.17298
435 3.89381
440 4.02247
445 3.88729
450 3.41528
455 3.3621
460 3.3034
465 3.89894
470 5.69934
475 5.63252
480 4.45497
485 3.85415
490 3.44417
495 2.96964
500 2.62864
505 2.56915
510 2.44282
515 2.21934
520 2.12681
525 1.77278
530 1.70501
535 1.58838
540 1.45336
545 1.24888
550 1.22686
555 1.02042
560 0.880094
565 0.83386
570 0.635345
575 0.500569
580 0.430462
585 0.314719
590 0.25396
595 0.227561
600 0.254783
Ex : 423
200 0.0668018
205 0.0826016
210 0.096292
215 0.0988255
220 0.0945488
225 0.0753066
230 0.102496
235 0.09016
240 0.0689083
245 0.108251
250 0.0969903
255 0.0834826
260 0.0883674
265 0.107836
270 0.0915786
275 0.0806143
280 0.108475
285 0.0631075
290 0.057919
295 0.117853
300 0.121053
305 0.116107
310 0.0764483
315 0.0965604
320 0.0826378
325 0.171348
330 0.119949
335 0.149871
340 0.117539
345 0.131713
350 0.158656
355 0.129939
360 0.130791
365 0.141504
370 0.150486
375 0.193546
380 0.191157
385 0.242437
390 0.353603
395 0.466352
400 0.607329
405 1.20828
410 34.9643
415 672.017
420 1071.51
425 273.183
430 33.9963
435 6.09881
440 2.80414
445 2.7434
450 2.48633
455 2.20531
460 2.11643
465 2.11161
470 2.55101
475 4.3831
480 5.12668
485 3.70536
490 3.05085
495 2.85161
500 2.52891
505 2.18424
510 2.11196
515 1.93437
520 1.74546
525 1.5447
530 1.49388
535 1.38394
540 1.19718
545 1.23318
550 1.05083
555 0.969814
560 0.903974
565 0.774244
570 0.752447
575 0.454566
580 0.375291
585 0.291002
590 0.273152
595 0.2418
600 0.24834
Ex : 428
200 0.0739423
205 0.0784728
210 0.0432789
215 0.089501
220 0.0710404
225 0.0742092
230 0.0628688
235 0.068128
240 0.0835958
245 0.123476
250 0.0930106
255 0.0711478
260 0.0871787
265 0.0885782
270 0.126561
275 0.0878213
280 0.108098
285 0.115827
290 0.072787
295 0.0798472
300 0.0763732
305 0.100855
310 0.101506
315 0.0940642
320 0.123569
325 0.126672
330 0.101729
335 0.137895
340 0.101467
345 0.110597
350 0.111361
355 0.175924
360 0.150138
365 0.157437
370 0.170323
375 0.183884
380 0.226812
385 0.220186
390 0.229712
395 0.326746
400 0.40815
405 0.687585
410 1.30008
415 40.1283
420 700.948
425 1117.03
430 292.229
435 35.9008
440 5.8712
445 2.24978
450 2.27471
455 2.13311
460 1.66634
465 1.47782
470 1.74225
475 1.81861
480 3.18459
485 4.78095
490 3.73786
495 2.78509
500 2.65487
505 2.12168
510 1.87676
515 1.91785
520 1.71105
525 1.53115
530 1.28417
535 1.2838
540 1.28877
545 1.0676
550 0.966296
555 0.950982
560 0.733434
565 0.666474
570 0.631203
575 0.49342
580 0.394424
585 0.28145
590 0.317987
595 0.2619
600 0.0594421
Ex : 433
200 0.0726346
205 0.0697479
210 0.104491
215 0.064037
220 0.0626436
225 0.0699067
230 0.0768877
235 0.0748395
240 0.106077
245 0.0915638
250 0.107256
255 0.102507
260 0.0786732
265 0.0713152
270 0.0946334
275 0.111204
280 0.100126
285 0.128844
290 0.081946
295 0.0697546
300 0.0622842
305 0.0683135
310 0.0973604
315 0.0760015
320 0.0786911
325 0.106971
330 0.124067
335 0.106461
340 0.101988
345 0.0990103
350 0.0986714
355 0.134676
360 0.155613
365 0.184602
370 0.180718
375 0.132462
380 0.140238
385 0.146675
390 0.220709
395 0.264576
400 0.294062
405 0.358584
410 0.762038
415 1.20177
420 43.1558
425 750.234
430 1137.82
435 286.425
440 35.1876
445 5.82021
450 2.27296
455 2.05035
460 1.83988
465 1.58877
470 1.56938
475 1.60728
480 1.73132
485 2.52381
490 4.36434
495 3.90693
500 2.66625
505 2.32668
510 2.00113
515 1.59399
520 1.64497
525 1.58763
530 1.49535
535 1.20467
540 1.12251
545 1.09922
550 1.0923
555 0.850915
560 0.793367
565 0.700155
570 0.65247
575 0.489178
580 0.392542
585 0.294676
590 0.239809
595 0.264139
600 0.104404
Ex : 438
200 0.0870798
205 0.074884
210 0.0947028
215 0.0908856
220 0.0820567
225 0.0916766
230 0.0627374
235 0.0730962
240 0.060149
245 0.070312
250 0.0850994
255 0.0981566
260 0.124048
265 0.119228
270 0.100421
275 0.120829
280 0.0742063
285 0.127476
290 0.102106
295 0.0841888
300 0.126316
305 0.0937634
310 0.116419
315 0.110312
320 0.0897276
325 0.0554603
330 0.102111
335 0.120996
340 0.10973
345 0.0780845
350 0.120479
355 0.134783
360 0.136728
365 0.147441
370 0.107664
375 0.185397
380 0.151469
385 0.186142
390 0.199794
395 0.195174
400 0.317424
405 0.347224
410 0.448351
415 0.655584
420 1.33231
425 42.5198
430 758.705
435 1226.67
440 310.383
445 37.8261
450 6.03342
455 2.18695
460 1.87694
465 2.04108
470 1.69676
475 1.53572
480 1.5117
485 1.53062
490 2.0358
495 3.64778
500 3.93271
505 2.79338
510 2.0543
515 1.97351
520 1.61558
525 1.49787
530 1.2843
535 1.22687
540 1.22137
545 1.03056
550 0.95394
555 0.863877
560 0.78925
565 0.741879
570 0.550125
575 0.489131
580 0.391391
585 0.372061
590 0.285083
595 0.236237
600 0.0268829
Ex : 443
200 0.0787546
205 0.100195
210 0.176433
215 0.0960337
220 0.0803216
225 0.0769055
230 0.0576984
235 0.0927464
240 0.102829
245 0.0820936
250 0.0813251
255 0.099889
260 0.0788615
265 0.0736657
270 0.073983
275 0.0937745
280 0.0695509
285 0.0792249
290 0.055995
295 0.0682961
300 0.0939078
305 0.085317
310 0.125997
315 0.0757076
320 0.104082
325 0.0914734
330 0.100382
335 0.13076
340 0.125566
345 0.128974
350 0.110296
355 0.0963612
360 0.103581
365 0.11403
370 0.137939
375 0.157316
380 0.188449
385 0.173699
390 0.176151
395 0.165606
400 0.18406
405 0.232267
410 0.379917
415 0.476138
420 0.719871
425 1.43478
430 48.0622
435 819.357
440 1259.53
445 314.967
450 38.5402
455 6.32188
460 2.23883
465 2.01912
470 2.07578
475 1.54115
480 1.40408
485 1.30339
490 1.54599
495 1.78132
500 2.97319
505 3.96337
510 2.71083
515 2.16129
520 1.99727
525 1.53551
530 1.4368
535 1.28107
540 1.24812
545 1.01363
550 1.00957
555 0.912186
560 0.879633
565 0.777809
570 0.564044
575 0.5465
580 0.498379
585 0.305744
590 0.342013
595 0.2803
600 0.385784
Ex : 448
200 0.0992051
205 0.0800488
210 0.088194
215 0.0827267
220 0.0727294
225 0.0887822
230 0.0810193
235 0.0755362
240 0.0999526
245 0.0954858
250 0.06953
255 0.0779019
260 0.0682713
265 0.0728283
270 0.060517
275 0.0975847
280 0.115059
285 0.0891043
290 0.0869888
295 0.0876673
300 0.091853
305 0.100964
310 0.105813
315 0.100803
320 0.107215
325 0.0892743
330 0.0827208
335 0.0833937
340 0.128561
345 0.121815
350 0.0848817
355 0.179092
360 0.137328
365 0.0998349
370 0.107026
375 0.182101
380 0.149958
385 0.130742
390 0.17987
395 0.188625
400 0.211041
405 0.177306
410 0.242645
415 0.388451
420 0.484311
425 0.716085
430 1.41776
435 50.7746
440 883.102
445 1336.4
450 333.316
455 40.4808
460 6.5481
465 2.37294
470 1.90727
475 2.05353
480 1.87159
485 1.53402
490 1.392
495 1.36732
500 1.70709
505 2.55454
510 3.65337
515 3.07718
520 1.9878
525 1.65727
530 1.54874
535 1.24285
540 1.07934
545 1.09648
550 1.10394
555 1.01218
560 0.781694
565 0.658717
570 0.636915
575 0.510852
580 0.423045
585 0.396117
590 0.356378
595 0.359812
600 0.271358
Ex : 453
200 0.0676983
205 0.0765815
210 0.0590024
215 0.119706
220 0.105829
225 0.0962524
230 0.0828835
235 0.0808728
240 0.0791099
245 0.112452
250 0.0799029
255 0.0800265
260 0.0640334
265 0.112471
270 0.0900023
275 0.0860103
280 0.0958496
285 0.0934086
290 0.0836418
295 0.0851656
300 0.083664
305 0.128829
310 0.093601
315 0.0917584
320 0.106318
325 0.0976025
330 0.113626
335 0.136279
340 0.0963523
345 0.127753
350 0.140699
355 0.0930461
360 0.137795
365 0.129772
370 0.148958
375 0.154944
380 0.140285
385 0.144213
390 0.239389
395 0.218871
400 0.196911
405 0.251905
410 0.25529
415 0.313179
420 0.34391
425 0.482842
430 0.864762
435 1.43314
440 53.5914
445 964.946
450 1412.03
455 331.871
460 40.595
465 6.71105
470 2.25171
475 1.80738
480 1.79612
485 1.77603
490 1.4231
495 1.37303
500 1.3965
505 1.46899
510 1.85532
515 3.46889
520 3.24337
525 2.16768
530 1.81469
535 1.51992
540 1.35579
545 1.2137
550 1.1455
555 0.978105
560 0.850198
565 0.815663
570 0.670566
575 0.562163
580 0.521843
585 0.336343
590 0.344883
595 0.297211
600 0.113622
Ex : 458
200 0.097597
205 0.088438
210 0.0951301
215 0.110883
220 0.103422
225 0.0967484
230 0.079238
235 0.0946806
240 0.0537312
245 0.0629223
250 0.127968
255 0.142335
260 0.0661329
265 0.0825912
270 0.0654901
275 0.0638593
280 0.0926256
285 0.104276
290 0.090555
295 0.0739425
300 0.0967848
305 0.0929423
310 0.122808
315 0.0929315
320 0.0845472
325 0.0870107
330 0.0902054
335 0.0879392
340 0.108467
345 0.148021
350 0.136665
355 0.132454
360 0.132209
365 0.122457
370 0.121267
375 0.16963
380 0.159477
385 0.190816
390 0.178429
395 0.155288
400 0.225223
405 0.247702
410 0.209732
415 0.279847
420 0.271105
425 0.382089
430 0.485597
435 0.775886
440 1.45879
445 58.3456
450 1004.14
455 1516.07
460 368.722
465 45.2448
470 7.20986
475 2.32321
480 1.89014
485 1.84847
490 1.62115
495 1.38967
500 1.34209
505 1.31197
510 1.3692
515 1.60835
520 2.76139
525 3.49137
530 2.33403
535 1.81576
540 1.63176
545 1.29316
550 1.19214
555 0.918933
560 0.934244
565 0.731637
570 0.659879
575 0.604712
580 0.474942
585 0.406759
590 0.366176
595 0.337695
600 0.228948
Ex : 463
200 0.100487
205 0.0862251
210 0.0901528
215 0.0889032
220 0.0833343
225 0.0669529
230 0.0653779
235 0.0945798
240 0.099617
245 0.11015
250 0.0806992
255 0.0712149
260 0.080585
265 0.111902
270 0.103148
275 0.0989855
280 0.0805412
285 0.117427
290 0.0888867
295 0.107511
300 0.0953078
305 0.0644145
310 0.0949952
315 0.0927456
320 0.104203
325 0.081835
330 0.117273
335 0.0977704
340 0.0882012
345 0.130446
350 0.103543
355 0.0831904
360 0.124755
365 0.101612
370 0.175044
375 0.128929
380 0.164765
385 0.214776
390 0.206856
395 0.142163
400 0.191781
405 0.176118
410 0.227324
415 0.214723
420 0.235041
425 0.31954
430 0.381223
435 0.536325
440 0.799913
445 1.45638
450 58.8753
455 1057.7
460 1623.88
465 395.409
470 48.0533
475 7.42834
480 2.39338
485 1.75153
490 1.75156
495 1.71008
500 1.54387
505 1.2314
510 1.28962
515 1.33736
520 1.54184
525 2.08028
530 3.04416
535 2.59632
540 1.78844
545 1.47981
550 1.2872
555 1.09498
560 0.946048
565 0.793624
570 0.655366
575 0.59088
580 0.525357
585 0.403222
590 0.302292
595 0.296837
600 0.311223
Ex : 468
200 0.071955
205 0.0958918
210 0.0857332
215 0.0540256
220 0.0796616
225 0.0710763
230 0.078268
235 0.0743225
240 0.0940644
245 0.0742045
250 0.0933434
255 0.0810082
260 0.05475
265 0.0741229
270 0.070259
275 0.0828905
280 0.107294
285 0.116017
290 0.089748
295 0.101977
300 0.106131
305 0.113952
310 0.172854
315 0.0784294
320 0.0931735
325 0.105024
330 0.120726
335 0.113127
340 0.103993
345 0.0965993
350 0.134826
355 0.116714
360 0.0953107
365 0.107841
370 0.124363
375 0.12407
380 0.157292
385 0.143107
390 0.143771
395 0.152833
400 0.241887
405 0.151337
410 0.186198
415 0.252149
420 0.235563
425 0.251784
430 0.269051
435 0.392
440 0.533228
445 0.867805
450 1.55427
455 65.1267
460 1079.88
465 1725.66
470 415.737
475 50.061
480 7.58873
485 2.47509
490 1.68688
495 1.79304
500 1.75196
505 1.40656
510 1.32117
515 1.33195
520 1.22398
525 1.37761
530 1.64831
535 2.82229
540 2.97805
545 1.91694
550 1.46434
555 1.3144
560 1.12602
565 0.869757
570 0.793763
575 0.702718
580 0.593568
585 0.422097
590 0.346798
595 0.297684
600 0.2771
Ex : 473
200 0.0854413
205 0.09122
210 0.0638764
215 0.079338
220 0.0850464
225 0.154984
230 0.0855243
235 0.0899318
240 0.0977966
245 0.0754185
250 0.0969312
255 0.0781652
260 0.115562
265 0.120916
270 0.129801
275 0.108567
280 0.0622155
285 0.0705689
290 0.10899
295 0.0749582
300 0.10526
305 0.0840188
310 0.134348
315 0.148886
320 0.09831
325 0.076066
330 0.0834907
335 0.121448
340 0.130308
345 0.10839
350 0.116351
355 0.114008
360 0.174726
365 0.144738
370 0.112407
375 0.102966
380 0.123797
385 0.183117
390 0.161838
395 0.18336
400 0.156669
405 0.197543
410 0.171428
415 0.189583
420 0.17054
425 0.206939
430 0.23935
435 0.298955
440 0.404278
445 0.62422
450 1.04223
455 1.676
460 78.8926
465 1225.3
470 1727.07
475 396.501
480 47.8961
485 7.41457
490 2.35962
495 1.71961
500 1.6193
505 1.54974
510 1.3288
515 1.31499
520 1.20027
525 1.2421
530 1.38206
535 1.54078
540 2.32524
545 2.92174
550 1.90974
555 1.41248
560 1.31168
565 1.06807
570 0.724062
575 0.698709
580 0.511334
585 0.473336
590 0.313797
595 0.298382
600 0.226608
Ex : 478
200 0.114943
205 0.14435
210 0.118669
215 0.0977839
220 0.0984669
225 0.111562
230 0.115179
235 0.120393
240 0.120167
245 0.0652023
250 0.0994138
255 0.114653
260 0.131446
265 0.0934448
270 0.116505
275 0.10944
280 0.120378
285 0.0964726
290 0.0926744
295 0.117405
300 0.0750703
305 0.145025
310 0.141145
315 0.120138
320 0.0912383
325 0.106648
330 0.1311
335 0.106069
340 0.112711
345 0.119996
350 0.148887
355 0.196703
360 0.143163
365 0.181276
370 0.168541
375 0.120638
380 0.128236
385 0.162393
390 0.177235
395 0.176522
400 0.198089
405 0.148737
410 0.189366
415 0.224437
420 0.232628
425 0.293991
430 0.245987
435 0.313039
440 0.440823
445 0.453905
450 0.691058
455 1.20928
460 2.02816
465 84.3187
470 1256.7
475 1751.53
480 426.183
485 51.5409
490 7.79605
495 2.41998
500 1.47424
505 1.70223
510 1.59017
515 1.46115
520 1.35395
525 1.36749
530 1.4181
535 1.28348
540 1.31853
545 1.93954
550 2.59069
555 2.21919
560 1.46347
565 1.1688
570 0.996825
575 0.726534
580 0.511555
585 0.49665
590 0.433798
595 0.283118
600 0.100387
Ex : 483
200 0.084827
205 0.1033
210 0.0873464
215 0.0859021
220 0.103223
225 0.0995458
230 0.0962444
235 0.102837
240 0.103906
245 0.109487
250 0.147799
255 0.112668
260 0.138811
265 0.135902
270 0.0798816
275 0.0924654
280 0.111668
285 0.0886698
290 0.092846
295 0.0978515
300 0.134543
305 0.0924555
310 0.106561
315 0.103721
320 0.0966026
325 0.143461
330 0.125025
335 0.119249
340 0.161677
345 0.137341
350 0.111512
355 0.0979797
360 0.157367
365 0.144613
370 0.110858
375 0.142896
380 0.131878
385 0.137207
390 0.137561
395 0.140019
400 0.149852
405 0.228001
410 0.12615
415 0.179369
420 0.173506
425 0.215653
430 0.232753
435 0.298632
440 0.333561
445 0.344258
450 0.444888
455 0.725963
460 1.17102
465 2.22472
470 66.6697
475 1240.76
480 1914.66
485 461.114
490 55.3836
495 8.21872
500 2.43155
505 1.59001
510 1.4398
515 1.66057
520 1.53352
525 1.43225
530 1.25071
535 1.30556
540 1.28286
545 1.28485
550 1.48998
555 2.26879
560 2.37154
565 1.59807
570 1.03606
575 0.859961
580 0.753805
585 0.475315
590 0.517793
595 0.379921
600 0.0432336
Ex : 488
200 0.115476
205 0.170176
210 0.109242
215 0.107321
220 0.154407
225 0.107952
230 0.131545
235 0.127873
240 0.121693
245 0.178339
250 0.151372
255 0.112293
260 0.0846175
265 0.158252
270 0.182307
275 0.0898505
280 0.103113
285 0.108014
290 0.166059
295 0.138482
300 0.094309
305 0.0892533
310 0.123008
315 0.0976204
320 0.144718
325 0.165858
330 0.143199
335 0.145107
340 0.157938
345 0.171719
350 0.164304
355 0.143833
360 0.133603
365 0.180944
370 0.191943
375 0.142566
380 0.13428
385 0.116873
390 0.163091
395 0.208308
400 0.189246
405 0.1753
410 0.241336
415 0.147575
420 0.214599
425 0.196715
430 0.20117
435 0.235793
440 0.287913
445 0.395831
450 0.414948
455 0.574074
460 0.822864
465 1.50412
470 2.29047
475 83.5448
480 1355.55
485 1905.03
490 450.6
495 54.2064
500 8.20086
505 2.46968
510 1.6181
515 1.64903
520 1.75913
525 1.81443
530 1.554
535 1.3475
540 1.36507
545 1.16694
550 1.08182
555 1.14987
560 1.69337
565 2.20905
570 1.5218
575 0.848192
580 0.683363
585 0.647129
590 0.443855
595 0.38251
600 0.678471
Ex : 493
200 0.0798705
205 0.139397
210 0.108695
215 0.111334
220 0.109945
225 0.212982
230 0.106011
235 0.0962041
240 0.107911
245 0.125768
250 0.12795
255 0.136445
260 0.0761075
265 0.10463
270 0.115779
275 0.141431
280 0.104449
285 0.0989965
290 0.108017
295 0.113726
300 0.0880721
305 0.141413
310 0.106089
315 0.12956
320 0.140768
325 0.10249
330 0.113739
335 0.200052
340 0.179557
345 0.0899786
350 0.113785
355 0.145524
360 0.171552
365 0.174885
370 0.141736
375 0.124563
380 0.114933
385 0.129427
390 0.158712
395 0.148283
400 0.142366
405 0.143894
410 0.191762
415 0.170058
420 0.178103
425 0.194041
430 0.186765
435 0.231809
440 0.213725
445 0.253252
450 0.323359
455 0.471211
460 0.586259
465 0.92227
470 1.22884
475 2.11233
480 77.3041
485 1354.02
490 2018.71
495 465.528
500 55.7194
505 8.09685
510 2.4192
515 1.54481
520 1.62501
525 1.56825
530 1.55693
535 1.44168
540 1.29051
545 1.24834
550 1.15813
555 1.06808
560 0.95742
565 1.2042
570 1.91685
575 1.59204
580 0.832316
585 0.680709
590 0.489257
595 0.486749
600 0.542131
Ex : 498
200 0.176611
205 0.110311
210 0.145319
215 0.190566
220 0.119042
225 0.127169
230 0.153156
235 0.130351
240 0.079839
245 0.173855
250 0.154769
255 0.128777
260 0.0650017
265 0.103164
270 0.126681
275 0.128312
280 0.0991327
285 0.132701
290 0.164673
295 0.225388
300 0.152236
305 0.0969108
310 0.132088
315 0.0755693
320 0.086251
325 0.191139
330 0.150655
335 0.20112
340 0.110602
345 0.206204
350 0.13307
355 0.110115
360 0.112841
365 0.141668
370 0.135648
375 0.140801
380 0.116707
385 0.140047
390 0.1723
395 0.172349
400 0.147232
405 0.186159
410 0.226442
415 0.217199
420 0.197853
425 0.194865
430 0.217817
435 0.276601
440 0.271694
445 0.275902
450 0.325555
455 0.356144
460 0.549703
465 0.730072
470 0.845666
475 1.26898
480 2.40301
485 94.2719
490 1442.02
495 1966.97
500 459.858
505 55.1549
510 8.39751
515 2.50084
520 1.8054
525 1.63316
530 1.67601
535 1.58662
540 1.40671
545 1.26215
550 1.06433
555 1.07796
560 0.996929
565 0.882183
570 0.91956
575 1.39741
580 1.29791
585 0.798439
590 0.527325
595 0.523803
600 0.222077
Ex : 503
200 0.0892595
205 0.118756
210 0.116443
215 0.0950657
220 0.1942
225 0.123939
230 0.15192
235 0.134408
240 0.11579
245 0.245206
250 0.177658
255 0.170946
260 0.179331
265 0.164607
270 0.0946759
275 0.106888
280 0.167282
285 0.16203
290 0.104009
295 0.161023
300 0.103102
305 0.12781
310 0.112907
315 0.120431
320 0.124586
325 0.166655
330 0.194732
335 0.146644
340 0.167537
345 0.224568
350 0.189473
355 0.172426
360 0.110466
365 0.181483
370 0.172273
375 0.145347
380 0.206407
385 0.221954
390 0.183532
395 0.142488
400 0.149028
405 0.179306
410 0.21148
415 0.145541
420 0.202329
425 0.226588
430 0.256175
435 0.251782
440 0.190544
445 0.267699
450 0.35147
455 0.355952
460 0.477462
465 0.550706
470 0.61253
475 0.89901
480 1.42529
485 2.37503
490 86.6166
495 1461.08
500 2077.64
505 481.281
510 57.6921
515 8.58211
520 2.83868
525 1.93119
530 1.63681
535 1.66545
540 1.56227
545 1.40355
550 1.26073
555 0.972441
560 0.989526
565 0.95515
570 0.901284
575 0.740988
580 1.05189
585 1.08783
590 0.860104
595 0.48417
600 0.227632
Ex : 508
200 0.0824075
205 0.119304
210 0.134295
215 0.111838
220 0.0979443
225 0.156497
230 0.144991
235 0.146607
240 0.108837
245 0.135466
250 0.117752
255 0.14521
260 0.12883
265 0.201818
270 0.139667
275 0.138375
280 0.128058
285 0.113688
290 0.102528
295 0.106226
300 0.138065
305 0.108904
310 0.109761
315 0.15298
320 0.160931
325 0.0977281
330 0.101989
335 0.172813
340 0.154685
345 0.125449
350 0.14907
355 0.151155
360 0.144593
365 0.136945
370 0.132337
375 0.142903
380 0.139529
385 0.221164
390 0.11106
395 0.15694
400 0.205165
405 0.191286
410 0.178219
415 0.251498
420 0.190807
425 0.298064
430 0.228736
435 0.240911
440 0.258569
445 0.25553
450 0.367429
455 0.319061
460 0.296888
465 0.468391
470 0.541782
475 0.5966
480 0.967304
485 1.45774
490 2.3497
495 95.0368
500 1479.96
505 2078.9
510 502.307
515 60.2357
520 8.97064
525 2.75313
530 1.84853
535 1.52567
540 1.52568
545 1.54273
550 1.26761
555 1.05414
560 0.911738
565 0.849687
570 0.859052
575 0.692908
580 0.533737
585 0.604701
590 0.924692
595 0.836845
600 0.119344
Ex : 513
200 0.13653
205 0.121137
210 0.126213
215 0.134445
220 0.123927
225 0.180701
230 0.106684
235 0.113603
240 0.115746
245 0.130478
250 0.100417
255 0.139591
260 0.123313
265 0.143056
270 0.155858
275 0.129142
280 0.143965
285 0.133882
290 0.11246
295 0.119043
300 0.130268
305 0.134681
310 0.142606
315 0.16378
320 0.210209
325 0.132662
330 0.168158
335 0.160376
340 0.135842
345 0.145678
350 0.17179
355 0.123352
360 0.146232
365 0.14877
370 0.126851
375 0.170467
380 0.184325
385 0.197503
390 0.149457
395 0.162888
400 0.166453
405 0.178371
410 0.18524
415 0.142235
420 0.158381
425 0.241142
430 0.258275
435 0.276551
440 0.170644
445 0.278694
450 0.238577
455 0.244964
460 0.378212
465 0.356769
470 0.440119
475 0.505713
480 0.776019
485 0.92237
490 1.30065
495 2.28303
500 88.0176
505 1450.93
510 2105.17
515 518.52
520 62.3038
525 9.41394
530 2.93558
535 1.72884
540 1.57383
545 1.40258
550 1.38699
555 1.2946
560 0.966114
565 0.847301
570 0.743213
575 0.695346
580 0.532204
585 0.544517
590 0.459728
595 0.652202
600 0.343392
Ex : 518
200 0.132011
205 0.0989721
210 0.136962
215 0.115849
220 0.128501
225 0.123935
230 0.153912
235 0.130363
240 0.176918
245 0.125372
250 0.208539
255 0.119162
260 0.119474
265 0.172316
270 0.186927
275 0.132224
280 0.166842
285 0.164598
290 0.166837
295 0.116361
300 0.10821
305 0.0802646
310 0.137083
315 0.139313
320 0.150402
325 0.159344
330 0.228563
335 0.162106
340 0.148489
345 0.138096
350 0.24838
355 0.13441
360 0.18588
365 0.210228
370 0.186117
375 0.120673
380 0.194752
385 0.158611
390 0.185177
395 0.169365
400 0.145655
405 0.167755
410 0.175869
415 0.166302
420 0.24666
425 0.168173
430 0.180639
435 0.202506
440 0.217064
445 0.243146
450 0.231611
455 0.277738
460 0.2766
465 0.278285
470 0.376467
475 0.38589
480 0.553984
485 0.590754
490 0.850661
495 1.2042
500 2.32803
505 88.6816
510 1419.81
515 2129.51
520 528.633
525 63.4066
530 9.13445
535 2.77404
540 1.7208
545 1.46513
550 1.3797
555 1.28968
560 1.05345
565 0.964686
570 0.808529
575 0.77138
580 0.540562
585 0.452179
590 0.444487
595 0.370299
600 0.0841388
Ex : 523
200 0.0726826
205 0.102181
210 0.115672
215 0.130369
220 0.0961915
225 0.150238
230 0.188484
235 0.175979
240 0.141803
245 0.176193
250 0.164577
255 0.144713
260 0.143489
265 0.101427
270 0.119376
275 0.119815
280 0.184192
285 0.202327
290 0.149969
295 0.227707
300 0.142435
305 0.167437
310 0.172007
315 0.158043
320 0.191546
325 0.1745
330 0.133368
335 0.217422
340 0.134822
345 0.187747
350 0.136115
355 0.187609
360 0.206247
365 0.226582
370 0.178795
375 0.232499
380 0.193804
385 0.204548
390 0.161559
395 0.121217
400 0.164995
405 0.157575
410 0.167739
415 0.17667
420 0.167892
425 0.248577
430 0.221814
435 0.18341
440 0.245905
445 0.248267
450 0.249196
455 0.321588
460 0.258749
465 0.286177
470 0.285048
475 0.390688
480 0.456908
485 0.49583
490 0.712025
495 0.854749
500 1.33247
505 2.18627
510 81.4015
515 1396.85
520 2117.16
525 543.902
530 65.1447
535 9.48508
540 2.71772
545 1.64271
550 1.3995
555 1.29115
560 1.18668
565 1.04112
570 0.977559
575 0.70201
580 0.652612
585 0.396997
590 0.383992
595 0.501883
600 0.0571124
Ex : 528
200 0.106031
205 0.163145
210 0.129664
215 0.138123
220 0.207582
225 0.143699
230 0.177202
235 0.139575
240 0.12912
245 0.147041
250 0.0956561
255 0.139201
260 0.201536
265 0.160962
270 0.151432
275 0.233061
280 0.108016
285 0.144172
290 0.179385
295 0.103733
300 0.139116
305 0.104182
310 0.135638
315 0.153942
320 0.122876
325 0.197242
330 0.18398
335 0.150303
340 0.146053
345 0.117451
350 0.174179
355 0.270378
360 0.157493
365 0.224501
370 0.186233
375 0.188315
380 0.188099
385 0.248476
390 0.168704
395 0.176414
400 0.204182
405 0.178931
410 0.191581
415 0.219528
420 0.141143
425 0.234514
430 0.144363
435 0.252865
440 0.254134
445 0.190814
450 0.217494
455 0.189085
460 0.206999
465 0.294776
470 0.257887
475 0.287112
480 0.351774
485 0.444604
490 0.63376
495 0.617509
500 0.746006
505 1.6116
510 2.36954
515 75.8571
520 1374.62
525 2131.22
530 542.62
535 65.1764
540 9.39064
545 2.64946
550 1.58673
555 1.20252
560 1.07064
565 1.04872
570 0.909899
575 0.827775
580 0.649989
585 0.447894
590 0.460466
595 0.398103
600 0.678305
Ex : 533
200 0.102288
205 0.150823
210 0.121337
215 0.104153
220 0.104474
225 0.134852
230 0.113516
235 0.182396
240 0.175578
245 0.169128
250 0.149101
255 0.117895
260 0.0972761
265 0.118346
270 0.189753
275 0.144211
280 0.179559
285 0.205082
290 0.186082
295 0.109885
300 0.135616
305 0.150417
310 0.160648
315 0.0805774
320 0.112491
325 0.14414
330 0.152401
335 0.143469
340 0.131233
345 0.173796
350 0.131527
355 0.149132
360 0.155405
365 0.111383
370 0.115551
375 0.153409
380 0.14496
385 0.166952
390 0.129454
395 0.118637
400 0.175839
405 0.174593
410 0.270281
415 0.182738
420 0.22013
425 0.310713
430 0.152758
435 0.230953
440 0.282461
445 0.246518
450 0.24478
455 0.209119
460 0.245014
465 0.28767
470 0.284154
475 0.279239
480 0.310576
485 0.359223
490 0.393548
495 0.520093
500 0.613939
505 0.923791
510 1.17428
515 2.14053
520 75.2106
525 1334.56
530 2090.56
535 545.219
540 65.1344
545 9.28308
550 2.47635
555 1.56422
560 1.09549
565 1.07263
570 0.852354
575 0.686684
580 0.672829
585 0.506236
590 0.413069
595 0.37592
600 0.846544
Ex : 538
200 0.170237
205 0.131004
210 0.168501
215 0.168834
220 0.109856
225 0.146164
230 0.128565
235 0.186568
240 0.163781
245 0.168007
250 0.144377
255 0.159443
260 0.190665
265 0.136346
270 0.133867
275 0.166497
280 0.192762
285 0.182524
290 0.133386
295 0.143767
300 0.156529
305 0.137076
310 0.144994
315 0.118671
320 0.104609
325 0.140102
330 0.123004
335 0.161279
340 0.137566
345 0.137656
350 0.171139
355 0.215808
360 0.14504
365 0.154333
370 0.183826
375 0.151384
380 0.223053
385 0.163895
390 0.162108
395 0.156558
400 0.209842
405 0.200089
410 0.178678
415 0.1833
420 0.178921
425 0.193993
430 0.2615
435 0.26215
440 0.266519
445 0.308385
450 0.227148
455 0.285976
460 0.262582
465 0.281783
470 0.266894
475 0.282658
480 0.304132
485 0.325668
490 0.418786
495 0.391003
500 0.496022
505 0.679795
510 0.943784
515 1.33715
520 2.25456
525 66.5224
530 1274.92
535 2079.16
540 566.246
545 67.8063
550 9.39415
555 2.32622
560 1.31265
565 0.906957
570 0.724363
575 0.763004
580 0.644606
585 0.443151
590 0.450177
595 0.356622
600 0.0990132
Ex : 543
200 0.17205
205 0.168613
210 0.237323
215 0.145743
220 0.167166
225 0.165033
230 0.154863
235 0.149186
240 0.13817
245 0.120364
250 0.140817
255 0.189491
260 0.196215
265 0.185744
270 0.155147
275 0.140221
280 0.136509
285 0.15827
290 0.150681
295 0.135873
300 0.16043
305 0.167075
310 0.129183
315 0.165596
320 0.195566
325 0.107645
330 0.220031
335 0.126225
340 0.117414
345 0.114726
350 0.202053
355 0.190168
360 0.174849
365 0.264555
370 0.265134
375 0.17717
380 0.167177
385 0.170998
390 0.191377
395 0.164033
400 0.199618
405 0.192317
410 0.206535
415 0.151137
420 0.16429
425 0.197185
430 0.228494
435 0.244097
440 0.186997
445 0.180293
450 0.294557
455 0.276045
460 0.329862
465 0.348008
470 0.235462
475 0.333662
480 0.338558
485 0.275754
490 0.337089
495 0.358426
500 0.360638
505 0.472583
510 0.722921
515 0.936576
520 1.31655
525 2.10373
530 59.9943
535 1221.77
540 2090.35
545 580.12
550 69.5801
555 9.58692
560 2.11398
565 1.20919
570 0.731031
575 0.611942
580 0.597756
585 0.52353
590 0.516307
595 0.494802
600 1.37084
Ex : 548
200 0.112754
205 0.140918
210 0.102797
215 0.165177
220 0.187236
225 0.0942359
230 0.106483
235 0.20885
240 0.212106
245 0.19135
250 0.192356
255 0.129377
260 0.142296
265 0.162059
270 0.144541
275 0.188675
280 0.136409
285 0.138799
290 0.117427
295 0.179074
300 0.110523
305 0.123216
310 0.133782
315 0.177151
320 0.111484
325 0.138013
330 0.209349
335 0.222112
340 0.167328
345 0.148143
350 0.192696
355 0.155403
360 0.222657
365 0.143594
370 0.14075
375 0.182483
380 0.192562
385 0.132553
390 0.159327
395 0.229729
400 0.189107
405 0.155305
410 0.170877
415 0.123612
420 0.18613
425 0.23887
430 0.231033
435 0.219622
440 0.241207
445 0.227462
450 0.294405
455 0.250192
460 0.300654
465 0.276698
470 0.194754
475 0.254372
480 0.255983
485 0.341204
490 0.358436
495 0.260835
500 0.422263
505 0.49903
510 0.443848
515 0.697355
520 0.957494
525 1.20754
530 1.84721
535 69.6849
540 1304.08
545 2114.06
550 584.854
555 69.4712
560 9.22215
565 2.16586
570 1.13473
575 0.669637
580 0.528303
585 0.509861
590 0.487472
595 0.393253
600 0.300879
Ex : 553
200 0.178611
205 0.165354
210 0.1144
215 0.138779
220 0.148667
225 0.134704
230 0.121004
235 0.134469
240 0.205247
245 0.158129
250 0.202625
255 0.197096
260 0.156634
265 0.200549
270 0.149404
275 0.164287
280 0.169412
285 0.112589
290 0.144309
295 0.154406
300 0.188724
305 0.149179
310 0.14977
315 0.175538
320 0.202047
325 0.146017
330 0.0944165
335 0.226274
340 0.124355
345 0.206443
350 0.218747
355 0.187908
360 0.173233
365 0.116618
370 0.16952
375 0.139126
380 0.143799
385 0.246535
390 0.177267
395 0.151563
400 0.207425
405 0.178156
410 0.180464
415 0.145646
420 0.207845
425 0.159895
430 0.218346
435 0.174519
440 0.13353
445 0.225145
450 0.2157
455 0.210971
460 0.197975
465 0.30592
470 0.264916
475 0.253257
480 0.288934
485 0.330359
490 0.30901
495 0.367397
500 0.30519
505 0.367977
510 0.412852
515 0.489274
520 0.595652
525 0.829078
530 1.2831
535 1.9495
540 59.592
545 1185.84
550 2064.06
555 590.456
560 70.7233
565 9.62458
570 1.93239
575 1.03079
580 0.742445
585 0.473473
590 0.388803
595 0.419052
600 0.177248
Ex : 558
200 0.168891
205 0.138889
210 0.152551
215 0.109683
220 0.220137
225 0.120514
230 0.135958
235 0.11245
240 0.274018
245 0.190113
250 0.175561
255 0.177949
260 0.141797
265 0.126911
270 0.109911
275 0.154648
280 0.171866
285 0.164191
290 0.162379
295 0.243012
300 0.120986
305 0.113159
310 0.205223
315 0.183106
320 0.150327
325 0.213083
330 0.193312
335 0.188828
340 0.145153
345 0.173627
350 0.213993
355 0.156154
360 0.192875
365 0.160961
370 0.138535
375 0.192235
380 0.148129
385 0.14331
390 0.132353
395 0.181932
400 0.20136
405 0.1819
410 0.239203
415 0.177953
420 0.206339
425 0.175739
430 0.24726
435 0.178407
440 0.177418
445 0.204541
450 0.22218
455 0.273025
460 0.296419
465 0.25768
470 0.200983
475 0.244999
480 0.26015
485 0.251347
490 0.284546
495 0.28593
500 0.303822
505 0.349886
510 0.372959
515 0.354065
520 0.720182
525 0.760871
530 0.798244
535 1.15636
540 1.84029
545 54.6108
550 1135.07
555 2043.16
560 591.931
565 70.91
570 9.46529
575 1.93401
580 0.723862
585 0.542185
590 0.450409
595 0.39942
600 0.0454525
Ex : 563
200 0.227685
205 0.168411
210 0.140107
215 0.11878
220 0.140746
225 0.193152
230 0.149018
235 0.181722
240 0.139643
245 0.173364
250 0.168422
255 0.174386
260 0.137351
265 0.162157
270 0.216226
275 0.177395
280 0.17684
285 0.324124
290 0.168164
295 0.146513
300 0.0999036
305 0.151631
310 0.149728
315 0.242685
320 0.133935
325 0.125036
330 0.176403
335 0.175755
340 0.27403
345 0.157614
350 0.244407
355 0.207914
360 0.255335
365 0.210672
370 0.168174
375 0.177829
380 0.185933
385 0.159227
390 0.172914
395 0.259295
400 0.174185
405 0.175805
410 0.200605
415 0.194458
420 0.210019
425 0.175588
430 0.214775
435 0.25563
440 0.262455
445 0.21474
450 0.221385
455 0.219725
460 0.210303
465 0.207198
470 0.293999
475 0.286752
480 0.233254
485 0.266863
490 0.249534
495 0.343068
500 0.262903
505 0.313074
510 0.331293
515 0.432111
520 0.575274
525 0.398635
530 0.619344
535 0.77589
540 1.0232
545 1.85654
550 53.8777
555 1103.96
560 1963.38
565 576.718
570 68.7626
575 9.00968
580 1.74133
585 0.807537
590 0.633567
595 0.37414
600 0.627908
Ex : 568
200 0.210905
205 0.189392
210 0.155581
215 0.0943757
220 0.106875
225 0.217028
230 0.138114
235 0.178272
240 0.151103
245 0.115571
250 0.116663
255 0.147719
260 0.15983
265 0.149069
270 0.198654
275 0.157972
280 0.144538
285 0.285476
290 0.201391
295 0.0988116
300 0.122635
305 0.198507
310 0.12631
315 0.164717
320 0.154989
325 0.208355
330 0.155788
335 0.177889
340 0.193218
345 0.193687
350 0.199771
355 0.148337
360 0.213982
365 0.150678
370 0.203788
375 0.157302
380 0.218976
385 0.187262
390 0.162845
395 0.157112
400 0.249193
405 0.15667
410 0.163353
415 0.178551
420 0.241698
425 0.176685
430 0.182558
435 0.224824
440 0.234808
445 0.213031
450 0.344465
455 0.267534
460 0.21579
465 0.249878
470 0.289694
475 0.296233
480 0.312024
485 0.299881
490 0.235424
495 0.307945
500 0.310918
505 0.291681
510 0.314813
515 0.367382
520 0.393965
525 0.423506
530 0.532266
535 0.70122
540 0.716234
545 1.27467
550 1.69404
555 40.2332
560 1001.7
565 1884.46
570 572.702
575 68.8834
580 8.74227
585 1.60999
590 0.750772
595 0.551477
600 0.539943
Ex : 573
200 0.174874
205 0.159175
210 0.175241
215 0.161212
220 0.167027
225 0.144376
230 0.153139
235 0.154633
240 0.201748
245 0.177479
250 0.154974
255 0.113483
260 0.140909
265 0.138868
270 0.156735
275 0.197782
280 0.169014
285 0.181575
290 0.178958
295 0.157698
300 0.158094
305 0.164428
310 0.166225
315 0.165167
320 0.177487
325 0.17671
330 0.231042
335 0.2182
340 0.185894
345 0.302426
350 0.204725
355 0.162455
360 0.174983
365 0.196283
370 0.182298
375 0.202458
380 0.175562
385 0.166955
390 0.195255
395 0.140183
400 0.201626
405 0.260861
410 0.235828
415 0.23275
420 0.240654
425 0.261787
430 0.261079
435 0.241147
440 0.27252
445 0.219316
450 0.254036
455 0.216682
460 0.295862
465 0.288116
470 0.364566
475 0.365213
480 0.336167
485 0.32842
490 0.262189
495 0.249454
500 0.255882
505 0.225369
510 0.383863
515 0.322058
520 0.344656
525 0.341085
530 0.348533
535 0.492331
540 0.614172
545 0.627343
550 1.01304
555 1.60973
560 34.7297
565 875.097
570 1789.04
575 559.518
580 67.1859
585 8.56017
590 1.47755
595 0.643685
600 0.824468
Ex : 578
200 0.262098
205 0.201321
210 0.125236
215 0.146297
220 0.146705
225 0.140273
230 0.153066
235 0.181183
240 0.110885
245 0.129064
250 0.135869
255 0.210255
260 0.235113
265 0.251046
270 0.139704
275 0.169106
280 0.224387
285 0.207975
290 0.216661
295 0.173658
300 0.165776
305 0.14219
310 0.096521
315 0.179296
320 0.0994351
325 0.168662
330 0.18331
335 0.186923
340 0.174959
345 0.184892
350 0.235619
355 0.203966
360 0.164685
365 0.223038
370 0.187866
375 0.132661
380 0.180208
385 0.168785
390 0.131193
395 0.164156
400 0.237804
405 0.248866
410 0.236685
415 0.291423
420 0.215761
425 0.24556
430 0.329238
435 0.272608
440 0.198298
445 0.289787
450 0.30941
455 0.181141
460 0.286069
465 0.196046
470 0.293839
475 0.184105
480 0.166897
485 0.317381
490 0.321956
495 0.225845
500 0.207134
505 0.215603
510 0.342285
515 0.325728
520 0.297689
525 0.295296
530 0.314433
535 0.420037
540 0.42876
545 0.499723
550 0.761999
555 0.901726
560 1.41494
565 30.8065
570 795.228
575 1584.74
580 486.708
585 58.0991
590 7.33253
595 1.37068
600 0.155978
Ex : 583
200 0.258563
205 0.215056
210 0.129527
215 0.13679
220 0.174003
225 0.182235
230 0.161948
235 0.131938
240 0.149006
245 0.196325
250 0.158703
255 0.161006
260 0.140844
265 0.200455
270 0.124194
275 0.0906706
280 0.122271
285 0.166363
290 0.22003
295 0.159154
300 0.199082
305 0.135517
310 0.176158
315 0.238924
320 0.174392
325 0.249783
330 0.23383
335 0.275584
340 0.183387
345 0.165795
350 0.138394
355 0.184712
360 0.20075
365 0.20508
370 0.148041
375 0.146066
380 0.149198
385 0.21434
390 0.14552
395 0.155712
400 0.182101
405 0.264491
410 0.257422
415 0.15977
420 0.18193
425 0.25315
430 0.232591
435 0.279053
440 0.169871
445 0.181295
450 0.264418
455 0.249677
460 0.255769
465 0.275836
470 0.259207
475 0.242014
480 0.194888
485 0.191446
490 0.221844
495 0.315219
500 0.217858
505 0.244714
510 0.270684
515 0.218821
520 0.401145
525 0.245501
530 0.305287
535 0.360869
540 0.355056
545 0.506117
550 0.4298
555 0.698979
560 0.864037
565 1.48853
570 26.8681
575 718.353
580 1379.1
585 406.762
590 48.6246
595 6.26078
600 1.55497
Ex : 588
200 0.147049
205 0.175612
210 0.198824
215 0.165512
220 0.129437
225 0.131044
230 0.17859
235 0.139078
240 0.164193
245 0.134843
250 0.147545
255 0.158069
260 0.185495
265 0.173485
270 0.198519
275 0.154908
280 0.157571
285 0.156294
290 0.254762
295 0.22237
300 0.170577
305 0.148662
310 0.226872
315 0.216301
320 0.222908
325 0.200646
330 0.202252
335 0.178368
340 0.120026
345 0.142483
350 0.181457
355 0.193338
360 0.161095
365 0.232535
370 0.115648
375 0.183513
380 0.183985
385 0.138391
390 0.202651
395 0.137166
400 0.160027
405 0.191508
410 0.135389
415 0.290425
420 0.214665
425 0.162432
430 0.15474
435 0.152715
440 0.162959
445 0.134992
450 0.266698
455 0.21561
460 0.241953
465 0.244157
470 0.212314
475 0.311171
480 0.250414
485 0.194068
490 0.232997
495 0.181358
500 0.295932
505 0.244962
510 0.141413
515 0.179111
520 0.250116
525 0.206934
530 0.268711
535 0.354152
540 0.362279
545 0.318269
550 0.337822
555 0.378641
560 0.770292
565 0.672548
570 1.14626
575 24.742
580 600.703
585 1189
590 358.568
595 42.9583
600 5.27103
Ex : 593
200 0.0486757
205 0.191255
210 0.111151
215 0.141707
220 0.135235
225 0.106233
230 0.154172
235 0.1287
240 0.146107
245 0.162836
250 0.143095
255 0.139683
260 0.141538
265 0.163727
270 0.183607
275 0.138061
280 0.119998
285 0.199418
290 0.188926
295 0.170104
300 0.113525
305 0.173188
310 0.123032
315 0.18868
320 0.116911
325 0.144084
330 0.111052
335 0.202881
340 0.275121
345 0.165314
350 0.166806
355 0.15128
360 0.215626
365 0.171385
370 0.144278
375 0.241135
380 0.195204
385 0.160221
390 0.161672
395 0.271186
400 0.224667
405 0.256812
410 0.178175
415 0.117099
420 0.196982
425 0.257502
430 0.218527
435 0.208478
440 0.265606
445 0.21621
450 0.223548
455 0.258634
460 0.236414
465 0.317462
470 0.227629
475 0.217576
480 0.229464
485 0.223082
490 0.267877
495 0.194536
500 0.277609
505 0.262052
510 0.264985
515 0.265325
520 0.207337
525 0.315792
530 0.320351
535 0.336636
540 0.29809
545 0.377175
550 0.393913
555 0.420757
560 0.488672
565 0.613096
570 0.702041
575 1.04833
580 20.3054
585 538.275
590 1032.56
595 308.829
600 44.9051
Ex : 598
200 0.144122
205 0.129827
210 0.146921
215 0.139058
220 0.199656
225 0.202854
230 0.163047
235 0.137005
240 0.101093
245 0.157668
250 0.123383
255 0.239978
260 0.149833
265 0.266558
270 0.125129
275 0.161406
280 0.212182
285 0.136281
290 0.234844
295 0.211497
300 0.161865
305 0.161361
310 0.162089
315 0.204696
320 0.1651
325 0.223244
330 0.19339
335 0.130676
340 0.233983
345 0.19766
350 0.204922
355 0.151781
360 0.167823
365 0.176068
370 0.240876
375 0.20334
380 0.252902
385 0.163662
390 0.154783
395 0.201195
400 0.17888
405 0.129347
410 0.150994
415 0.136292
420 0.242513
425 0.271738
430 0.266252
435 0.209925
440 0.153225
445 0.136254
450 0.168496
455 0.207304
460 0.220599
465 0.288195
470 0.238275
475 0.2415
480 0.197397
485 0.247826
490 0.237463
495 0.286526
500 0.291304
505 0.334828
510 0.227128
515 0.188714
520 0.228942
525 0.253751
530 0.205438
535 0.203603
540 0.332544
545 0.273009
550 0.30594
555 0.340252
560 0.341478
565 0.456962
570 0.704957
575 0.711612
580 0.868286
585 20.3073
590 489.69
595 919.362
600 587.96
Ex : 603
200 0.276608
205 0.153838
210 0.180621
215 0.166856
220 0.189833
225 0.200232
230 0.217065
235 0.169783
240 0.230604
245 0.153217
250 0.148589
255 0.235748
260 0.149014
265 0.200249
270 0.247961
275 0.164408
280 0.188434
285 0.189727
290 0.117151
295 0.255675
300 0.184242
305 0.186574
310 0.30689
315 0.148961
320 0.13246
325 0.198779
330 0.175911
335 0.213066
340 0.150074
345 0.196593
350 0.267588
355 0.274043
360 0.229901
365 0.154132
370 0.120186
375 0.208812
380 0.144363
385 0.146655
390 0.203848
395 0.218064
400 0.141775
405 0.192294
410 0.295673
415 0.239619
420 0.347403
425 0.276099
430 0.220616
435 0.325493
440 0.166354
445 0.179836
450 0.150892
455 0.226713
460 0.14161
465 0.17488
470 0.256711
475 0.3295
480 0.214318
485 0.315373
490 0.282203
495 0.302752
500 0.184785
505 0.294067
510 0.310107
515 0.272605
520 0.258973
525 0.252502
530 0.315658
535 0.193274
540 0.268611
545 0.333917
550 0.282342
555 0.35655
560 0.37126
565 0.3021
570 0.481067
575 0.439669
580 0.553339
585 0.888948
590 18.3646
595 424.663
600 878.792
